Data from MonoPyChalIsomerACN10uM450nmA_Absorbance_13-11-16-492.txt Node
Date: Tue Jul 09 13:11:16 BST 2024
User: LASERRRRR
Spectrometer: FLMT03099
Trigger mode: 0
Integration Time (sec): 2.000000E-1
Scans to average: 1
Electric dark correction enabled: true
Nonlinearity correction enabled: false
Boxcar width: 0
XAxis mode: Wavelengths
Number of Pixels in Spectrum: 3648
>>>>>Begin Spectral Data<<<<<
179.3399	-0.1491
179.5586	-0.1491
179.7771	-0.1491
179.9957	-0.3628
180.2143	0.6221
180.4329	0.4835
180.6514	-0.0236
180.8699	-0
181.0885	-0
181.307	-0
181.5255	0.1683
181.744	-0
181.9625	0.1056
182.181	0.3854
182.3994	-0.1836
182.6179	-0.2987
182.8363	-1.2982
183.0547	0.0773
183.2732	0.1511
183.4916	0.0942
183.71	0.0705
183.9284	-0.0567
184.1467	-0.0468
184.3651	0.0109
184.5835	0.1265
184.8018	0.0113
185.0201	0.0744
185.2385	-0.0669
185.4568	-0.1025
185.6751	0.0374
185.8934	-0.0236
186.1117	0.0149
186.3299	-0.1559
186.5482	0.029
186.7664	0.0919
186.9847	-0.0331
187.2029	0.0647
187.4211	0.0336
187.6393	-0.0929
187.8575	0.0092
188.0757	-0.005
188.2939	-0.0316
188.512	-0.0021
188.7302	-0.0506
188.9483	0.0426
189.1665	0.0568
189.3846	0.1158
189.6027	0.1205
189.8208	0.1568
190.0389	0.1589
190.257	0.1978
190.475	0.3469
190.6931	0.0737
190.9111	0.2251
191.1292	0.2544
191.3472	0.3142
191.5652	0.4361
191.7832	0.3434
192.0012	0.4238
192.2192	0.3344
192.4371	0.371
192.6551	0.4347
192.873	0.3322
193.091	0.5054
193.3089	0.5693
193.5268	0.5558
193.7447	0.4272
193.9626	0.4735
194.1805	0.5406
194.3984	0.5424
194.6162	0.5539
194.8341	0.4995
195.0519	0.5493
195.2697	0.574
195.4875	0.5597
195.7054	0.5664
195.9231	0.5938
196.1409	0.6773
196.3587	0.634
196.5765	0.6498
196.7942	0.7177
197.012	0.5835
197.2297	0.8232
197.4474	0.7
197.6651	0.6251
197.8828	0.8177
198.1005	0.7952
198.3182	0.8502
198.5358	0.7584
198.7535	0.8677
198.9711	0.7101
199.1888	0.6732
199.4064	0.8095
199.624	0.7388
199.8416	0.8005
200.0592	0.7925
200.2767	0.7043
200.4943	0.8898
200.7119	0.7422
200.9294	0.7405
201.1469	0.8867
201.3645	0.8216
201.582	0.8683
201.7995	0.7548
202.017	0.9102
202.2344	0.7699
202.4519	0.9619
202.6694	0.789
202.8868	0.8679
203.1042	0.9798
203.3217	0.8997
203.5391	0.9362
203.7565	0.9254
203.9739	0.9597
204.1913	0.7845
204.4086	0.8805
204.626	0.9995
204.8433	0.8874
205.0607	1.0093
205.278	0.8521
205.4953	0.9889
205.7126	0.8963
205.9299	1.0572
206.1472	0.9884
206.3644	0.9655
206.5817	1.0094
206.7989	1.1064
207.0162	1.1314
207.2334	0.8694
207.4506	0.9494
207.6678	1.0037
207.885	1.107
208.1022	1.0184
208.3194	0.9971
208.5365	0.9892
208.7537	0.9348
208.9708	0.999
209.1879	1.02
209.405	0.9937
209.6222	1.0082
209.8392	1.0557
210.0563	1.0628
210.2734	1.0894
210.4905	1.0531
210.7075	0.9831
210.9245	1.0335
211.1416	1.0285
211.3586	1.0704
211.5756	1.0953
211.7926	1.0516
212.0096	1.0027
212.2265	1.0596
212.4435	1.0608
212.6604	0.987
212.8774	0.974
213.0943	1.0138
213.3112	0.9853
213.5281	0.9561
213.745	0.9312
213.9619	0.9047
214.1788	0.9176
214.3956	0.8841
214.6125	0.9341
214.8293	0.8315
215.0461	0.9091
215.2629	0.9038
215.4798	0.8604
215.6965	0.8182
215.9133	0.828
216.1301	0.8096
216.3469	0.7532
216.5636	0.7587
216.7803	0.7833
216.9971	0.767
217.2138	0.744
217.4305	0.7009
217.6472	0.6448
217.8639	0.6387
218.0805	0.611
218.2972	0.5694
218.5138	0.523
218.7305	0.5239
218.9471	0.4942
219.1637	0.4606
219.3803	0.4298
219.5969	0.3912
219.8135	0.381
220.0301	0.3668
220.2466	0.36
220.4632	0.3487
220.6797	0.321
220.8962	0.309
221.1127	0.2977
221.3292	0.2992
221.5457	0.2932
221.7622	0.2792
221.9787	0.2905
222.1951	0.2807
222.4116	0.2728
222.628	0.274
222.8444	0.2698
223.0608	0.2779
223.2772	0.2769
223.4936	0.2702
223.71	0.2661
223.9264	0.2825
224.1427	0.264
224.3591	0.2709
224.5754	0.2747
224.7917	0.284
225.008	0.2799
225.2243	0.276
225.4406	0.2849
225.6569	0.2895
225.8732	0.29
226.0894	0.2837
226.3057	0.2936
226.5219	0.2846
226.7381	0.292
226.9543	0.2927
227.1705	0.3016
227.3867	0.301
227.6029	0.2886
227.8191	0.3041
228.0352	0.2973
228.2513	0.3167
228.4675	0.3068
228.6836	0.3204
228.8997	0.3198
229.1158	0.3164
229.3319	0.3222
229.548	0.3281
229.764	0.3266
229.9801	0.3256
230.1961	0.3274
230.4121	0.3464
230.6282	0.3501
230.8442	0.3463
231.0602	0.3425
231.2761	0.3456
231.4921	0.3467
231.7081	0.3661
231.924	0.3473
232.14	0.362
232.3559	0.3601
232.5718	0.362
232.7877	0.3662
233.0036	0.3618
233.2195	0.3576
233.4353	0.3699
233.6512	0.3763
233.867	0.3674
234.0829	0.3739
234.2987	0.3765
234.5145	0.384
234.7303	0.3867
234.9461	0.3888
235.1619	0.3894
235.3776	0.3872
235.5934	0.3944
235.8091	0.3997
236.0249	0.3948
236.2406	0.3922
236.4563	0.3905
236.672	0.4009
236.8877	0.4095
237.1034	0.4048
237.319	0.4127
237.5347	0.3979
237.7503	0.4112
237.966	0.4218
238.1816	0.4107
238.3972	0.4092
238.6128	0.4152
238.8284	0.4117
239.0439	0.4166
239.2595	0.4248
239.475	0.4096
239.6906	0.42
239.9061	0.4156
240.1216	0.4192
240.3371	0.421
240.5526	0.4295
240.7681	0.4029
240.9836	0.4049
241.199	0.4021
241.4145	0.4006
241.6299	0.4026
241.8453	0.3962
242.0607	0.3806
242.2761	0.3907
242.4915	0.3918
242.7069	0.3763
242.9223	0.3729
243.1376	0.3669
243.353	0.3478
243.5683	0.3546
243.7836	0.3462
243.9989	0.3387
244.2142	0.3284
244.4295	0.3239
244.6448	0.3196
244.86	0.3158
245.0753	0.3037
245.2905	0.2996
245.5057	0.2924
245.721	0.2924
245.9362	0.2798
246.1514	0.2659
246.3665	0.284
246.5817	0.2617
246.7969	0.2731
247.012	0.2631
247.2271	0.254
247.4423	0.2573
247.6574	0.2558
247.8725	0.2512
248.0876	0.2519
248.3026	0.2414
248.5177	0.2365
248.7328	0.2333
248.9478	0.2379
249.1628	0.2302
249.3779	0.2286
249.5929	0.2204
249.8079	0.2258
250.0228	0.2187
250.2378	0.2191
250.4528	0.2085
250.6677	0.2224
250.8827	0.2093
251.0976	0.213
251.3125	0.2102
251.5274	0.2006
251.7423	0.2085
251.9572	0.2104
252.172	0.2098
252.3869	0.2115
252.6017	0.2071
252.8166	0.2002
253.0314	0.2033
253.2462	0.2133
253.461	0.2036
253.6758	0.1988
253.8906	0.2093
254.1053	0.2053
254.3201	0.2003
254.5348	0.1985
254.7496	0.1977
254.9643	0.1971
255.179	0.1947
255.3937	0.2011
255.6083	0.1941
255.823	0.1914
256.0377	0.1898
256.2523	0.2021
256.467	0.1957
256.6816	0.1889
256.8962	0.2054
257.1108	0.191
257.3254	0.1966
257.54	0.1941
257.7545	0.1892
257.9691	0.1994
258.1836	0.1921
258.3981	0.1953
258.6127	0.1963
258.8272	0.194
259.0417	0.188
259.2561	0.1995
259.4706	0.187
259.6851	0.1924
259.8995	0.1872
260.114	0.1833
260.3284	0.1918
260.5428	0.2016
260.7572	0.2057
260.9716	0.2037
261.186	0.1942
261.4003	0.2044
261.6147	0.189
261.829	0.2005
262.0433	0.1992
262.2577	0.2015
262.472	0.194
262.6863	0.19
262.9005	0.1994
263.1148	0.1913
263.3291	0.1975
263.5433	0.19
263.7576	0.1933
263.9718	0.187
264.186	0.1841
264.4002	0.1789
264.6144	0.1895
264.8286	0.1783
265.0427	0.1799
265.2569	0.1818
265.471	0.1758
265.6851	0.1819
265.8993	0.1757
266.1134	0.1677
266.3275	0.1769
266.5415	0.1665
266.7556	0.181
266.9697	0.1753
267.1837	0.1763
267.3978	0.1934
267.6118	0.1867
267.8258	0.1923
268.0398	0.1926
268.2538	0.1894
268.4677	0.1882
268.6817	0.1853
268.8957	0.1864
269.1096	0.1876
269.3235	0.18
269.5374	0.1738
269.7514	0.167
269.9652	0.1718
270.1791	0.1547
270.393	0.1534
270.6068	0.1468
270.8207	0.1425
271.0345	0.1525
271.2483	0.1493
271.4622	0.1458
271.676	0.1443
271.8897	0.1383
272.1035	0.1288
272.3173	0.1331
272.531	0.1416
272.7448	0.1395
272.9585	0.1342
273.1722	0.1386
273.3859	0.1386
273.5996	0.1315
273.8133	0.1355
274.0269	0.14
274.2406	0.1356
274.4542	0.1337
274.6679	0.134
274.8815	0.1401
275.0951	0.1363
275.3087	0.1345
275.5223	0.1287
275.7358	0.1314
275.9494	0.1468
276.1629	0.1316
276.3765	0.1334
276.59	0.1409
276.8035	0.1312
277.017	0.1429
277.2305	0.1391
277.444	0.1441
277.6574	0.1351
277.8709	0.1451
278.0843	0.1481
278.2978	0.1414
278.5112	0.1379
278.7246	0.1448
278.938	0.1412
279.1513	0.1386
279.3647	0.1455
279.5781	0.1377
279.7914	0.1458
280.0047	0.1402
280.2181	0.1448
280.4314	0.1521
280.6447	0.1479
280.8579	0.1455
281.0712	0.15
281.2845	0.1488
281.4977	0.1508
281.711	0.1492
281.9242	0.1484
282.1374	0.1442
282.3506	0.1395
282.5638	0.1424
282.7769	0.1522
282.9901	0.1489
283.2033	0.1529
283.4164	0.149
283.6295	0.1532
283.8426	0.1515
284.0557	0.1495
284.2688	0.1542
284.4819	0.149
284.695	0.1551
284.908	0.1587
285.1211	0.1606
285.3341	0.1531
285.5471	0.1546
285.7601	0.1489
285.9731	0.1548
286.1861	0.1568
286.3991	0.1605
286.612	0.1547
286.825	0.1584
287.0379	0.1537
287.2508	0.154
287.4637	0.1664
287.6766	0.154
287.8895	0.1634
288.1024	0.1616
288.3152	0.1633
288.5281	0.155
288.7409	0.1514
288.9538	0.157
289.1666	0.1666
289.3794	0.1585
289.5922	0.1593
289.8049	0.1633
290.0177	0.1625
290.2304	0.1538
290.4432	0.1606
290.6559	0.1566
290.8686	0.1576
291.0813	0.1608
291.294	0.166
291.5067	0.163
291.7194	0.1668
291.932	0.1684
292.1447	0.1599
292.3573	0.1608
292.5699	0.1736
292.7825	0.1643
292.9951	0.1671
293.2077	0.155
293.4203	0.1581
293.6328	0.171
293.8454	0.1629
294.0579	0.1641
294.2704	0.1714
294.4829	0.1688
294.6954	0.1638
294.9079	0.1678
295.1204	0.1622
295.3328	0.1631
295.5453	0.1563
295.7577	0.1589
295.9701	0.1615
296.1825	0.1633
296.3949	0.1545
296.6073	0.1731
296.8197	0.1639
297.0321	0.1636
297.2444	0.1581
297.4567	0.1591
297.6691	0.1644
297.8814	0.1598
298.0937	0.161
298.306	0.1628
298.5182	0.1552
298.7305	0.1675
298.9428	0.1599
299.155	0.1655
299.3672	0.1591
299.5794	0.1664
299.7916	0.1581
300.0038	0.1617
300.216	0.1655
300.4282	0.1628
300.6403	0.1676
300.8525	0.1611
301.0646	0.1622
301.2767	0.1663
301.4888	0.1522
301.7009	0.1641
301.913	0.1623
302.125	0.1599
302.3371	0.1655
302.5491	0.1614
302.7612	0.1682
302.9732	0.1617
303.1852	0.1661
303.3972	0.1623
303.6092	0.1631
303.8211	0.1603
304.0331	0.1509
304.245	0.1567
304.457	0.1614
304.6689	0.158
304.8808	0.1519
305.0927	0.1551
305.3046	0.1556
305.5164	0.1487
305.7283	0.1552
305.9401	0.1572
306.152	0.1561
306.3638	0.1515
306.5756	0.1434
306.7874	0.147
306.9992	0.1416
307.2109	0.1434
307.4227	0.1394
307.6344	0.1401
307.8462	0.1327
308.0579	0.1282
308.2696	0.1343
308.4813	0.1361
308.693	0.1282
308.9046	0.1259
309.1163	0.1284
309.328	0.1218
309.5396	0.123
309.7512	0.1237
309.9628	0.1132
310.1744	0.1182
310.386	0.1094
310.5976	0.1179
310.8091	0.1168
311.0207	0.1144
311.2322	0.1171
311.4437	0.119
311.6552	0.1089
311.8667	0.1109
312.0782	0.1082
312.2897	0.1009
312.5012	0.1074
312.7126	0.1033
312.924	0.0947
313.1355	0.1004
313.3469	0.0993
313.5583	0.1027
313.7696	0.0963
313.981	0.1052
314.1924	0.0924
314.4037	0.0991
314.6151	0.0932
314.8264	0.0969
315.0377	0.0974
315.249	0.0992
315.4603	0.1023
315.6716	0.0976
315.8828	0.0995
316.0941	0.0937
316.3053	0.095
316.5165	0.0884
316.7277	0.0878
316.9389	0.0949
317.1501	0.0886
317.3613	0.0887
317.5724	0.0923
317.7836	0.0924
317.9947	0.0906
318.2058	0.0903
318.417	0.0811
318.6281	0.095
318.8391	0.0898
319.0502	0.091
319.2613	0.0939
319.4723	0.0898
319.6834	0.0919
319.8944	0.0885
320.1054	0.0858
320.3164	0.0969
320.5274	0.0974
320.7383	0.0877
320.9493	0.0888
321.1602	0.0875
321.3712	0.1005
321.5821	0.0919
321.793	0.092
322.0039	0.0851
322.2148	0.092
322.4257	0.0961
322.6365	0.0946
322.8474	0.0915
323.0582	0.106
323.269	0.0909
323.4798	0.0969
323.6906	0.0958
323.9014	0.0915
324.1122	0.097
324.3229	0.0947
324.5337	0.0804
324.7444	0.0906
324.9551	0.0931
325.1658	0.0953
325.3765	0.0906
325.5872	0.0906
325.7979	0.1006
326.0085	0.0974
326.2192	0.0999
326.4298	0.106
326.6404	0.0929
326.851	0.0937
327.0616	0.0967
327.2722	0.0989
327.4828	0.0935
327.6933	0.1011
327.9039	0.0947
328.1144	0.0988
328.3249	0.0955
328.5354	0.0979
328.7459	0.0967
328.9564	0.0888
329.1669	0.0961
329.3773	0.1031
329.5878	0.105
329.7982	0.098
330.0086	0.1012
330.219	0.1001
330.4294	0.0963
330.6398	0.1056
330.8502	0.0971
331.0605	0.0945
331.2708	0.1044
331.4812	0.1011
331.6915	0.0982
331.9018	0.0943
332.1121	0.1016
332.3224	0.0957
332.5326	0.0974
332.7429	0.0972
332.9531	0.0969
333.1633	0.1075
333.3735	0.1043
333.5837	0.0945
333.7939	0.0969
334.0041	0.0943
334.2143	0.0947
334.4244	0.0989
334.6346	0.0917
334.8447	0.1046
335.0548	0.0979
335.2649	0.089
335.475	0.0969
335.685	0.1029
335.8951	0.1013
336.1051	0.0921
336.3152	0.0992
336.5252	0.0991
336.7352	0.1043
336.9452	0.1039
337.1552	0.1029
337.3652	0.1055
337.5751	0.1061
337.7851	0.0944
337.995	0.1086
338.2049	0.0973
338.4148	0.1055
338.6247	0.102
338.8346	0.1048
339.0445	0.1052
339.2543	0.1137
339.4642	0.106
339.674	0.1061
339.8838	0.1017
340.0936	0.1162
340.3034	0.1146
340.5132	0.106
340.7229	0.1164
340.9327	0.1133
341.1424	0.1121
341.3522	0.1073
341.5619	0.1111
341.7716	0.1156
341.9813	0.1159
342.1909	0.1166
342.4006	0.1058
342.6102	0.11
342.8199	0.1228
343.0295	0.1052
343.2391	0.1246
343.4487	0.1111
343.6583	0.1106
343.8679	0.1135
344.0774	0.1277
344.287	0.1256
344.4965	0.1162
344.706	0.1255
344.9155	0.1253
345.125	0.1239
345.3345	0.1239
345.544	0.1073
345.7534	0.1153
345.9629	0.1246
346.1723	0.1309
346.3817	0.1234
346.5911	0.1234
346.8005	0.1248
347.0099	0.116
347.2193	0.1291
347.4286	0.1311
347.638	0.1335
347.8473	0.1292
348.0566	0.1328
348.2659	0.1218
348.4752	0.1274
348.6845	0.1263
348.8937	0.1288
349.103	0.1327
349.3122	0.1326
349.5214	0.1409
349.7306	0.1274
349.9398	0.1272
350.149	0.138
350.3582	0.1254
350.5674	0.1372
350.7765	0.1293
350.9856	0.1421
351.1948	0.1393
351.4039	0.1305
351.613	0.1298
351.822	0.1376
352.0311	0.1358
352.2402	0.1397
352.4492	0.1362
352.6582	0.1483
352.8672	0.1367
353.0762	0.144
353.2852	0.1548
353.4942	0.1404
353.7032	0.1476
353.9121	0.1519
354.1211	0.147
354.33	0.1381
354.5389	0.1556
354.7478	0.1468
354.9567	0.1416
355.1655	0.1517
355.3744	0.1467
355.5833	0.1457
355.7921	0.1403
356.0009	0.1467
356.2097	0.1506
356.4185	0.1477
356.6273	0.16
356.8361	0.1505
357.0448	0.1544
357.2536	0.156
357.4623	0.1491
357.671	0.1554
357.8797	0.1557
358.0884	0.1607
358.2971	0.1639
358.5057	0.1607
358.7144	0.16
358.923	0.1734
359.1316	0.1701
359.3402	0.1752
359.5488	0.1703
359.7574	0.1641
359.966	0.1744
360.1746	0.1702
360.3831	0.178
360.5916	0.1799
360.8002	0.1813
361.0087	0.1717
361.2172	0.1794
361.4256	0.1764
361.6341	0.1791
361.8426	0.1876
362.051	0.1701
362.2594	0.1858
362.4678	0.1748
362.6762	0.1821
362.8846	0.1854
363.093	0.1831
363.3014	0.1841
363.5097	0.1874
363.718	0.1868
363.9264	0.1915
364.1347	0.1924
364.343	0.1858
364.5513	0.1986
364.7595	0.191
364.9678	0.1969
365.176	0.1918
365.3842	0.1937
365.5925	0.202
365.8007	0.1961
366.0089	0.1972
366.217	0.1982
366.4252	0.2052
366.6333	0.1991
366.8415	0.1975
367.0496	0.1997
367.2577	0.1978
367.4658	0.2033
367.6739	0.2062
367.882	0.2041
368.09	0.1931
368.2981	0.2185
368.5061	0.2074
368.7141	0.2156
368.9221	0.2095
369.1301	0.2133
369.3381	0.2217
369.5461	0.2123
369.754	0.2196
369.962	0.206
370.1699	0.221
370.3778	0.2084
370.5857	0.2196
370.7936	0.2107
371.0015	0.2267
371.2093	0.207
371.4172	0.2257
371.625	0.2196
371.8328	0.2273
372.0406	0.2353
372.2484	0.2194
372.4562	0.2313
372.664	0.2232
372.8717	0.2207
373.0795	0.2314
373.2872	0.2328
373.4949	0.2204
373.7026	0.2302
373.9103	0.2227
374.118	0.2347
374.3256	0.2335
374.5333	0.224
374.7409	0.2199
374.9485	0.2272
375.1561	0.2349
375.3637	0.238
375.5713	0.2438
375.7789	0.2326
375.9864	0.2317
376.194	0.2368
376.4015	0.2502
376.609	0.2402
376.8165	0.2408
377.024	0.2328
377.2315	0.2412
377.4389	0.239
377.6464	0.2348
377.8538	0.2543
378.0612	0.238
378.2686	0.2447
378.476	0.2415
378.6834	0.2455
378.8908	0.2667
379.0981	0.2445
379.3055	0.2415
379.5128	0.2437
379.7201	0.2489
379.9274	0.2531
380.1347	0.2492
380.342	0.2477
380.5492	0.2545
380.7565	0.2493
380.9637	0.2648
381.1709	0.2608
381.3781	0.2434
381.5853	0.2617
381.7925	0.2582
381.9997	0.2574
382.2068	0.2585
382.4139	0.2605
382.6211	0.255
382.8282	0.2553
383.0353	0.2592
383.2424	0.254
383.4494	0.2616
383.6565	0.2639
383.8635	0.2653
384.0706	0.2547
384.2776	0.2692
384.4846	0.2607
384.6916	0.2727
384.8986	0.2576
385.1055	0.273
385.3125	0.2836
385.5194	0.2712
385.7263	0.2725
385.9333	0.262
386.1402	0.2609
386.347	0.2738
386.5539	0.2676
386.7608	0.2602
386.9676	0.27
387.1744	0.2634
387.3813	0.2644
387.5881	0.2551
387.7948	0.2611
388.0016	0.2686
388.2084	0.2677
388.4151	0.2614
388.6219	0.2677
388.8286	0.2676
389.0353	0.2522
389.242	0.2515
389.4487	0.2496
389.6553	0.265
389.862	0.2484
390.0686	0.2495
390.2753	0.2516
390.4819	0.2515
390.6885	0.2562
390.8951	0.2495
391.1016	0.2581
391.3082	0.2498
391.5147	0.2536
391.7213	0.2491
391.9278	0.2469
392.1343	0.2591
392.3408	0.2348
392.5473	0.2394
392.7537	0.2539
392.9602	0.2238
393.1666	0.2329
393.373	0.2412
393.5794	0.2373
393.7858	0.23
393.9922	0.2297
394.1986	0.232
394.4049	0.237
394.6113	0.2387
394.8176	0.2235
395.0239	0.2284
395.2302	0.2302
395.4365	0.2277
395.6428	0.2313
395.8491	0.2271
396.0553	0.2274
396.2615	0.237
396.4678	0.224
396.674	0.2258
396.8802	0.2251
397.0863	0.2372
397.2925	0.2264
397.4987	0.2229
397.7048	0.2273
397.9109	0.2222
398.117	0.2242
398.3231	0.2206
398.5292	0.2205
398.7353	0.2226
398.9413	0.2211
399.1474	0.2248
399.3534	0.2199
399.5594	0.2234
399.7654	0.2199
399.9714	0.22
400.1774	0.2229
400.3833	0.2237
400.5893	0.221
400.7952	0.2169
401.0011	0.2307
401.207	0.2133
401.4129	0.2051
401.6188	0.2102
401.8247	0.2115
402.0305	0.2239
402.2364	0.2322
402.4422	0.2176
402.648	0.2371
402.8538	0.2317
403.0596	0.2061
403.2654	0.204
403.4711	0.2161
403.6768	0.2318
403.8826	0.2212
404.0883	0.2124
404.294	0.2193
404.4997	0.225
404.7054	0.2201
404.911	0.221
405.1167	0.2266
405.3223	0.2248
405.5279	0.2171
405.7335	0.2264
405.9391	0.2183
406.1447	0.2231
406.3502	0.223
406.5558	0.2178
406.7613	0.2041
406.9668	0.2298
407.1724	0.2217
407.3778	0.2286
407.5833	0.2168
407.7888	0.2286
407.9942	0.2163
408.1997	0.2286
408.4051	0.2156
408.6105	0.2193
408.8159	0.2335
409.0213	0.2095
409.2267	0.214
409.432	0.2206
409.6374	0.2264
409.8427	0.2267
410.048	0.2216
410.2533	0.22
410.4586	0.2264
410.6639	0.2115
410.8691	0.217
411.0744	0.2215
411.2796	0.226
411.4848	0.2034
411.69	0.216
411.8952	0.2115
412.1004	0.2137
412.3056	0.2224
412.5107	0.2342
412.7158	0.2132
412.921	0.2214
413.1261	0.2052
413.3312	0.2275
413.5362	0.2108
413.7413	0.2221
413.9464	0.2092
414.1514	0.2172
414.3564	0.2262
414.5614	0.2216
414.7664	0.2183
414.9714	0.2033
415.1764	0.2096
415.3813	0.2088
415.5863	0.2138
415.7912	0.2099
415.9961	0.2118
416.201	0.2267
416.4059	0.2081
416.6108	0.2169
416.8156	0.2023
417.0205	0.2168
417.2253	0.2065
417.4301	0.2172
417.6349	0.2178
417.8397	0.2079
418.0445	0.2116
418.2492	0.2081
418.454	0.2153
418.6587	0.2079
418.8634	0.2098
419.0681	0.2062
419.2728	0.2077
419.4775	0.2077
419.6822	0.201
419.8868	0.1926
420.0915	0.2129
420.2961	0.1993
420.5007	0.1984
420.7053	0.2057
420.9099	0.1975
421.1144	0.2137
421.319	0.1951
421.5235	0.2039
421.728	0.1969
421.9325	0.1921
422.137	0.1896
422.3415	0.2056
422.546	0.2
422.7504	0.1972
422.9549	0.2018
423.1593	0.1999
423.3637	0.19
423.5681	0.2059
423.7725	0.1915
423.9769	0.1874
424.1812	0.1845
424.3856	0.1813
424.5899	0.1972
424.7942	0.1822
424.9985	0.1879
425.2028	0.1717
425.4071	0.1849
425.6113	0.1894
425.8156	0.1736
426.0198	0.186
426.224	0.1689
426.4282	0.1577
426.6324	0.1771
426.8366	0.1665
427.0407	0.1723
427.2449	0.1763
427.449	0.1684
427.6531	0.1606
427.8572	0.1734
428.0613	0.1704
428.2654	0.1571
428.4694	0.1771
428.6735	0.1779
428.8775	0.1684
429.0815	0.1616
429.2855	0.1715
429.4895	0.1611
429.6935	0.1534
429.8975	0.1559
430.1014	0.1526
430.3053	0.1502
430.5093	0.1561
430.7132	0.1467
430.9171	0.1566
431.1209	0.1516
431.3248	0.141
431.5286	0.1502
431.7325	0.1432
431.9363	0.1457
432.1401	0.1557
432.3439	0.1384
432.5477	0.1387
432.7514	0.1418
432.9552	0.1257
433.1589	0.1199
433.3627	0.1275
433.5664	0.1266
433.7701	0.1314
433.9737	0.1197
434.1774	0.1198
434.3811	0.1123
434.5847	0.1242
434.7883	0.1101
434.9919	0.1155
435.1955	0.1024
435.3991	0.1074
435.6027	0.1094
435.8062	0.1013
436.0098	0.1165
436.2133	0.1032
436.4168	0.1038
436.6203	0.1099
436.8238	0.0922
437.0272	0.0967
437.2307	0.1007
437.4341	0.1039
437.6375	0.0951
437.841	0.0988
438.0443	0.1041
438.2477	0.093
438.4511	0.0981
438.6545	0.0824
438.8578	0.096
439.0611	0.0806
439.2644	0.0938
439.4677	0.0863
439.671	0.0953
439.8743	0.0875
440.0775	0.0759
440.2808	0.0831
440.484	0.0827
440.6872	0.071
440.8904	0.0681
441.0936	0.0712
441.2967	0.0751
441.4999	0.0714
441.703	0.0646
441.9062	0.069
442.1093	0.063
442.3124	0.07
442.5155	0.0613
442.7185	0.0576
442.9216	0.0615
443.1246	0.0621
443.3276	0.0555
443.5307	0.0508
443.7337	0.06
443.9366	0.0576
444.1396	0.0496
444.3426	0.0525
444.5455	0.0459
444.7484	0.0456
444.9513	0.0552
445.1542	0.049
445.3571	0.043
445.56	0.0344
445.7628	0.0402
445.9657	0.0541
446.1685	0.042
446.3713	0.0421
446.5741	0.0516
446.7769	0.0363
446.9797	0.0426
447.1824	0.0363
447.3852	0.0412
447.5879	0.0398
447.7906	0.0426
447.9933	0.0445
448.196	0.0448
448.3986	0.0295
448.6013	0.0197
448.8039	0.0245
449.0066	0.041
449.2092	0.034
449.4118	0.0288
449.6143	0.0287
449.8169	0.0241
450.0195	0.0167
450.222	0.0182
450.4245	0.021
450.627	0.0256
450.8295	0.0123
451.032	0.0263
451.2345	0.012
451.4369	0.0225
451.6394	0.0264
451.8418	0.0187
452.0442	0.0102
452.2466	0.0228
452.449	0.023
452.6513	0.0195
452.8537	0.0206
453.056	0.0127
453.2583	0.0165
453.4607	0.0186
453.663	0.0252
453.8652	0.0147
454.0675	0.0093
454.2697	0.0225
454.472	0.0187
454.6742	0.0101
454.8764	0.0094
455.0786	0.0133
455.2808	0.0109
455.4829	0.0099
455.6851	0.0061
455.8872	0.0055
456.0893	0.0071
456.2915	0.0069
456.4935	0.0121
456.6956	0.0121
456.8977	0.0096
457.0997	0.0006
457.3018	0.0059
457.5038	0.0115
457.7058	0.0034
457.9078	0.0043
458.1098	-0.0005
458.3117	0.0126
458.5137	0.0066
458.7156	0.0135
458.9175	-0.001
459.1194	0.0107
459.3213	0.0056
459.5232	-0.0006
459.725	-0.0015
459.9269	0.0024
460.1287	0.0063
460.3305	0.0047
460.5323	0.0098
460.7341	0.0041
460.9359	-0.0026
461.1376	0.0048
461.3394	0.0028
461.5411	0.0033
461.7428	-0.0066
461.9445	-0.0034
462.1462	0.0012
462.3479	0.0077
462.5495	0.0122
462.7512	-0.0014
462.9528	-0.0028
463.1544	-0.0023
463.356	0.0003
463.5576	-0.0037
463.7592	-0.0018
463.9607	0.0039
464.1623	0.0058
464.3638	0.0021
464.5653	0.0056
464.7668	-0.0032
464.9683	0.0122
465.1697	0.0021
465.3712	0.0033
465.5726	-0.0021
465.7741	0.0007
465.9755	-0.0039
466.1769	-0.0086
466.3782	-0.0039
466.5796	-0.0063
466.7809	-0.0036
466.9823	-0.0075
467.1836	0.0027
467.3849	0.0029
467.5862	-0.0026
467.7875	-0.0078
467.9887	-0.0064
468.19	-0.0102
468.3912	-0.0033
468.5924	-0.0053
468.7936	-0.0161
468.9948	0.0056
469.196	-0.0097
469.3972	0.0034
469.5983	0.0073
469.7994	-0.0041
470.0006	-0.0067
470.2017	-0.0012
470.4027	0.0036
470.6038	-0.0042
470.8049	-0.0054
471.0059	-0.0046
471.2069	0.0046
471.408	-0.0019
471.6089	0.0019
471.8099	-0.0018
472.0109	-0.0129
472.2119	-0.0101
472.4128	-0.002
472.6137	-0.012
472.8146	-0.0141
473.0155	-0.0125
473.2164	-0.0102
473.4173	-0.0035
473.6181	-0.0003
473.819	-0.0055
474.0198	0.0012
474.2206	-0.0039
474.4214	0.0029
474.6222	-0.0025
474.8229	-0.0032
475.0237	-0.0008
475.2244	-0.0007
475.4251	-0.0084
475.6258	0.0017
475.8265	-0.0079
476.0272	-0.0023
476.2278	-0.0028
476.4285	0.0033
476.6291	-0.0086
476.8297	-0.0026
477.0303	-0.005
477.2309	0.0082
477.4315	0.0025
477.632	-0.0111
477.8326	-0.0037
478.0331	-0.0019
478.2336	0.0041
478.4341	-0.011
478.6346	-0.0056
478.8351	-0.0036
479.0355	-0.0071
479.236	-0.0061
479.4364	-0.0034
479.6368	0.0045
479.8372	-0.0045
480.0376	-0.005
480.2379	-0.0089
480.4383	-0.0013
480.6386	-0.0203
480.8389	-0.0069
481.0392	-0.0105
481.2395	-0.0153
481.4398	0.0006
481.6401	-0.014
481.8403	-0.0042
482.0405	-0.0114
482.2408	0.0073
482.441	-0.0016
482.6411	-0.0029
482.8413	-0.0032
483.0415	-0.0096
483.2416	-0.0015
483.4417	-0.0042
483.6419	0.0017
483.8419	-0.0071
484.042	-0.0041
484.2421	-0.0104
484.4422	-0.0054
484.6422	-0.008
484.8422	-0.0125
485.0422	-0.0046
485.2422	-0.006
485.4422	-0.007
485.6422	-0.0073
485.8421	-0.0054
486.042	-0.0024
486.242	-0.0119
486.4419	-0.0063
486.6417	-0.0018
486.8416	-0.0018
487.0415	-0.0068
487.2413	-0.006
487.4411	-0.0015
487.641	-0.0029
487.8408	-0.008
488.0405	-0.0115
488.2403	-0.0116
488.4401	-0.009
488.6398	-0.01
488.8395	-0.0089
489.0392	-0.0056
489.2389	-0.0052
489.4386	-0.0012
489.6383	-0.0063
489.8379	-0.0049
490.0376	0.0016
490.2372	-0.0066
490.4368	-0.0093
490.6364	0.001
490.836	-0.0045
491.0355	-0.0075
491.2351	-0.0064
491.4346	-0.013
491.6341	-0.0072
491.8336	-0.0143
492.0331	-0.0131
492.2326	-0.0102
492.432	-0.0039
492.6315	-0.011
492.8309	-0.0046
493.0303	-0.0031
493.2297	-0.0049
493.4291	-0.0109
493.6284	-0.0047
493.8278	-0.0037
494.0271	-0.002
494.2264	-0.0033
494.4257	-0.0019
494.625	-0.008
494.8243	-0.002
495.0236	-0.0137
495.2228	-0.004
495.422	-0.009
495.6213	-0.0054
495.8205	-0.0057
496.0196	-0.0126
496.2188	-0.0034
496.418	-0.0097
496.6171	-0.0068
496.8162	-0.0121
497.0153	-0.0014
497.2144	0.0019
497.4135	-0.0016
497.6126	-0.0093
497.8116	-0.0012
498.0107	-0.0024
498.2097	-0.0066
498.4087	-0.0089
498.6077	-0.014
498.8067	-0.0076
499.0056	0.0018
499.2046	-0.0031
499.4035	-0.0132
499.6024	-0.0054
499.8013	-0.0042
500.0002	-0.0058
500.199	-0.0086
500.3979	-0.0062
500.5967	-0.0157
500.7956	-0.0073
500.9944	-0.0169
501.1932	-0.0043
501.3919	-0.0085
501.5907	-0.01
501.7895	-0.0094
501.9882	-0.0101
502.1869	-0.0021
502.3856	-0.0077
502.5843	-0.0083
502.783	-0.0108
502.9816	-0.0137
503.1803	-0.0033
503.3789	-0.0082
503.5775	-0.0069
503.7761	-0.0071
503.9747	-0.0083
504.1732	-0.007
504.3718	-0.0091
504.5703	-0.0061
504.7689	-0.011
504.9674	0.0003
505.1658	-0.0104
505.3643	-0.0035
505.5628	0.0026
505.7612	-0.0111
505.9597	-0.0076
506.1581	-0.0047
506.3565	-0.0089
506.5549	-0.0082
506.7532	-0.0045
506.9516	0.0004
507.1499	-0.0056
507.3482	-0.0069
507.5465	0.0022
507.7448	-0.005
507.9431	-0.0028
508.1414	-0.0069
508.3396	-0.003
508.5379	-0.007
508.7361	-0.0028
508.9343	-0.0076
509.1325	-0.0056
509.3306	-0.0041
509.5288	-0.002
509.7269	-0.0116
509.9251	-0.0017
510.1232	-0.0061
510.3213	-0.0093
510.5193	-0.0044
510.7174	-0.0007
510.9154	-0.007
511.1135	-0.0141
511.3115	-0.0103
511.5095	-0.011
511.7075	-0.0047
511.9055	-0.0073
512.1034	-0.0135
512.3014	-0.0075
512.4993	-0.0055
512.6972	-0.0012
512.8951	-0.0085
513.093	-0.005
513.2908	-0.003
513.4887	-0.0045
513.6865	-0.0096
513.8844	-0.003
514.0822	-0.0069
514.2799	-0.0072
514.4777	-0.0078
514.6755	-0.001
514.8732	-0.0065
515.0709	-0.0118
515.2687	-0.0027
515.4664	-0.0048
515.664	-0.0066
515.8617	-0.0068
516.0594	-0.0073
516.257	-0.0014
516.4546	-0.014
516.6522	-0.0083
516.8498	-0.0085
517.0474	-0.0004
517.2449	-0.0115
517.4425	-0.0093
517.64	-0.0091
517.8375	-0.0026
518.035	-0.0055
518.2325	-0.0052
518.43	-0.0056
518.6274	-0.0074
518.8249	-0.0114
519.0223	-0.002
519.2197	-0.0026
519.4171	-0.0069
519.6145	-0.0013
519.8118	-0.0101
520.0092	-0.0023
520.2065	-0.0116
520.4038	-0.0094
520.6011	-0.0082
520.7984	-0.0106
520.9956	-0.0106
521.1929	-0.0096
521.3901	-0.0106
521.5874	-0.0037
521.7846	0.0004
521.9818	-0.0046
522.1789	-0.009
522.3761	-0.0047
522.5732	-0.0071
522.7704	-0.0042
522.9675	-0.0078
523.1646	-0.0025
523.3617	-0.0085
523.5587	-0.004
523.7558	0.0009
523.9528	-0.0031
524.1498	-0.0055
524.3468	-0.003
524.5438	-0.0005
524.7408	-0.0165
524.9378	-0.0093
525.1347	-0.0027
525.3316	-0.0025
525.5285	-0.0092
525.7254	-0.0101
525.9223	-0.0046
526.1192	-0.0026
526.316	0.0001
526.5129	-0.0058
526.7097	-0.0131
526.9065	-0.0035
527.1033	-0.0041
527.3	-0.006
527.4968	-0.01
527.6935	-0.0025
527.8903	-0.0031
528.087	-0.0101
528.2837	-0.0094
528.4804	-0.0037
528.677	-0.0028
528.8737	-0.0151
529.0703	0.0004
529.2669	-0.0001
529.4635	-0.0067
529.6601	-0.0082
529.8567	-0.0058
530.0532	-0.0011
530.2498	-0.0072
530.4463	-0.0019
530.6428	-0.0027
530.8393	0.005
531.0358	-0.0092
531.2322	-0.0064
531.4287	-0.0145
531.6251	-0.0047
531.8215	0.005
532.0179	-0.0081
532.2143	0.0002
532.4107	-0.0024
532.607	-0.0086
532.8034	-0.0097
532.9997	-0.0109
533.196	-0.0058
533.3923	-0.0062
533.5886	-0.0052
533.7848	-0.0066
533.9811	-0.0053
534.1773	-0.0133
534.3735	-0.0025
534.5697	-0.0088
534.7659	-0.0067
534.9621	-0.0025
535.1582	-0.0067
535.3544	-0.0103
535.5505	-0.0086
535.7466	-0.0033
535.9427	0.0051
536.1387	0.0018
536.3348	-0.0043
536.5308	-0.0046
536.7269	-0.0011
536.9229	0.0015
537.1189	-0.0088
537.3148	0.0015
537.5108	0.0009
537.7068	-0.0047
537.9027	-0.0079
538.0986	0.0013
538.2945	-0.0023
538.4904	-0.0076
538.6863	-0.0124
538.8821	-0.0025
539.078	-0.0112
539.2738	-0.0042
539.4696	-0.0065
539.6654	-0.0008
539.8611	-0.0056
540.0569	-0.0027
540.2526	-0.0072
540.4484	0.0078
540.6441	0.0014
540.8398	-0.0088
541.0355	-0.003
541.2311	-0.0047
541.4268	0.0032
541.6224	-0.0044
541.818	-0.0029
542.0136	-0.0086
542.2092	-0.0035
542.4048	-0.0008
542.6003	-0.0076
542.7959	-0.0034
542.9914	-0.0092
543.1869	-0.008
543.3824	-0.0049
543.5779	-0.0117
543.7734	-0.0116
543.9688	-0.0122
544.1642	-0.0098
544.3596	-0.0059
544.555	-0.0076
544.7504	-0.008
544.9458	-0.0032
545.1411	0.0085
545.3365	0.0008
545.5318	0.0075
545.7271	0.002
545.9224	-0.0007
546.1177	-0.0113
546.3129	-0.0002
546.5081	-0.0055
546.7034	-0.007
546.8986	-0.0043
547.0938	-0.0065
547.289	-0.0058
547.4841	-0.0114
547.6793	-0.0082
547.8744	0.0049
548.0695	-0.0061
548.2646	-0.0061
548.4597	0.0032
548.6548	-0.0046
548.8498	-0.007
549.0448	0.0006
549.2399	-0.0073
549.4349	-0.0009
549.6298	-0.0087
549.8248	-0.0016
550.0198	-0.0047
550.2147	0.0003
550.4096	-0.0047
550.6045	-0.01
550.7994	-0.0023
550.9943	-0.0043
551.1892	-0.0043
551.384	-0.011
551.5788	-0.0071
551.7737	-0.0048
551.9685	-0.0098
552.1632	-0.0092
552.358	-0.0095
552.5528	-0.0088
552.7475	-0.0102
552.9422	-0.0093
553.1369	-0.0075
553.3316	-0.0011
553.5263	-0.0076
553.7209	-0.0037
553.9156	0.0018
554.1102	-0.0075
554.3048	-0.0083
554.4994	-0.0075
554.694	-0.0031
554.8885	-0.0071
555.0831	0.0005
555.2776	-0.0049
555.4721	-0.008
555.6666	-0.0028
555.8611	-0.0064
556.0555	-0.0043
556.25	-0.0019
556.4444	-0.0047
556.6388	-0.0084
556.8332	-0.0013
557.0276	-0.0072
557.222	-0.0045
557.4163	0.0015
557.6107	-0.007
557.805	-0.005
557.9993	-0.0048
558.1936	-0.0043
558.3879	0.0014
558.5821	-0.0065
558.7764	-0.0069
558.9706	-0.0035
559.1648	-0.0031
559.359	-0.0117
559.5532	0.0004
559.7473	-0.0082
559.9415	-0.0097
560.1356	-0.004
560.3297	-0.0117
560.5238	-0.0056
560.7179	-0.0032
560.9119	-0.0026
561.106	-0.0031
561.3	-0.0022
561.494	-0.01
561.688	-0.0014
561.882	-0.0071
562.076	-0.0058
562.2699	-0.0081
562.4639	-0.0045
562.6578	-0.0052
562.8517	-0.0061
563.0456	0.0029
563.2395	-0.0006
563.4333	-0.004
563.6272	-0.0134
563.821	-0.0031
564.0148	-0.0034
564.2086	-0.004
564.4024	-0.0052
564.5961	-0.0021
564.7899	0.0011
564.9836	0.0029
565.1773	-0.0063
565.371	0.0024
565.5647	-0.0031
565.7584	0.0007
565.952	-0.0012
566.1456	-0.0029
566.3393	-0.005
566.5329	-0.0039
566.7264	0.0002
566.92	0.0001
567.1136	-0.0064
567.3071	0.0002
567.5006	0.0026
567.6941	-0
567.8876	-0.0001
568.0811	0.0013
568.2745	-0.0031
568.468	-0.0041
568.6614	-0.0087
568.8548	-0.0091
569.0482	-0.0081
569.2416	-0.0066
569.4349	-0.0039
569.6283	-0.0046
569.8216	-0.0043
570.0149	-0.0067
570.2082	-0.003
570.4015	-0.0016
570.5947	-0.0005
570.788	-0.0043
570.9812	-0.0034
571.1744	-0.0043
571.3676	-0.0052
571.5608	-0.0033
571.754	-0.0065
571.9471	-0.0045
572.1402	-0.0018
572.3333	-0.0027
572.5264	-0.0007
572.7195	0.0007
572.9126	-0.0023
573.1057	-0.0034
573.2987	0.0004
573.4917	-0.0056
573.6847	-0.0017
573.8777	-0.008
574.0707	-0.001
574.2636	-0.0021
574.4566	-0.0051
574.6495	-0.0019
574.8424	-0.0042
575.0353	-0.0023
575.2281	-0.0047
575.421	-0.0022
575.6138	-0.006
575.8067	-0.0035
575.9995	0.0011
576.1923	-0.009
576.385	-0.0067
576.5778	-0.003
576.7706	0.0027
576.9633	-0.0017
577.156	-0.0002
577.3487	-0.0016
577.5414	0.0008
577.734	0.0051
577.9267	0.0018
578.1193	-0.0059
578.3119	-0.0001
578.5045	-0.0057
578.6971	0.0004
578.8897	-0.0061
579.0822	-0.004
579.2747	0.0043
579.4673	-0.0045
579.6598	-0.0007
579.8522	0.0002
580.0447	-0.0051
580.2372	-0.0012
580.4296	0.0077
580.622	0.0001
580.8144	-0.0059
581.0068	-0.0009
581.1992	0.0033
581.3915	-0.0023
581.5839	-0.0054
581.7762	-0.0042
581.9685	-0.003
582.1608	-0.0071
582.353	0.0017
582.5453	-0.0088
582.7375	0.0011
582.9298	-0.0037
583.122	0.0031
583.3142	-0.0015
583.5063	-0.0034
583.6985	-0.0029
583.8906	-0.0003
584.0827	-0.004
584.2749	-0.0049
584.4669	-0.0063
584.659	-0.0058
584.8511	-0.0004
585.0431	-0.0039
585.2352	-0.0038
585.4272	-0.0057
585.6192	-0.0067
585.8111	-0.0006
586.0031	0.0008
586.195	-0.0053
586.387	-0.0021
586.5789	-0.0059
586.7708	-0.0088
586.9627	-0.0041
587.1545	-0.0041
587.3464	-0.0067
587.5382	-0.0035
587.73	-0.0119
587.9218	0.0002
588.1136	-0.0016
588.3053	-0.004
588.4971	-0.0071
588.6888	-0.0031
588.8805	-0.0043
589.0722	0.0006
589.2639	-0.0014
589.4556	-0.0016
589.6472	0.001
589.8389	-0.0005
590.0305	-0.0025
590.2221	-0.0038
590.4137	-0.0038
590.6052	-0.0055
590.7968	-0.0039
590.9883	-0.0028
591.1798	-0.0072
591.3713	-0.0038
591.5628	-0.0076
591.7543	-0.0021
591.9458	-0.0007
592.1372	-0.0018
592.3286	-0.0049
592.52	-0.0071
592.7114	0.002
592.9028	-0.0031
593.0941	-0.0003
593.2855	-0.0034
593.4768	0.0027
593.6681	0.0008
593.8594	0.0039
594.0506	0.0005
594.2419	0.0038
594.4331	-0.0047
594.6244	-0.0017
594.8156	-0.0031
595.0067	-0.0003
595.1979	-0.0029
595.3891	-0.0058
595.5802	-0.0081
595.7713	-0.0019
595.9624	0.0005
596.1535	-0.0032
596.3446	-0.0046
596.5357	0.0003
596.7267	-0.0039
596.9177	0.004
597.1087	-0.0046
597.2997	0.0033
597.4907	-0.0004
597.6817	-0.0023
597.8726	-0.0055
598.0635	-0.0047
598.2544	-0.0063
598.4453	-0.0048
598.6362	-0.0033
598.827	-0.0099
599.0179	-0.0024
599.2087	-0.0103
599.3995	-0.0074
599.5903	-0.0035
599.7811	-0.0055
599.9718	-0.0049
600.1626	-0.005
600.3533	-0.0039
600.544	0.0001
600.7347	0.0017
600.9254	-0.0052
601.116	-0.0052
601.3067	-0.0022
601.4973	-0.0085
601.6879	-0.0024
601.8785	-0.0028
602.0691	-0.0032
602.2596	-0.0042
602.4502	-0.0034
602.6407	0.0039
602.8312	-0.0013
603.0217	0.0027
603.2122	-0.0061
603.4027	0.0014
603.5931	-0.001
603.7835	-0.0024
603.9739	-0.0033
604.1643	-0.0001
604.3547	-0.0022
604.5451	-0.0053
604.7354	-0.0022
604.9257	-0.0028
605.116	-0.0051
605.3063	-0.0026
605.4966	0.0012
605.6869	-0.0016
605.8771	-0.0044
606.0673	-0.0022
606.2575	-0.0056
606.4477	-0.0057
606.6379	-0.0088
606.8281	-0.0107
607.0182	-0.008
607.2083	-0.003
607.3985	-0.0067
607.5885	-0.0025
607.7786	-0.0034
607.9687	-0.0028
608.1587	-0.0043
608.3488	-0.0036
608.5388	0.0042
608.7288	-0.0046
608.9187	-0.0025
609.1087	-0.0055
609.2986	-0.0006
609.4886	-0.003
609.6785	-0.0026
609.8684	-0.0026
610.0582	0.0005
610.2481	-0.0067
610.4379	-0.0033
610.6278	-0.0032
610.8176	0.0015
611.0074	-0.0015
611.1971	-0.0001
611.3869	-0.0029
611.5766	-0.0022
611.7664	0.0002
611.9561	0.0028
612.1458	0.0046
612.3354	-0.0047
612.5251	-0.0029
612.7147	-0.0012
612.9044	-0.0025
613.094	-0.0051
613.2836	-0.0016
613.4731	-0.0081
613.6627	-0.0035
613.8522	-0.0002
614.0417	-0.0027
614.2313	-0.0049
614.4207	-0.0012
614.6102	-0.0018
614.7997	-0.0008
614.9891	-0.001
615.1785	-0.0039
615.3679	0.0029
615.5573	-0.0046
615.7467	-0.0042
615.9361	-0.002
616.1254	-0.0036
616.3147	-0.007
616.504	-0.0021
616.6933	-0.0024
616.8826	-0.007
617.0718	-0.0023
617.2611	0.0004
617.4503	0.0038
617.6395	0.0001
617.8287	-0.002
618.0179	0.0007
618.207	-0.0016
618.3961	-0.0007
618.5853	-0.0026
618.7744	-0.0042
618.9634	0.0047
619.1525	-0.0059
619.3416	-0.0081
619.5306	-0.0039
619.7196	-0.0004
619.9086	-0.0026
620.0976	-0.0024
620.2866	-0.0021
620.4755	-0.0024
620.6645	-0.0017
620.8534	-0.0028
621.0423	-0.0081
621.2312	-0.0091
621.42	-0.0057
621.6089	-0.0001
621.7977	-0.0043
621.9865	-0.0056
622.1753	-0.0031
622.3641	0.0018
622.5529	0.0025
622.7416	-0.0021
622.9303	0.0016
623.1191	-0.0027
623.3078	0.0006
623.4964	-0.0022
623.6851	0.0005
623.8737	-0.0035
624.0624	-0.0004
624.251	0.0028
624.4396	0.0008
624.6282	-0.0006
624.8167	0.0056
625.0053	-0.001
625.1938	0.0023
625.3823	-0.0003
625.5708	0.0002
625.7593	-0.0009
625.9477	-0.009
626.1362	-0.0043
626.3246	-0.0076
626.513	-0.0054
626.7014	-0.0026
626.8898	-0.0047
627.0781	-0.0037
627.2665	-0.0002
627.4548	-0.0076
627.6431	-0.0066
627.8314	-0.0056
628.0197	-0.0019
628.2079	-0.0006
628.3962	-0.0017
628.5844	0.0063
628.7726	-0.001
628.9608	-0.0016
629.1489	-0.0009
629.3371	0.0004
629.5252	0.0039
629.7134	0.0034
629.9015	-0.0001
630.0895	-0.0016
630.2776	-0.0026
630.4657	-0.0035
630.6537	-0.0023
630.8417	-0.0018
631.0297	-0.0042
631.2177	-0.001
631.4057	0.0007
631.5936	-0.0021
631.7815	-0.0045
631.9695	-0.0017
632.1574	-0.0051
632.3452	-0.0077
632.5331	-0.0056
632.7209	-0.0072
632.9088	-0.0024
633.0966	-0.0045
633.2844	-0.0025
633.4722	-0.002
633.6599	-0.0008
633.8477	0.0002
634.0354	-0.007
634.2231	-0.0046
634.4108	-0.0054
634.5985	-0.0028
634.7861	-0.0021
634.9738	-0.0072
635.1614	-0.0067
635.349	-0.0026
635.5366	-0.0036
635.7242	-0
635.9117	0.002
636.0993	-0.0016
636.2868	-0.0069
636.4743	-0.0051
636.6618	-0.0078
636.8492	-0.0025
637.0367	0.001
637.2241	-0.0055
637.4115	-0.0024
637.5989	-0.0016
637.7863	-0.0026
637.9737	-0.0086
638.161	-0.0048
638.3484	-0.0015
638.5357	0.001
638.723	-0.0038
638.9103	-0.0003
639.0975	0.0052
639.2848	-0.0002
639.472	0.0043
639.6592	0.005
639.8464	-0.0017
640.0336	-0.0037
640.2208	0.0016
640.4079	-0.0037
640.595	0.0026
640.7821	-0.0022
640.9692	0.0043
641.1563	0.0042
641.3434	0.0016
641.5304	-0.0005
641.7174	0.0028
641.9044	0.0049
642.0914	-0.0021
642.2784	0.004
642.4653	0.0018
642.6523	0.001
642.8392	0.0035
643.0261	0.0052
643.213	0.0053
643.3999	-0.0008
643.5867	0.0001
643.7735	0.0041
643.9604	0.0043
644.1472	-0.0031
644.3339	-0.0006
644.5207	-0.0041
644.7075	-0.0036
644.8942	-0.0043
645.0809	-0.0034
645.2676	-0.0058
645.4543	0.0031
645.6409	-0.0019
645.8276	-0.0021
646.0142	-0.0026
646.2008	-0.0103
646.3874	-0.0064
646.574	-0.0051
646.7605	-0.0003
646.9471	-0.0096
647.1336	-0.0032
647.3201	-0.0079
647.5066	-0.0004
647.6931	-0.0038
647.8795	-0.0049
648.0659	-0.0022
648.2524	0.0002
648.4388	-0.0052
648.6252	-0.0033
648.8115	-0.013
648.9979	-0.0065
649.1842	-0.0063
649.3705	-0.0035
649.5568	-0.0017
649.7431	-0.0044
649.9294	-0.0022
650.1156	-0.0024
650.3018	-0.0055
650.488	-0.0107
650.6742	-0.0026
650.8604	-0.0016
651.0466	0.0021
651.2327	-0.0004
651.4188	0.0006
651.6049	0.0036
651.791	0.0028
651.9771	-0.0004
652.1632	0.0027
652.3492	0.0032
652.5352	-0.001
652.7212	0.0028
652.9072	0.0035
653.0932	0.0024
653.2791	-0
653.465	-0.0012
653.651	-0.0022
653.8369	-0.0023
654.0227	0.0034
654.2086	0.0002
654.3944	-0.0072
654.5803	-0.0054
654.7661	-0.0016
654.9519	-0.0036
655.1377	0.0005
655.3234	-0.0002
655.5092	-0.0002
655.6949	-0.0002
655.8806	-0.0002
656.0663	-0.0002
656.2519	-0.0002
656.4376	-0.0048
656.6232	-0.0056
656.8088	-0.0015
656.9945	-0.0049
657.18	-0.0013
657.3656	0.001
657.5511	-0.0054
657.7367	-0.0034
657.9222	-0.0022
658.1077	-0.0004
658.2932	-0.0011
658.4786	-0.0001
658.6641	-0.0035
658.8495	-0.0001
659.0349	-0.0034
659.2203	-0.0069
659.4057	-0.006
659.591	0.0021
659.7764	-0.0039
659.9617	-0.0032
660.147	-0.0026
660.3323	-0.0018
660.5176	-0.0099
660.7028	-0.0064
660.888	-0.0027
661.0733	-0.005
661.2585	-0.0067
661.4436	0.0015
661.6288	-0.0054
661.8139	-0.0015
661.9991	0.0016
662.1842	-0.0011
662.3693	-0.0029
662.5544	0.0005
662.7394	-0.0009
662.9245	0.0003
663.1095	-0.0005
663.2945	0.0007
663.4795	-0.0024
663.6644	-0.0131
663.8494	-0.0031
664.0343	-0.0032
664.2193	-0.0026
664.4042	-0.0074
664.589	0.0006
664.7739	0.0022
664.9587	-0.0018
665.1436	-0.0008
665.3284	-0.0023
665.5132	-0.0019
665.698	0.0029
665.8827	0.0033
666.0675	-0.0063
666.2522	-0.0062
666.4369	-0.0084
666.6216	-0.0156
666.8063	-0.0056
666.9909	-0.0107
667.1756	-0.0027
667.3602	-0.0108
667.5448	-0.0071
667.7294	-0.002
667.9139	-0.003
668.0985	-0.0097
668.283	-0.0055
668.4675	-0.0145
668.652	-0.0111
668.8365	-0.0069
669.0209	-0.0052
669.2054	-0.0034
669.3898	-0.0064
669.5742	-0.0088
669.7586	-0.0047
669.943	-0.0058
670.1273	-0.012
670.3117	-0.0044
670.496	-0.006
670.6803	-0.0012
670.8646	-0.0047
671.0488	0.0011
671.2331	-0.0009
671.4173	0.0012
671.6015	0.0011
671.7857	-0.0055
671.9699	-0.0036
672.1541	-0.0042
672.3382	-0.0082
672.5223	-0.0012
672.7064	-0.0073
672.8905	-0.0091
673.0746	-0.0134
673.2587	-0.0181
673.4427	-0.0117
673.6267	-0.0131
673.8107	-0.012
673.9947	-0.012
674.1787	-0.0095
674.3626	-0.0041
674.5465	-0.0063
674.7304	-0.0004
674.9143	-0.0019
675.0982	-0.0044
675.2821	-0.0039
675.4659	-0.0039
675.6497	0.0013
675.8335	-0.0007
676.0173	-0.0058
676.2011	-0.0071
676.3849	-0.0014
676.5686	-0.002
676.7523	-0.0026
676.936	0.0004
677.1197	0.0028
677.3034	-0.0091
677.487	-0.0004
677.6706	-0.0042
677.8542	-0.0041
678.0378	-0.0004
678.2214	-0.013
678.405	-0.0051
678.5885	-0.0051
678.772	-0.0082
678.9555	-0.0053
679.139	-0.0057
679.3225	-0.0091
679.5059	-0.004
679.6894	-0.0032
679.8728	-0.0025
680.0562	0.0005
680.2395	-0.0006
680.4229	-0.0037
680.6062	0.0027
680.7896	0.0006
680.9729	0.0003
681.1562	-0.0003
681.3394	-0.0005
681.5227	-0.0019
681.7059	-0.0052
681.8891	-0.0016
682.0723	-0.0057
682.2555	-0.0028
682.4387	-0.0018
682.6218	-0.0033
682.805	-0.0026
682.9881	-0.0016
683.1712	-0.0018
683.3542	-0.0009
683.5373	-0.0062
683.7203	-0.0053
683.9034	-0.0059
684.0864	-0.0039
684.2694	-0.0066
684.4523	-0.0043
684.6353	0.0001
684.8182	-0.0006
685.0011	-0.0018
685.184	-0.001
685.3669	-0.0014
685.5498	0.0029
685.7326	0.002
685.9154	-0.0045
686.0982	-0.0011
686.281	-0.0084
686.4638	-0.0077
686.6465	-0.0058
686.8293	-0.0048
687.012	-0.001
687.1947	-0.0054
687.3774	-0.0054
687.56	-0.0062
687.7427	-0.0015
687.9253	0.0007
688.1079	-0.0008
688.2905	-0.0001
688.4731	-0.0043
688.6556	-0.0076
688.8382	-0.0059
689.0207	0.002
689.2032	0.0032
689.3857	-0.0036
689.5681	-0.0002
689.7506	0.0006
689.933	0.0021
690.1154	0.0008
690.2978	0.0026
690.4802	-0.0018
690.6626	0.0055
690.8449	0.0047
691.0272	0.0049
691.2095	0.0005
691.3918	-0.0061
691.5741	-0.0054
691.7563	-0.0027
691.9386	-0.004
692.1208	-0.0082
692.303	-0.0038
692.4852	-0.0023
692.6673	0.0005
692.8495	-0.0092
693.0316	-0.0038
693.2137	-0.0101
693.3958	-0.0046
693.5778	-0.0017
693.7599	-0.0053
693.9419	-0.0073
694.1239	-0.0035
694.3059	-0.0075
694.4879	-0.0073
694.6699	-0.0053
694.8518	-0.0075
695.0337	-0.0041
695.2157	-0.0043
695.3975	-0.0085
695.5794	-0.0076
695.7613	-0.0022
695.9431	-0.0081
696.1249	-0.0064
696.3067	-0.0006
696.4885	-0.0014
696.6703	0.0017
696.852	-0.0029
697.0337	-0.0015
697.2154	0.0018
697.3971	-0.0031
697.5788	-0.0043
697.7605	-0.0006
697.9421	-0.0086
698.1237	-0.0025
698.3053	-0.0038
698.4869	-0.0049
698.6685	-0.0022
698.85	-0.0075
699.0315	-0.0039
699.213	-0.0002
699.3945	-0.0041
699.576	0.0047
699.7575	-0.0035
699.9389	-0.001
700.1203	-0.0072
700.3017	-0.0044
700.4831	0.0014
700.6645	-0.0077
700.8458	-0.0015
701.0271	-0.0014
701.2084	-0.0095
701.3897	-0.0067
701.571	0.0012
701.7523	-0.0013
701.9335	0.006
702.1147	0.0032
702.2959	-0.0019
702.4771	-0.0015
702.6583	-0.0003
702.8394	-0.0014
703.0205	0.0035
703.2016	-0.0063
703.3827	0.0025
703.5638	-0.0073
703.7449	-0.0046
703.9259	-0.0074
704.1069	-0.0025
704.2879	0.0014
704.4689	-0.005
704.6499	-0.0055
704.8308	-0.0038
705.0117	0.0021
705.1927	-0.0054
705.3735	0.0028
705.5544	-0.002
705.7353	0.0041
705.9161	0.0014
706.0969	-0.0003
706.2777	-0.002
706.4585	0.0002
706.6393	-0.0015
706.82	-0.0055
707.0007	0.0006
707.1815	-0.0032
707.3621	-0.0065
707.5428	-0.0044
707.7235	-0.0013
707.9041	-0.0043
708.0847	0.0027
708.2653	-0.0027
708.4459	-0.0009
708.6265	-0.002
708.807	0.0024
708.9875	0.0029
709.168	-0.0021
709.3485	-0.009
709.529	-0.0094
709.7095	-0.0035
709.8899	-0.0065
710.0703	0.0047
710.2507	0.0001
710.4311	0.0001
710.6115	0.0016
710.7918	-0.0059
710.9721	0.0042
711.1524	0.0019
711.3327	0.004
711.513	0.0002
711.6932	-0.0042
711.8735	0.0014
712.0537	0.0005
712.2339	0.0023
712.4141	-0.0005
712.5942	-0.0015
712.7744	0.002
712.9545	0.0016
713.1346	-0.0025
713.3147	0.0024
713.4947	-0.0035
713.6748	-0.0022
713.8548	-0.0036
714.0348	-0.0037
714.2148	-0.006
714.3948	-0.0038
714.5748	-0.0132
714.7547	-0.0067
714.9346	-0.005
715.1145	-0.0068
715.2944	-0.0023
715.4743	-0.0085
715.6541	-0.0074
715.834	-0.0032
716.0138	0.0006
716.1936	-0.0021
716.3733	-0.0042
716.5531	-0.0051
716.7328	-0.0073
716.9126	-0.0017
717.0923	-0.002
717.2719	-0.0108
717.4516	-0.0029
717.6312	-0.001
717.8109	-0.002
717.9905	-0.0101
718.1701	-0.0023
718.3496	-0.0029
718.5292	-0.0066
718.7087	-0.0013
718.8882	-0.0041
719.0677	-0.0018
719.2472	-0.0048
719.4267	-0.0087
719.6061	-0.0122
719.7856	-0.0031
719.965	-0.0114
720.1443	-0.0079
720.3237	-0.0073
720.5031	-0.0064
720.6824	-0.0047
720.8617	-0.0064
721.041	-0.0025
721.2203	-0.0049
721.3995	-0.0018
721.5788	-0.0066
721.758	-0.0069
721.9372	-0.0054
722.1164	-0.0067
722.2956	-0.0067
722.4747	-0.0063
722.6538	-0.0075
722.8329	-0.0034
723.012	-0.0056
723.1911	-0.0032
723.3702	-0.0026
723.5492	0.0013
723.7282	-0
723.9072	-0.0035
724.0862	-0.001
724.2652	-0.0036
724.4441	-0.0121
724.623	-0.001
724.8019	0.0017
724.9808	-0.0018
725.1597	0.0002
725.3385	0.0039
725.5174	0
725.6962	-0.0108
725.875	0.0024
726.0538	0.0025
726.2325	0.0005
726.4112	-0.0018
726.59	-0
726.7687	-0.0018
726.9474	-0.0052
727.126	-0.0037
727.3047	-0.0036
727.4833	-0.0025
727.6619	-0.0061
727.8405	-0.0039
728.0191	0.0019
728.1976	-0.0087
728.3762	-0.0107
728.5547	-0.0095
728.7332	-0.0068
728.9116	-0.0144
729.0901	-0.0118
729.2686	-0.0054
729.447	-0.0069
729.6254	-0.0062
729.8038	-0.0047
729.9821	-0.0023
730.1605	-0.0042
730.3388	-0.0034
730.5171	-0.0027
730.6954	-0.0003
730.8737	-0.0032
731.0519	-0.005
731.2302	-0.002
731.4084	0.0053
731.5866	0.0017
731.7648	-0.0039
731.9429	0.0017
732.1211	0.0027
732.2992	0.0051
732.4773	0
732.6554	-0.0084
732.8335	-0.0061
733.0115	-0.0092
733.1896	-0.0109
733.3676	-0.0014
733.5456	-0.0026
733.7235	0
733.9015	-0.0013
734.0794	-0.0031
734.2574	-0.0041
734.4353	-0.0042
734.6131	0.0001
734.791	-0.0012
734.9689	-0.0015
735.1467	-0.001
735.3245	0.003
735.5023	-0.0062
735.68	-0.008
735.8578	-0.0033
736.0355	0.0053
736.2132	0.0026
736.3909	-0.0067
736.5686	-0.0002
736.7463	-0.0007
736.9239	-0.0072
737.1015	-0.003
737.2791	-0.0139
737.4567	-0.0064
737.6343	0.0017
737.8118	-0.007
737.9894	-0.0019
738.1669	-0.0015
738.3444	-0.0032
738.5218	0.0023
738.6993	-0.001
738.8767	-0.0015
739.0541	-0.0069
739.2315	-0.0022
739.4089	-0.0042
739.5863	-0.0087
739.7636	-0.003
739.9409	0.0016
740.1182	0.0006
740.2955	0.0029
740.4728	-0.0029
740.65	-0.001
740.8272	0.003
741.0044	-0.0023
741.1816	0.0057
741.3588	0.0094
741.5359	-0.0051
741.7131	-0.0017
741.8902	-0.0025
742.0673	-0.0004
742.2444	-0.0032
742.4214	-0.0018
742.5985	-0.0082
742.7755	-0.0067
742.9525	-0.0023
743.1295	-0.0019
743.3064	-0.006
743.4834	-0.0058
743.6603	-0.0054
743.8372	0.002
744.0141	-0.0028
744.191	-0.0029
744.3678	-0.0028
744.5446	0.0031
744.7215	-0.0063
744.8982	-0.0025
745.075	-0.0024
745.2518	0.0002
745.4285	0.0021
745.6052	0.0037
745.7819	-0.0036
745.9586	-0.0042
746.1353	-0.0017
746.3119	0.0007
746.4885	-0.0016
746.6651	-0.0012
746.8417	-0.0036
747.0183	-0.0006
747.1948	-0.0033
747.3714	-0.0059
747.5479	-0.0014
747.7244	0.0015
747.9008	0.0031
748.0773	0.009
748.2537	0.0042
748.4301	0.0024
748.6065	-0.0005
748.7829	-0.0021
748.9593	-0.0009
749.1356	-0.0057
749.3119	0.0061
749.4882	0.0026
749.6645	-0.0008
749.8408	0.0012
750.017	-0.0041
750.1933	-0.0006
750.3695	-0.0052
750.5457	-0.0031
750.7218	-0.0051
750.898	-0.0021
751.0741	-0.0136
751.2502	-0.0075
751.4263	-0.0024
751.6024	0.0033
751.7784	-0.0008
751.9545	-0.0031
752.1305	0.0039
752.3065	-0.0053
752.4825	0.0003
752.6584	0.0001
752.8344	-0.0052
753.0103	-0.0032
753.1862	0.0003
753.3621	-0.0031
753.5379	-0.0025
753.7138	-0.0006
753.8896	-0.0111
754.0654	-0.005
754.2412	-0.0089
754.417	-0.0097
754.5927	-0.0025
754.7685	-0.0121
754.9442	-0.009
755.1199	-0.0138
755.2956	-0.0065
755.4712	-0.0013
755.6469	-0.0134
755.8225	-0.0048
755.9981	-0.0027
756.1736	-0.0059
756.3492	-0.0106
756.5248	-0.0016
756.7003	-0.0075
756.8758	-0.0062
757.0513	-0.0095
757.2267	-0.0115
757.4022	-0.0096
757.5776	-0.0106
757.753	-0.0125
757.9284	-0.0023
758.1038	-0.007
758.2791	-0.0147
758.4545	-0.0124
758.6298	-0.0074
758.8051	-0.0091
758.9803	-0.0102
759.1556	-0.0079
759.3308	-0.0053
759.506	-0.0105
759.6812	-0.004
759.8564	-0.0109
760.0316	-0.0135
760.2067	-0.0083
760.3819	-0.0024
760.557	-0.0104
760.732	-0.0134
760.9071	-0.0144
761.0821	-0.0139
761.2572	-0.0148
761.4322	-0.0096
761.6072	-0.011
761.7821	-0.0107
761.9571	-0.0132
762.132	-0.0062
762.3069	-0.0005
762.4818	-0.0045
762.6567	-0.0093
762.8316	0.0002
763.0064	-0.0027
763.1812	0.001
763.356	0.0021
763.5308	-0.0046
763.7055	0.0046
763.8803	-0.001
764.055	-0.008
764.2297	0.0052
764.4044	-0.0011
764.579	-0.0001
764.7537	-0.0027
764.9283	-0.0066
765.1029	0.0082
765.2775	0.0065
765.4521	0.0072
765.6266	0.0063
765.8011	0.0039
765.9756	0.0061
766.1501	0.003
766.3246	-0.0041
766.4991	-0.0061
766.6735	-0.0084
766.8479	-0.0064
767.0223	0.0039
767.1967	-0.0048
767.371	-0.0056
767.5454	-0.0052
767.7197	-0.0051
767.894	-0.0008
768.0683	-0.0033
768.2425	-0.0073
768.4168	-0.0029
768.591	0.0057
768.7652	0.001
768.9394	0.0008
769.1135	-0.0061
769.2877	0.0009
769.4618	0.0042
769.6359	-0.003
769.81	0.0062
769.984	-0.0056
770.1581	0.0026
770.3321	0.0021
770.5061	-0.0044
770.6801	-0.0007
770.8541	-0.0003
771.028	0.0018
771.202	0.0065
771.3759	-0.0003
771.5498	-0.0007
771.7236	-0.0019
771.8975	0.0017
772.0713	0.005
772.2451	0.0094
772.4189	0.0011
772.5927	-0.01
772.7665	0.0041
772.9402	-0.0036
773.1139	0.0007
773.2876	-0.0065
773.4613	-0.0074
773.635	0.0032
773.8086	0.0052
773.9822	0.0011
774.1558	-0.0014
774.3294	0.0049
774.503	0.0033
774.6765	0.0019
774.8501	0.0025
775.0236	-0.0105
775.1971	-0.0045
775.3705	0.0002
775.544	-0.0051
775.7174	-0.0003
775.8908	-0.0058
776.0642	-0.0023
776.2376	-0.0056
776.4109	-0.0059
776.5843	0.0056
776.7576	0.0036
776.9309	0.0012
777.1041	-0.002
777.2774	0.0042
777.4506	0.0031
777.6238	0.0075
777.797	0.001
777.9702	-0.0068
778.1434	0.0046
778.3165	-0.0024
778.4896	-0.011
778.6627	-0.0094
778.8358	-0.0042
779.0089	-0.0043
779.1819	-0.0053
779.3549	-0.0005
779.5279	0.0013
779.7009	-0.0028
779.8739	0.0074
780.0468	-0.0066
780.2197	-0.0088
780.3926	-0.002
780.5655	-0.0026
780.7384	-0.0084
780.9112	-0.0033
781.0841	-0.0068
781.2569	-0.0001
781.4297	-0.0116
781.6024	-0.0056
781.7752	-0.0018
781.9479	-0.0102
782.1206	-0.0007
782.2933	-0.0036
782.466	0.0002
782.6386	0.0031
782.8113	-0.0167
782.9839	-0.0061
783.1565	-0.0085
783.329	-0.0036
783.5016	-0
783.6741	-0.0109
783.8466	-0.0087
784.0191	-0.0001
784.1916	0.0027
784.3641	-0.0013
784.5365	0.0049
784.7089	0.0091
784.8813	0.0023
785.0537	0.0105
785.2261	-0.0021
785.3984	-0.0021
785.5707	-0.0003
785.743	0.0033
785.9153	0.0015
786.0876	0.0018
786.2598	0.0018
786.432	0.0033
786.6042	0.0032
786.7764	0.004
786.9486	0.001
787.1207	-0.0063
787.2928	0.0024
787.4649	-0.0066
787.637	-0.0088
787.8091	0.0022
787.9811	0.0058
788.1532	-0.0035
788.3252	-0.004
788.4972	-0.0019
788.6691	-0.0009
788.8411	0.0045
789.013	-0.0036
789.1849	-0.0016
789.3568	-0.01
789.5287	-0.0016
789.7005	-0.006
789.8723	-0.0119
790.0442	-0.0089
790.2159	0.0012
790.3877	-0.0082
790.5595	-0.0066
790.7312	-0.0007
790.9029	-0.0066
791.0746	-0.0017
791.2463	-0.0054
791.4179	-0.0117
791.5896	0.001
791.7612	-0.0002
791.9328	0.002
792.1044	-0.0108
792.2759	0.0037
792.4474	-0.0062
792.619	-0.0005
792.7905	-0.0013
792.9619	-0.0007
793.1334	-0.0049
793.3048	0.0031
793.4762	0.0022
793.6476	-0.0163
793.819	-0.0157
793.9904	-0.0187
794.1617	-0.0225
794.333	-0.0149
794.5043	-0.0053
794.6756	0.0038
794.8469	0.0053
795.0181	-0.0083
795.1893	-0.0061
795.3605	-0.0068
795.5317	-0.0017
795.7029	-0.0108
795.874	-0.0102
796.0452	-0.006
796.2163	-0.0116
796.3873	-0.0107
796.5584	-0.0159
796.7294	-0.0139
796.9005	-0.0067
797.0715	-0.0137
797.2425	-0.0063
797.4134	-0.0125
797.5844	-0.0165
797.7553	-0.0146
797.9262	-0.007
798.0971	-0.0176
798.2679	-0.0132
798.4388	-0.0089
798.6096	-0.0094
798.7804	-0.0082
798.9512	-0.0156
799.122	-0.0064
799.2927	-0.014
799.4635	-0.0011
799.6342	-0.008
799.8049	-0.0125
799.9755	-0.0052
800.1462	-0.0181
800.3168	-0.0043
800.4874	-0.0168
800.658	-0.0128
800.8286	-0.012
800.9991	-0.0122
801.1696	-0.0184
801.3402	-0.0194
801.5106	-0.0164
801.6811	-0.0202
801.8516	-0.0097
802.022	-0.0177
802.1924	-0.0262
802.3628	-0.0128
802.5332	-0.0078
802.7035	-0.0175
802.8739	-0.0166
803.0442	-0.0147
803.2145	-0.0118
803.3847	-0.0214
803.555	-0.0086
803.7252	-0.0112
803.8954	-0.0166
804.0656	-0.0045
804.2358	-0.011
804.4059	-0.0214
804.5761	-0.0046
804.7462	-0.0132
804.9163	-0.013
805.0864	-0.0088
805.2564	-0.0053
805.4264	-0.0111
805.5965	-0.0125
805.7665	-0.0009
805.9364	-0.011
806.1064	-0.0011
806.2763	-0.0099
806.4462	-0.0044
806.6161	-0.0091
806.786	-0.0052
806.9559	-0.0063
807.1257	-0.0192
807.2955	-0.0053
807.4653	-0.015
807.6351	-0.0122
807.8048	0.0062
807.9746	-0.0056
808.1443	0.0025
808.314	0.0027
808.4837	-0.0013
808.6533	0.0022
808.8229	0.0022
808.9926	0.0097
809.1622	0.008
809.3317	0.0047
809.5013	0.0039
809.6708	0.0056
809.8403	0.0035
810.0098	0.0111
810.1793	-0.0065
810.3488	0.0125
810.5182	-0.0166
810.6876	-0.0037
810.857	-0.003
811.0264	-0.0113
811.1958	0.0045
811.3651	-0.0087
811.5344	0.0041
811.7037	-0.0089
811.873	-0.0087
812.0422	-0.0095
812.2115	0.0033
812.3807	0
812.5499	-0.0085
812.7191	-0.0113
812.8882	0.0028
813.0574	-0.0052
813.2265	0.0037
813.3956	-0.0022
813.5646	-0.0114
813.7337	0.0073
813.9027	-0.0006
814.0718	-0.0049
814.2407	0.0065
814.4097	0.0015
814.5787	-0.0002
814.7476	-0.0156
814.9165	0.0009
815.0854	-0.0069
815.2543	0.007
815.4232	-0.004
815.592	0.005
815.7608	0.0065
815.9296	0.0012
816.0984	0.0068
816.2671	-0.0015
816.4359	0.0052
816.6046	0.0069
816.7733	0.0016
816.942	-0.0041
817.1106	-0.0067
817.2793	-0.0007
817.4479	-0.0193
817.6165	-0.0042
817.785	-0.0022
817.9536	0.0009
818.1221	-0.0088
818.2906	-0.0056
818.4591	-0.0207
818.6276	0.0064
818.7961	-0.0033
818.9645	-0.0211
819.1329	-0.0052
819.3013	-0.0088
819.4697	0.0065
819.638	-0.0022
819.8064	0.0035
819.9747	0.012
820.143	-0.0106
820.3113	-0.0023
820.4795	0.0155
820.6477	0.0002
820.816	-0.0124
820.9842	-0.0115
821.1523	-0.0161
821.3205	0.0059
821.4886	-0.0059
821.6567	-0.0134
821.8248	-0.0071
821.9929	0.0026
822.1609	-0.0102
822.329	-0.0125
822.497	-0.0119
822.665	-0.0125
822.833	-0.0245
823.0009	0.004
823.1688	-0.0079
823.3367	-0.0108
823.5046	-0.0022
823.6725	-0.0204
823.8404	-0.0052
824.0082	-0.0114
824.176	-0.001
824.3438	-0.0068
824.5116	0.0067
824.6793	-0.0001
824.847	-0.0107
825.0147	-0.0113
825.1824	-0.0176
825.3501	-0.0049
825.5177	-0.0204
825.6854	0.0011
825.853	0.0038
826.0206	0.0032
826.1881	0
826.3557	0.0008
826.5232	0.0122
826.6907	0.0016
826.8582	-0.0127
827.0257	-0.007
827.1931	0.0169
827.3605	0.0067
827.528	0.0028
827.6953	-0.0076
827.8627	-0.0087
828.03	-0.0167
828.1974	0.0113
828.3647	0.0023
828.532	-0.0046
828.6992	-0.0065
828.8665	-0.0196
829.0337	-0.0138
829.2009	-0.0037
829.3681	-0.0256
829.5352	-0.0057
829.7024	-0.001
829.8695	-0.0228
830.0366	-0.0359
830.2037	-0.0026
830.3707	-0.0232
830.5378	-0.0151
830.7048	-0.0279
830.8718	-0.0073
831.0388	-0.0048
831.2057	-0.033
831.3727	-0.0306
831.5396	0.0016
831.7065	0.0069
831.8734	0.0037
832.0402	-0.0162
832.2071	0.0106
832.3739	0.0055
832.5407	-0.0063
832.7075	-0.0165
832.8742	0.0125
833.041	0.0042
833.2077	-0.0212
833.3744	0.0071
833.541	0.0079
833.7077	0.0042
833.8743	0.0105
834.0409	0.0143
834.2075	-0.0218
834.3741	0.0084
834.5407	-0.021
834.7072	-0.0133
834.8737	-0.0147
835.0402	-0.0251
835.2067	-0.0079
835.3731	-0.0192
835.5395	-0.0161
835.706	-0.0344
835.8723	-0.017
836.0387	-0.0244
836.2051	-0.01
836.3714	0.0109
836.5377	-0.0065
836.704	-0.0063
836.8703	-0.028
837.0365	0.0137
837.2027	-0.0291
837.3689	-0.0176
837.5351	0.0003
837.7013	0.008
837.8674	0.0278
838.0335	-0.0077
838.1997	0.0196
838.3657	0.0026
838.5318	0.0054
838.6978	-0.0131
838.8639	0.0014
839.0299	-0.0232
839.1958	0.0242
839.3618	0.0058
839.5277	-0.0132
839.6937	-0.0202
839.8596	-0.0028
840.0254	-0.0017
840.1913	-0.0119
840.3571	0.013
840.523	-0.0093
840.6888	-0.0119
840.8545	0.0016
841.0203	0.0078
841.186	0.0117
841.3517	-0.0136
841.5174	-0.0204
841.6831	0.0238
841.8488	-0.0052
842.0144	0.0185
842.18	0.0066
842.3456	-0.0016
842.5112	0.0091
842.6767	-0.0115
842.8422	0.026
843.0077	0.0024
843.1732	0.0048
843.3387	-0.0132
843.5042	-0.0026
843.6696	0.0207
843.835	0.0004
844.0004	0.0106
844.1657	-0.0023
844.3311	0.0253
844.4964	-0.0282
844.6617	0.0092
844.827	0.0236
844.9923	0.0119
845.1575	0.0183
845.3227	-0.0391
845.4879	-0.0129
845.6531	-0.0031
845.8183	-0.0505
845.9834	-0.0179
846.1485	-0.0046
846.3136	-0.0532
846.4787	0.0026
846.6438	-0.0081
846.8088	0.0173
846.9738	-0.0049
847.1388	-0.0221
847.3038	0.0125
847.4687	0.0052
847.6337	0.0086
847.7986	0.0224
847.9635	-0.0371
848.1284	-0.0154
848.2932	0.0077
848.458	-0.0023
848.6228	0.0365
848.7876	-0.0486
848.9524	0.0198
849.1172	-0.023
849.2819	0.0124
849.4466	-0.0183
849.6113	-0.0068
849.7759	-0.0147
849.9406	-0.0004
850.1052	0.0241
850.2698	-0.0102
850.4344	-0.0047
850.599	-0.001
850.7635	0.0115
850.928	-0.0166
851.0925	0.0342
851.257	0.0093
851.4215	0.0043
851.5859	0.0125
851.7503	-0.0425
851.9147	-0.0307
852.0791	-0.0064
852.2434	-0.0124
852.4078	-0.0162
852.5721	-0.0091
852.7364	-0.0284
852.9007	0.0256
853.0649	-0.0219
853.2291	-0.029
853.3934	-0.0192
853.5575	-0.0266
853.7217	-0.0094
853.8859	0.0428
854.05	0.008
854.2141	-0.0523
854.3782	0.0183
854.5423	-0.0098
854.7063	0.0216
854.8703	-0.0342
855.0343	-0.0015
855.1983	-0.0342
855.3623	0.0118
855.5262	0.0394
855.6901	0.0029
855.854	-0.0118
856.0179	0.0066
856.1818	-0.0188
856.3456	-0.04
856.5094	-0.0231
856.6732	-0.056
856.837	0.0134
857.0008	-0.0487
857.1645	-0.0679
857.3282	-0.0367
857.4919	-0.0664
857.6556	0.0413
857.8192	-0.0041
857.9828	0.0296
858.1465	0.0174
858.31	-0.0129
858.4736	-0.0741
858.6372	0.0309
858.8007	0.0118
858.9642	-0.0337
859.1277	0.0686
859.2911	-0.0554
859.4546	-0.0221
859.618	-0.0609
859.7814	-0.0314
859.9448	-0.0715
860.1081	-0.0933
860.2715	0.1019
860.4348	-0.0335
860.5981	0.0865
860.7614	-0.1277
860.9246	-0.0398
861.0879	0.0071
861.2511	0.0291
861.4143	-0.1538
861.5774	-0.0179
861.7406	-0.0386
861.9037	-0.1171
862.0668	0.0061
862.2299	0.04
862.393	-0.0916
862.556	0.0716
862.7191	-0.0246
862.8821	-0.0344
863.0451	0.0112
863.208	-0.1066
863.371	0.1137
863.5339	-0.0724
863.6968	-0.0285
863.8597	0.0782
864.0225	-0.0869
864.1854	-0.0179
864.3482	-0.0857
864.511	-0.1098
864.6737	-0.0245
864.8365	-0.0127
864.9992	-0.1734
865.1619	-0.0081
865.3246	-0.1744
865.4873	-0.039
865.65	0.0253
865.8126	-0.0056
865.9752	-0.0921
866.1378	-0.1978
866.3004	-0.1018
866.4629	-0.2953
866.6254	-0.0179
866.7879	-0.2179
866.9504	-0.1127
867.1129	-0.0658
867.2753	0.0785
867.4377	-0.2847
867.6001	0.0362
867.7625	0.0659
867.9249	0.0469
868.0872	-0.0842
868.2495	-0.2115
868.4118	0.0157
868.5741	-0.1841
868.7363	-0.0094
868.8986	-0.1309
869.0608	-0.2538
869.223	-0.2294
869.3851	-0.1898
869.5473	-0.3105
869.7094	-0.2007
869.8715	-0.08
870.0336	-0.0584
870.1957	0.0198
870.3577	-0.046
870.5197	-0.4236
870.6817	-0.1287
870.8437	-0.1626
871.0057	-0.275
871.1676	-0.2352
871.3295	-0.0975
871.4914	0.0732
871.6533	-0.1279
871.8151	0.2086
871.977	-0.137
872.1388	-0.2252
872.3006	-0.0475
872.4623	-0.1186
872.6241	-0.1928
872.7858	-0.0151
872.9475	-0.2889
873.1092	-0.312
873.2709	-0.2189
873.4325	0.0254
873.5941	-0.0153
873.7557	0.04
873.9173	-0.2665
874.0789	-0.409
874.2404	-0.1331
874.4019	-0.3402
874.5634	-0.0659
874.7249	-0.2252
874.8863	-0.4038
875.0478	-0.1018
875.2092	-0.3304
875.3706	-0.2652
875.5319	-0.0807
875.6933	0.0959
875.8546	-0.3053
876.0159	-0.2795
876.1772	-0.2691
876.3385	-0.5319
876.4997	-0.193
876.6609	0.0304
876.8221	-0.2146
876.9833	-0.7505
877.1445	-0.0119
877.3056	0.0533
877.4667	-0.4905
877.6278	0.1723
877.7889	-0.1924
877.9499	-0.217
878.111	1.2348
878.272	-0.09
878.433	-0.0401
878.5939	0.2338
878.7549	-0.2101
878.9158	-0.212
879.0767	0.0611
879.2376	0.1217
879.3984	-0.0494
879.5593	0.2647
879.7201	0.2232
879.8809	-0.0388
880.0417	-0.0057
880.2024	-0.0396
880.3632	-0.399
880.5239	-0
880.6846	-0.5043
880.8452	0.2004
881.0059	-0.4547
881.1665	-0
881.3271	-0.3808
881.4877	-0.2431
881.6483	-0
881.8088	-0.1322
881.9693	0.0654
882.1298	0.0654
882.2903	0.0654
