Data from MonoPyChalIsomerACN10uM450nmA_Absorbance_13-11-27-291.txt Node
Date: Tue Jul 09 13:11:27 BST 2024
User: LASERRRRR
Spectrometer: FLMT03099
Trigger mode: 0
Integration Time (sec): 2.000000E-1
Scans to average: 1
Electric dark correction enabled: true
Nonlinearity correction enabled: false
Boxcar width: 0
XAxis mode: Wavelengths
Number of Pixels in Spectrum: 3648
>>>>>Begin Spectral Data<<<<<
179.3399	-0.0713
179.5586	-0.0713
179.7771	-0.0713
179.9957	-0.3035
180.2143	0.5569
180.4329	-0.0155
180.6514	0.1875
180.8699	-0
181.0885	-0
181.307	-0
181.5255	0.1488
181.744	-0
181.9625	-0
182.181	-0
182.3994	0.0906
182.6179	-0.3217
182.8363	-0.7421
183.0547	-0.013
183.2732	0.1599
183.4916	0.07
183.71	0.0853
183.9284	-0.0185
184.1467	0.0031
184.3651	0.0997
184.5835	0.1968
184.8018	0.1203
185.0201	0.0911
185.2385	0.0925
185.4568	-0.0198
185.6751	0.0842
185.8934	0.0303
186.1117	0.0236
186.3299	-0.0145
186.5482	-0.0156
186.7664	-0.0008
186.9847	0.0683
187.2029	0.0548
187.4211	0.1703
187.6393	-0.0617
187.8575	0.0639
188.0757	-0.0036
188.2939	0.0566
188.512	0.2146
188.7302	0.0058
188.9483	0.0948
189.1665	0.1994
189.3846	0.2089
189.6027	0.2355
189.8208	0.0925
190.0389	0.1803
190.257	0.2867
190.475	0.2773
190.6931	0.2075
190.9111	0.2415
191.1292	0.3147
191.3472	0.3154
191.5652	0.2953
191.7832	0.3592
192.0012	0.5264
192.2192	0.3887
192.4371	0.5392
192.6551	0.4358
192.873	0.3897
193.091	0.4447
193.3089	0.6265
193.5268	0.5796
193.7447	0.4509
193.9626	0.5687
194.1805	0.5006
194.3984	0.5663
194.6162	0.5945
194.8341	0.6151
195.0519	0.5483
195.2697	0.5404
195.4875	0.6307
195.7054	0.5219
195.9231	0.6726
196.1409	0.7636
196.3587	0.6197
196.5765	0.7425
196.7942	0.6877
197.012	0.6608
197.2297	0.7991
197.4474	0.7776
197.6651	0.7079
197.8828	0.7161
198.1005	0.7992
198.3182	0.6839
198.5358	0.7551
198.7535	0.7581
198.9711	0.8616
199.1888	0.8141
199.4064	0.7656
199.624	0.8329
199.8416	0.7517
200.0592	0.7975
200.2767	0.8273
200.4943	0.8692
200.7119	0.8804
200.9294	0.912
201.1469	0.8833
201.3645	0.8965
201.582	0.9221
201.7995	0.7524
202.017	0.9226
202.2344	0.786
202.4519	1.0037
202.6694	0.8924
202.8868	0.9497
203.1042	1.0706
203.3217	0.8928
203.5391	0.9703
203.7565	1.0074
203.9739	0.8305
204.1913	0.8293
204.4086	0.9033
204.626	0.9319
204.8433	0.9789
205.0607	0.8989
205.278	0.9473
205.4953	1.0809
205.7126	0.9248
205.9299	1.0014
206.1472	1.0195
206.3644	0.8928
206.5817	1.1208
206.7989	1.1225
207.0162	1.1246
207.2334	0.9213
207.4506	0.9723
207.6678	1.0211
207.885	1.1242
208.1022	1.0499
208.3194	1.1226
208.5365	1.0609
208.7537	0.9767
208.9708	1.0915
209.1879	1.1269
209.405	1.0807
209.6222	1.0995
209.8392	1.124
210.0563	1.0264
210.2734	1.1014
210.4905	1.089
210.7075	1.1256
210.9245	1.0083
211.1416	1.0904
211.3586	1.1242
211.5756	1.0658
211.7926	1.0238
212.0096	1.0497
212.2265	1.0263
212.4435	1.0844
212.6604	1.1343
212.8774	0.9698
213.0943	0.995
213.3112	0.9909
213.5281	1.1108
213.745	1.0139
213.9619	1.0486
214.1788	0.9242
214.3956	0.9569
214.6125	0.9205
214.8293	0.8649
215.0461	0.8914
215.2629	0.8949
215.4798	0.8844
215.6965	0.8141
215.9133	0.8575
216.1301	0.8184
216.3469	0.8087
216.5636	0.7682
216.7803	0.7491
216.9971	0.7557
217.2138	0.7216
217.4305	0.7283
217.6472	0.6976
217.8639	0.65
218.0805	0.6015
218.2972	0.5725
218.5138	0.5416
218.7305	0.5032
218.9471	0.4701
219.1637	0.4529
219.3803	0.4239
219.5969	0.4151
219.8135	0.3985
220.0301	0.3521
220.2466	0.3636
220.4632	0.3385
220.6797	0.3301
220.8962	0.3159
221.1127	0.3084
221.3292	0.3013
221.5457	0.2877
221.7622	0.2955
221.9787	0.2671
222.1951	0.2878
222.4116	0.2668
222.628	0.2817
222.8444	0.2755
223.0608	0.2724
223.2772	0.2651
223.4936	0.2724
223.71	0.272
223.9264	0.2706
224.1427	0.2701
224.3591	0.2732
224.5754	0.2818
224.7917	0.2846
225.008	0.2801
225.2243	0.2781
225.4406	0.2798
225.6569	0.2768
225.8732	0.2985
226.0894	0.2832
226.3057	0.2887
226.5219	0.2905
226.7381	0.2955
226.9543	0.2831
227.1705	0.2814
227.3867	0.2926
227.6029	0.2954
227.8191	0.2947
228.0352	0.3009
228.2513	0.3147
228.4675	0.2986
228.6836	0.327
228.8997	0.3072
229.1158	0.3242
229.3319	0.3231
229.548	0.3234
229.764	0.3213
229.9801	0.3317
230.1961	0.3324
230.4121	0.326
230.6282	0.3396
230.8442	0.3422
231.0602	0.3412
231.2761	0.3341
231.4921	0.3387
231.7081	0.3553
231.924	0.356
232.14	0.3533
232.3559	0.3772
232.5718	0.3637
232.7877	0.3606
233.0036	0.3599
233.2195	0.3583
233.4353	0.3758
233.6512	0.3673
233.867	0.3782
234.0829	0.3736
234.2987	0.3696
234.5145	0.3749
234.7303	0.397
234.9461	0.3871
235.1619	0.3895
235.3776	0.3799
235.5934	0.3853
235.8091	0.3898
236.0249	0.3861
236.2406	0.3896
236.4563	0.3942
236.672	0.3974
236.8877	0.4028
237.1034	0.4015
237.319	0.4082
237.5347	0.3932
237.7503	0.4114
237.966	0.4154
238.1816	0.4024
238.3972	0.4103
238.6128	0.4173
238.8284	0.4176
239.0439	0.4146
239.2595	0.4267
239.475	0.4078
239.6906	0.4154
239.9061	0.4204
240.1216	0.4282
240.3371	0.4264
240.5526	0.4197
240.7681	0.4124
240.9836	0.4116
241.199	0.4105
241.4145	0.4059
241.6299	0.4108
241.8453	0.4088
242.0607	0.3919
242.2761	0.3919
242.4915	0.386
242.7069	0.3882
242.9223	0.3737
243.1376	0.3741
243.353	0.355
243.5683	0.3659
243.7836	0.3578
243.9989	0.3396
244.2142	0.3336
244.4295	0.336
244.6448	0.3305
244.86	0.3257
245.0753	0.3117
245.2905	0.31
245.5057	0.3022
245.721	0.2964
245.9362	0.2858
246.1514	0.2919
246.3665	0.2924
246.5817	0.266
246.7969	0.2885
247.012	0.27
247.2271	0.2553
247.4423	0.2655
247.6574	0.2649
247.8725	0.2592
248.0876	0.2619
248.3026	0.2521
248.5177	0.2509
248.7328	0.2418
248.9478	0.2426
249.1628	0.2502
249.3779	0.2297
249.5929	0.2297
249.8079	0.2334
250.0228	0.2262
250.2378	0.2405
250.4528	0.2296
250.6677	0.2291
250.8827	0.2142
251.0976	0.2276
251.3125	0.2274
251.5274	0.217
251.7423	0.2214
251.9572	0.2119
252.172	0.2085
252.3869	0.2093
252.6017	0.2103
252.8166	0.2072
253.0314	0.2076
253.2462	0.2126
253.461	0.2094
253.6758	0.1995
253.8906	0.2014
254.1053	0.2077
254.3201	0.2023
254.5348	0.2046
254.7496	0.202
254.9643	0.2018
255.179	0.2007
255.3937	0.2037
255.6083	0.2014
255.823	0.2027
256.0377	0.1894
256.2523	0.1964
256.467	0.1967
256.6816	0.1918
256.8962	0.1951
257.1108	0.1922
257.3254	0.1986
257.54	0.1934
257.7545	0.1949
257.9691	0.1953
258.1836	0.1998
258.3981	0.2015
258.6127	0.1933
258.8272	0.1934
259.0417	0.2029
259.2561	0.193
259.4706	0.1913
259.6851	0.195
259.8995	0.1882
260.114	0.1837
260.3284	0.2037
260.5428	0.1979
260.7572	0.1974
260.9716	0.1962
261.186	0.2018
261.4003	0.2016
261.6147	0.1988
261.829	0.2037
262.0433	0.2029
262.2577	0.2038
262.472	0.194
262.6863	0.1875
262.9005	0.2001
263.1148	0.2014
263.3291	0.1923
263.5433	0.1913
263.7576	0.1854
263.9718	0.1893
264.186	0.19
264.4002	0.1842
264.6144	0.1866
264.8286	0.1789
265.0427	0.181
265.2569	0.1834
265.471	0.1776
265.6851	0.1822
265.8993	0.1816
266.1134	0.1821
266.3275	0.1851
266.5415	0.1669
266.7556	0.1818
266.9697	0.1794
267.1837	0.1829
267.3978	0.1919
267.6118	0.1847
267.8258	0.1892
268.0398	0.1956
268.2538	0.1907
268.4677	0.1906
268.6817	0.1984
268.8957	0.1918
269.1096	0.1853
269.3235	0.1936
269.5374	0.1833
269.7514	0.1722
269.9652	0.1693
270.1791	0.1627
270.393	0.1579
270.6068	0.1611
270.8207	0.1479
271.0345	0.166
271.2483	0.1598
271.4622	0.1603
271.676	0.152
271.8897	0.1504
272.1035	0.1389
272.3173	0.1543
272.531	0.1517
272.7448	0.1447
272.9585	0.1421
273.1722	0.1443
273.3859	0.1496
273.5996	0.1437
273.8133	0.1424
274.0269	0.1467
274.2406	0.1432
274.4542	0.1385
274.6679	0.1441
274.8815	0.1443
275.0951	0.1518
275.3087	0.1425
275.5223	0.1439
275.7358	0.1484
275.9494	0.1509
276.1629	0.1466
276.3765	0.1417
276.59	0.1494
276.8035	0.1445
277.017	0.145
277.2305	0.1506
277.444	0.1493
277.6574	0.1463
277.8709	0.1543
278.0843	0.1515
278.2978	0.1491
278.5112	0.1546
278.7246	0.1499
278.938	0.1543
279.1513	0.1598
279.3647	0.1536
279.5781	0.1484
279.7914	0.1575
280.0047	0.1489
280.2181	0.1573
280.4314	0.1554
280.6447	0.1557
280.8579	0.1522
281.0712	0.1589
281.2845	0.1572
281.4977	0.1599
281.711	0.148
281.9242	0.157
282.1374	0.1531
282.3506	0.1523
282.5638	0.1543
282.7769	0.161
282.9901	0.1643
283.2033	0.1603
283.4164	0.1644
283.6295	0.1657
283.8426	0.1629
284.0557	0.154
284.2688	0.1553
284.4819	0.1597
284.695	0.1598
284.908	0.1627
285.1211	0.169
285.3341	0.1543
285.5471	0.1659
285.7601	0.1494
285.9731	0.1511
286.1861	0.1606
286.3991	0.1563
286.612	0.1629
286.825	0.1676
287.0379	0.1636
287.2508	0.1562
287.4637	0.1601
287.6766	0.1577
287.8895	0.1601
288.1024	0.1594
288.3152	0.1602
288.5281	0.1613
288.7409	0.1546
288.9538	0.1568
289.1666	0.1564
289.3794	0.159
289.5922	0.1668
289.8049	0.1555
290.0177	0.1618
290.2304	0.1582
290.4432	0.1544
290.6559	0.1626
290.8686	0.1551
291.0813	0.1635
291.294	0.1614
291.5067	0.1621
291.7194	0.1518
291.932	0.1542
292.1447	0.1617
292.3573	0.1549
292.5699	0.1661
292.7825	0.1616
292.9951	0.1613
293.2077	0.1538
293.4203	0.1538
293.6328	0.1637
293.8454	0.1558
294.0579	0.1517
294.2704	0.1584
294.4829	0.1641
294.6954	0.1602
294.9079	0.1626
295.1204	0.1599
295.3328	0.1612
295.5453	0.1577
295.7577	0.1518
295.9701	0.1539
296.1825	0.1623
296.3949	0.1469
296.6073	0.1639
296.8197	0.161
297.0321	0.1553
297.2444	0.1515
297.4567	0.1549
297.6691	0.1571
297.8814	0.1564
298.0937	0.1527
298.306	0.1595
298.5182	0.146
298.7305	0.1571
298.9428	0.1508
299.155	0.1517
299.3672	0.1569
299.5794	0.1584
299.7916	0.1563
300.0038	0.1533
300.216	0.1526
300.4282	0.1545
300.6403	0.1534
300.8525	0.1522
301.0646	0.151
301.2767	0.1517
301.4888	0.1524
301.7009	0.1566
301.913	0.1643
302.125	0.1506
302.3371	0.1606
302.5491	0.1543
302.7612	0.1609
302.9732	0.1619
303.1852	0.1454
303.3972	0.1538
303.6092	0.1472
303.8211	0.1524
304.0331	0.147
304.245	0.1538
304.457	0.1554
304.6689	0.1588
304.8808	0.151
305.0927	0.1528
305.3046	0.1468
305.5164	0.1473
305.7283	0.1575
305.9401	0.1484
306.152	0.1437
306.3638	0.1598
306.5756	0.1406
306.7874	0.14
306.9992	0.14
307.2109	0.1307
307.4227	0.1434
307.6344	0.135
307.8462	0.131
308.0579	0.1274
308.2696	0.124
308.4813	0.131
308.693	0.125
308.9046	0.1186
309.1163	0.1141
309.328	0.1202
309.5396	0.12
309.7512	0.1235
309.9628	0.1164
310.1744	0.1195
310.386	0.1104
310.5976	0.1105
310.8091	0.1177
311.0207	0.1174
311.2322	0.1135
311.4437	0.1189
311.6552	0.1174
311.8667	0.1047
312.0782	0.116
312.2897	0.0987
312.5012	0.1133
312.7126	0.1009
312.924	0.1036
313.1355	0.1026
313.3469	0.1049
313.5583	0.1065
313.7696	0.1075
313.981	0.1024
314.1924	0.0963
314.4037	0.101
314.6151	0.098
314.8264	0.0965
315.0377	0.0987
315.249	0.1012
315.4603	0.1048
315.6716	0.1026
315.8828	0.1004
316.0941	0.1018
316.3053	0.0944
316.5165	0.0884
316.7277	0.0979
316.9389	0.1026
317.1501	0.0955
317.3613	0.0948
317.5724	0.1024
317.7836	0.0955
317.9947	0.1029
318.2058	0.092
318.417	0.0933
318.6281	0.1032
318.8391	0.094
319.0502	0.0999
319.2613	0.0979
319.4723	0.0997
319.6834	0.0936
319.8944	0.1002
320.1054	0.0973
320.3164	0.1023
320.5274	0.1001
320.7383	0.0944
320.9493	0.1004
321.1602	0.099
321.3712	0.1042
321.5821	0.1034
321.793	0.0901
322.0039	0.103
322.2148	0.1004
322.4257	0.097
322.6365	0.0975
322.8474	0.0982
323.0582	0.1051
323.269	0.1039
323.4798	0.1024
323.6906	0.0978
323.9014	0.0983
324.1122	0.0957
324.3229	0.1031
324.5337	0.101
324.7444	0.1027
324.9551	0.0996
325.1658	0.1044
325.3765	0.1017
325.5872	0.1013
325.7979	0.1121
326.0085	0.1048
326.2192	0.1057
326.4298	0.1122
326.6404	0.1043
326.851	0.0996
327.0616	0.0973
327.2722	0.1005
327.4828	0.1037
327.6933	0.1132
327.9039	0.1042
328.1144	0.1037
328.3249	0.11
328.5354	0.0996
328.7459	0.1035
328.9564	0.112
329.1669	0.1074
329.3773	0.1027
329.5878	0.1033
329.7982	0.108
330.0086	0.1099
330.219	0.1133
330.4294	0.1076
330.6398	0.1124
330.8502	0.1085
331.0605	0.1086
331.2708	0.1072
331.4812	0.103
331.6915	0.1054
331.9018	0.1016
332.1121	0.1089
332.3224	0.1002
332.5326	0.1058
332.7429	0.1016
332.9531	0.1069
333.1633	0.1129
333.3735	0.1084
333.5837	0.1088
333.7939	0.1087
334.0041	0.1069
334.2143	0.111
334.4244	0.1084
334.6346	0.1083
334.8447	0.1105
335.0548	0.1081
335.2649	0.0978
335.475	0.1002
335.685	0.1121
335.8951	0.1152
336.1051	0.1064
336.3152	0.1052
336.5252	0.1081
336.7352	0.1068
336.9452	0.1061
337.1552	0.1134
337.3652	0.1135
337.5751	0.112
337.7851	0.1046
337.995	0.1156
338.2049	0.114
338.4148	0.1112
338.6247	0.1126
338.8346	0.1088
339.0445	0.1109
339.2543	0.1163
339.4642	0.1124
339.674	0.1164
339.8838	0.1117
340.0936	0.1181
340.3034	0.1222
340.5132	0.1106
340.7229	0.1234
340.9327	0.1113
341.1424	0.1181
341.3522	0.117
341.5619	0.1283
341.7716	0.1271
341.9813	0.1179
342.1909	0.1271
342.4006	0.1106
342.6102	0.1172
342.8199	0.1278
343.0295	0.1179
343.2391	0.1276
343.4487	0.1232
343.6583	0.1207
343.8679	0.1245
344.0774	0.1256
344.287	0.1264
344.4965	0.1239
344.706	0.1313
344.9155	0.1319
345.125	0.1365
345.3345	0.1326
345.544	0.1198
345.7534	0.1235
345.9629	0.1307
346.1723	0.1347
346.3817	0.133
346.5911	0.1372
346.8005	0.1301
347.0099	0.1286
347.2193	0.136
347.4286	0.1407
347.638	0.1331
347.8473	0.1294
348.0566	0.1346
348.2659	0.1263
348.4752	0.1368
348.6845	0.1347
348.8937	0.1456
349.103	0.1319
349.3122	0.1436
349.5214	0.1354
349.7306	0.1385
349.9398	0.1297
350.149	0.1351
350.3582	0.1269
350.5674	0.1463
350.7765	0.1351
350.9856	0.1345
351.1948	0.1376
351.4039	0.1398
351.613	0.131
351.822	0.149
352.0311	0.1423
352.2402	0.1493
352.4492	0.1425
352.6582	0.1405
352.8672	0.1379
353.0762	0.1479
353.2852	0.1601
353.4942	0.1487
353.7032	0.1482
353.9121	0.1494
354.1211	0.1474
354.33	0.1442
354.5389	0.1491
354.7478	0.1506
354.9567	0.147
355.1655	0.1541
355.3744	0.1491
355.5833	0.1541
355.7921	0.1493
356.0009	0.1517
356.2097	0.1568
356.4185	0.152
356.6273	0.1633
356.8361	0.1432
357.0448	0.1557
357.2536	0.1492
357.4623	0.1574
357.671	0.1606
357.8797	0.1629
358.0884	0.1656
358.2971	0.1632
358.5057	0.1727
358.7144	0.1615
358.923	0.1745
359.1316	0.1637
359.3402	0.1867
359.5488	0.1658
359.7574	0.1741
359.966	0.1742
360.1746	0.1691
360.3831	0.1782
360.5916	0.1819
360.8002	0.185
361.0087	0.1746
361.2172	0.178
361.4256	0.1787
361.6341	0.1791
361.8426	0.1845
362.051	0.1675
362.2594	0.1741
362.4678	0.1753
362.6762	0.1835
362.8846	0.1824
363.093	0.1798
363.3014	0.1828
363.5097	0.1815
363.718	0.1892
363.9264	0.1827
364.1347	0.1973
364.343	0.175
364.5513	0.186
364.7595	0.1847
364.9678	0.1842
365.176	0.1928
365.3842	0.1891
365.5925	0.1861
365.8007	0.197
366.0089	0.1976
366.217	0.1848
366.4252	0.1905
366.6333	0.1897
366.8415	0.1962
367.0496	0.2005
367.2577	0.2134
367.4658	0.2004
367.6739	0.2023
367.882	0.1991
368.09	0.2034
368.2981	0.215
368.5061	0.205
368.7141	0.199
368.9221	0.1955
369.1301	0.2142
369.3381	0.2104
369.5461	0.1993
369.754	0.2107
369.962	0.2021
370.1699	0.2115
370.3778	0.2094
370.5857	0.2002
370.7936	0.2025
371.0015	0.209
371.2093	0.2114
371.4172	0.21
371.625	0.2098
371.8328	0.2245
372.0406	0.2209
372.2484	0.2173
372.4562	0.2153
372.664	0.2238
372.8717	0.2108
373.0795	0.2128
373.2872	0.2181
373.4949	0.2145
373.7026	0.2274
373.9103	0.2154
374.118	0.2205
374.3256	0.2131
374.5333	0.2173
374.7409	0.2193
374.9485	0.209
375.1561	0.2203
375.3637	0.223
375.5713	0.2307
375.7789	0.2211
375.9864	0.2197
376.194	0.2161
376.4015	0.2331
376.609	0.227
376.8165	0.2185
377.024	0.2166
377.2315	0.2298
377.4389	0.2156
377.6464	0.2292
377.8538	0.2212
378.0612	0.221
378.2686	0.2184
378.476	0.2212
378.6834	0.2299
378.8908	0.2303
379.0981	0.2364
379.3055	0.2337
379.5128	0.2244
379.7201	0.2252
379.9274	0.2359
380.1347	0.2391
380.342	0.2333
380.5492	0.2321
380.7565	0.2307
380.9637	0.2516
381.1709	0.2349
381.3781	0.2364
381.5853	0.2539
381.7925	0.2433
381.9997	0.2423
382.2068	0.2373
382.4139	0.2358
382.6211	0.24
382.8282	0.2306
383.0353	0.2296
383.2424	0.2335
383.4494	0.2486
383.6565	0.2439
383.8635	0.2492
384.0706	0.2408
384.2776	0.2491
384.4846	0.2409
384.6916	0.2399
384.8986	0.2453
385.1055	0.245
385.3125	0.2555
385.5194	0.2379
385.7263	0.2378
385.9333	0.2429
386.1402	0.2454
386.347	0.2567
386.5539	0.2406
386.7608	0.2361
386.9676	0.2426
387.1744	0.2491
387.3813	0.2361
387.5881	0.2325
387.7948	0.2357
388.0016	0.2462
388.2084	0.2494
388.4151	0.2415
388.6219	0.2464
388.8286	0.252
389.0353	0.2253
389.242	0.2347
389.4487	0.2282
389.6553	0.2299
389.862	0.225
390.0686	0.2318
390.2753	0.2411
390.4819	0.2232
390.6885	0.2403
390.8951	0.2267
391.1016	0.2309
391.3082	0.2318
391.5147	0.226
391.7213	0.2126
391.9278	0.2215
392.1343	0.2255
392.3408	0.2138
392.5473	0.2208
392.7537	0.2234
392.9602	0.2157
393.1666	0.2181
393.373	0.221
393.5794	0.233
393.7858	0.2139
393.9922	0.2128
394.1986	0.2132
394.4049	0.2263
394.6113	0.2125
394.8176	0.2077
395.0239	0.2075
395.2302	0.2078
395.4365	0.2131
395.6428	0.2071
395.8491	0.2017
396.0553	0.1995
396.2615	0.2103
396.4678	0.2186
396.674	0.2127
396.8802	0.2066
397.0863	0.204
397.2925	0.1938
397.4987	0.2113
397.7048	0.198
397.9109	0.2128
398.117	0.2097
398.3231	0.211
398.5292	0.1988
398.7353	0.1965
398.9413	0.2005
399.1474	0.1995
399.3534	0.1952
399.5594	0.2075
399.7654	0.2115
399.9714	0.1996
400.1774	0.1984
400.3833	0.2006
400.5893	0.1989
400.7952	0.1884
401.0011	0.2029
401.207	0.2058
401.4129	0.1875
401.6188	0.1968
401.8247	0.1947
402.0305	0.1914
402.2364	0.1965
402.4422	0.1986
402.648	0.21
402.8538	0.2047
403.0596	0.1845
403.2654	0.1859
403.4711	0.1936
403.6768	0.2148
403.8826	0.2048
404.0883	0.1984
404.294	0.1999
404.4997	0.1907
404.7054	0.1955
404.911	0.1988
405.1167	0.2056
405.3223	0.2026
405.5279	0.2006
405.7335	0.1957
405.9391	0.2057
406.1447	0.1941
406.3502	0.2014
406.5558	0.2
406.7613	0.195
406.9668	0.199
407.1724	0.203
407.3778	0.1949
407.5833	0.1918
407.7888	0.2097
407.9942	0.1957
408.1997	0.204
408.4051	0.1901
408.6105	0.1987
408.8159	0.2143
409.0213	0.1954
409.2267	0.1907
409.432	0.2055
409.6374	0.2073
409.8427	0.2029
410.048	0.1988
410.2533	0.1931
410.4586	0.2005
410.6639	0.203
410.8691	0.1941
411.0744	0.1991
411.2796	0.2035
411.4848	0.1931
411.69	0.2035
411.8952	0.1944
412.1004	0.1955
412.3056	0.2049
412.5107	0.2024
412.7158	0.1933
412.921	0.2001
413.1261	0.1857
413.3312	0.1989
413.5362	0.188
413.7413	0.2046
413.9464	0.1962
414.1514	0.1757
414.3564	0.1955
414.5614	0.1943
414.7664	0.1905
414.9714	0.1887
415.1764	0.194
415.3813	0.1974
415.5863	0.1876
415.7912	0.2014
415.9961	0.1992
416.201	0.1878
416.4059	0.1872
416.6108	0.1886
416.8156	0.1805
417.0205	0.1922
417.2253	0.1921
417.4301	0.1942
417.6349	0.1921
417.8397	0.1925
418.0445	0.1897
418.2492	0.1871
418.454	0.1951
418.6587	0.1877
418.8634	0.1943
419.0681	0.1939
419.2728	0.1884
419.4775	0.1808
419.6822	0.1959
419.8868	0.1869
420.0915	0.1791
420.2961	0.1796
420.5007	0.1772
420.7053	0.1758
420.9099	0.1704
421.1144	0.1906
421.319	0.1712
421.5235	0.1853
421.728	0.1799
421.9325	0.1632
422.137	0.1765
422.3415	0.1814
422.546	0.1778
422.7504	0.1885
422.9549	0.1756
423.1593	0.1783
423.3637	0.1681
423.5681	0.1781
423.7725	0.1637
423.9769	0.171
424.1812	0.1597
424.3856	0.1739
424.5899	0.1675
424.7942	0.1652
424.9985	0.1733
425.2028	0.163
425.4071	0.1642
425.6113	0.1585
425.8156	0.1568
426.0198	0.1665
426.224	0.1583
426.4282	0.1535
426.6324	0.1515
426.8366	0.1463
427.0407	0.1457
427.2449	0.1551
427.449	0.1527
427.6531	0.1513
427.8572	0.14
428.0613	0.1512
428.2654	0.1481
428.4694	0.1572
428.6735	0.1525
428.8775	0.1419
429.0815	0.1422
429.2855	0.15
429.4895	0.1452
429.6935	0.1391
429.8975	0.135
430.1014	0.1346
430.3053	0.1399
430.5093	0.1439
430.7132	0.1362
430.9171	0.1339
431.1209	0.1235
431.3248	0.1263
431.5286	0.1281
431.7325	0.1195
431.9363	0.1322
432.1401	0.1314
432.3439	0.1201
432.5477	0.1253
432.7514	0.1287
432.9552	0.1219
433.1589	0.1154
433.3627	0.1192
433.5664	0.1177
433.7701	0.1036
433.9737	0.1058
434.1774	0.1099
434.3811	0.0948
434.5847	0.1017
434.7883	0.105
434.9919	0.1112
435.1955	0.1027
435.3991	0.0991
435.6027	0.0984
435.8062	0.0895
436.0098	0.1004
436.2133	0.104
436.4168	0.102
436.6203	0.0953
436.8238	0.0966
437.0272	0.0819
437.2307	0.0845
437.4341	0.0911
437.6375	0.0938
437.841	0.0766
438.0443	0.0812
438.2477	0.0868
438.4511	0.0806
438.6545	0.0838
438.8578	0.0752
439.0611	0.0714
439.2644	0.0797
439.4677	0.0785
439.671	0.0718
439.8743	0.0747
440.0775	0.0639
440.2808	0.0655
440.484	0.0765
440.6872	0.0629
440.8904	0.0683
441.0936	0.0606
441.2967	0.0619
441.4999	0.0559
441.703	0.057
441.9062	0.0663
442.1093	0.0556
442.3124	0.0616
442.5155	0.0569
442.7185	0.05
442.9216	0.0595
443.1246	0.0536
443.3276	0.0618
443.5307	0.0494
443.7337	0.0547
443.9366	0.0551
444.1396	0.0441
444.3426	0.0388
444.5455	0.0377
444.7484	0.0417
444.9513	0.0467
445.1542	0.0528
445.3571	0.0465
445.56	0.0372
445.7628	0.0418
445.9657	0.0363
446.1685	0.0406
446.3713	0.029
446.5741	0.0413
446.7769	0.0427
446.9797	0.0324
447.1824	0.0356
447.3852	0.0391
447.5879	0.0359
447.7906	0.0356
447.9933	0.0305
448.196	0.033
448.3986	0.0276
448.6013	0.0251
448.8039	0.0268
449.0066	0.0369
449.2092	0.0188
449.4118	0.0219
449.6143	0.0175
449.8169	0.0236
450.0195	0.0204
450.222	0.0171
450.4245	0.0258
450.627	0.0181
450.8295	0.0195
451.032	0.0211
451.2345	0.0117
451.4369	0.025
451.6394	0.0161
451.8418	0.0202
452.0442	0.0175
452.2466	0.0296
452.449	0.0234
452.6513	0.0214
452.8537	0.0225
453.056	0.009
453.2583	0.0097
453.4607	0.0193
453.663	0.0094
453.8652	0.0095
454.0675	0.0126
454.2697	0.0143
454.472	0.0079
454.6742	0.0136
454.8764	0.0092
455.0786	0.0193
455.2808	0.0042
455.4829	0.0155
455.6851	0.008
455.8872	0.0088
456.0893	0.0047
456.2915	0.0053
456.4935	0.0026
456.6956	0.0109
456.8977	0.0047
457.0997	0.0131
457.3018	0.0137
457.5038	0.0123
457.7058	0.0011
457.9078	0.0061
458.1098	0.0006
458.3117	0.0073
458.5137	0.0062
458.7156	0.015
458.9175	0.0107
459.1194	0.0124
459.3213	0.0045
459.5232	0.0053
459.725	-0.0047
459.9269	0.0043
460.1287	0.0055
460.3305	-0.0053
460.5323	0.0162
460.7341	0.0083
460.9359	0.0038
461.1376	-0.0022
461.3394	0.0028
461.5411	0.0029
461.7428	0.0022
461.9445	0.0031
462.1462	-0.0024
462.3479	-0.0011
462.5495	0.0131
462.7512	-0.0041
462.9528	0.0024
463.1544	0.0037
463.356	0.0007
463.5576	-0.0012
463.7592	-0.0086
463.9607	0.003
464.1623	0.0013
464.3638	0.0016
464.5653	0.0066
464.7668	-0.0043
464.9683	0.003
465.1697	0.0026
465.3712	0.0006
465.5726	0.0004
465.7741	-0.007
465.9755	-0.0045
466.1769	-0.0159
466.3782	-0.0053
466.5796	-0.0079
466.7809	-0.0083
466.9823	-0.0027
467.1836	-0.0024
467.3849	0.0102
467.5862	-0.0038
467.7875	-0.0118
467.9887	-0.0051
468.19	-0.002
468.3912	0.0037
468.5924	-0.0067
468.7936	-0.0035
468.9948	0.0028
469.196	-0.0051
469.3972	0.0038
469.5983	0.0144
469.7994	-0.0089
470.0006	-0.008
470.2017	-0.0047
470.4027	-0.0019
470.6038	-0.0109
470.8049	-0.0065
471.0059	-0.0003
471.2069	0.0052
471.408	-0.0019
471.6089	-0.0038
471.8099	0.0036
472.0109	-0.0053
472.2119	-0.0129
472.4128	-0.002
472.6137	-0.0021
472.8146	-0.011
473.0155	-0.0087
473.2164	-0.0095
473.4173	-0.0128
473.6181	-0.0013
473.819	-0.0121
474.0198	0.0003
474.2206	0.0037
474.4214	-0.0028
474.6222	-0.0153
474.8229	-0.0069
475.0237	-0.0045
475.2244	0.0017
475.4251	-0.0046
475.6258	0.0072
475.8265	-0.008
476.0272	-0.007
476.2278	-0.0044
476.4285	0.0087
476.6291	-0.0059
476.8297	-0.0102
477.0303	-0.0049
477.2309	0.0015
477.4315	-0.001
477.632	-0.0138
477.8326	-0.0028
478.0331	-0.0067
478.2336	-0.0019
478.4341	-0.0072
478.6346	0.0004
478.8351	-0.012
479.0355	-0.0144
479.236	-0.0043
479.4364	-0.0034
479.6368	0.0075
479.8372	0.0017
480.0376	-0.0043
480.2379	-0.0059
480.4383	-0.0035
480.6386	-0.015
480.8389	-0.0024
481.0392	-0.0013
481.2395	-0.0156
481.4398	-0.0022
481.6401	-0.0083
481.8403	-0.0071
482.0405	-0.0147
482.2408	0.0057
482.441	-0.0057
482.6411	0
482.8413	-0.0053
483.0415	-0.0035
483.2416	-0.0035
483.4417	-0.0079
483.6419	-0.0044
483.8419	-0.0117
484.042	-0.001
484.2421	-0.0112
484.4422	-0.0112
484.6422	-0.0097
484.8422	-0.0113
485.0422	-0.0066
485.2422	-0.0068
485.4422	-0.0033
485.6422	-0.0062
485.8421	-0.0061
486.042	0.0023
486.242	-0.011
486.4419	-0.0037
486.6417	-0.0009
486.8416	0.0035
487.0415	-0.0071
487.2413	-0.006
487.4411	-0.0062
487.641	-0.009
487.8408	-0.0073
488.0405	-0.0095
488.2403	-0.0075
488.4401	-0.0075
488.6398	-0.0087
488.8395	-0.0123
489.0392	-0.0067
489.2389	-0.0031
489.4386	-0.0015
489.6383	-0.0052
489.8379	-0.0073
490.0376	-0.0093
490.2372	-0.0045
490.4368	-0.0126
490.6364	-0.0001
490.836	-0.0112
491.0355	-0.0026
491.2351	-0.0139
491.4346	-0.013
491.6341	-0.0003
491.8336	-0.0084
492.0331	-0.0106
492.2326	-0.0004
492.432	-0.003
492.6315	-0.0113
492.8309	-0.0073
493.0303	-0.0078
493.2297	-0.0019
493.4291	-0.0049
493.6284	0.0037
493.8278	-0.0025
494.0271	-0.0058
494.2264	-0.0006
494.4257	-0.0015
494.625	-0.0075
494.8243	-0.0047
495.0236	-0.0099
495.2228	-0.0033
495.422	-0.0079
495.6213	-0.0113
495.8205	-0.0067
496.0196	-0.0037
496.2188	-0.0005
496.418	-0.0008
496.6171	-0.0007
496.8162	-0.0063
497.0153	-0.0017
497.2144	-0.0055
497.4135	-0.0044
497.6126	-0.006
497.8116	0.0038
498.0107	-0.0023
498.2097	-0.0071
498.4087	-0.0091
498.6077	0.0008
498.8067	-0.0124
499.0056	-0.0008
499.2046	0.0006
499.4035	-0.0112
499.6024	-0.0107
499.8013	-0.0075
500.0002	-0.0059
500.199	-0.008
500.3979	-0.0065
500.5967	-0.0109
500.7956	-0.0107
500.9944	-0.008
501.1932	-0.0081
501.3919	-0.0135
501.5907	-0.0034
501.7895	-0.0041
501.9882	-0.0101
502.1869	-0.0085
502.3856	-0.003
502.5843	-0.0161
502.783	-0.0046
502.9816	-0.0058
503.1803	-0.0043
503.3789	-0.0037
503.5775	-0.0025
503.7761	-0.0039
503.9747	-0.0036
504.1732	-0.0097
504.3718	-0.0038
504.5703	-0.0071
504.7689	-0.0019
504.9674	0.0044
505.1658	-0.0095
505.3643	-0.0031
505.5628	0.0062
505.7612	-0.0045
505.9597	-0.0089
506.1581	-0.0055
506.3565	-0.0113
506.5549	-0.0071
506.7532	-0.0134
506.9516	-0.0025
507.1499	-0.0043
507.3482	-0.0096
507.5465	-0.0012
507.7448	-0.0069
507.9431	-0.0021
508.1414	-0.0094
508.3396	-0.0048
508.5379	-0.0044
508.7361	-0.0034
508.9343	-0.0066
509.1325	0.0012
509.3306	-0.0005
509.5288	-0.0078
509.7269	-0.0089
509.9251	-0.0065
510.1232	-0.0017
510.3213	-0.0154
510.5193	-0.0062
510.7174	-0.0038
510.9154	-0.0019
511.1135	-0.0083
511.3115	-0.0123
511.5095	-0.0043
511.7075	-0.004
511.9055	-0.0065
512.1034	-0.0088
512.3014	-0.0058
512.4993	-0.008
512.6972	-0.0095
512.8951	-0.005
513.093	-0.0132
513.2908	-0.0024
513.4887	-0.0056
513.6865	-0.0072
513.8844	-0.0022
514.0822	-0.0071
514.2799	-0.0101
514.4777	-0.005
514.6755	-0.002
514.8732	-0.0039
515.0709	-0.0053
515.2687	-0.0007
515.4664	-0.0083
515.664	-0.0086
515.8617	-0.0075
516.0594	-0.0062
516.257	-0.0025
516.4546	-0.0051
516.6522	-0.0075
516.8498	-0.0071
517.0474	-0.0026
517.2449	-0.0043
517.4425	-0.0027
517.64	-0.0043
517.8375	-0.0055
518.035	-0.0051
518.2325	-0.0065
518.43	0.001
518.6274	-0.0084
518.8249	-0.0008
519.0223	-0.0077
519.2197	-0.0008
519.4171	-0.0033
519.6145	-0.0043
519.8118	-0.0018
520.0092	-0.0033
520.2065	-0.0111
520.4038	-0.0052
520.6011	-0.0101
520.7984	-0.0045
520.9956	-0.0096
521.1929	-0.0085
521.3901	-0.0094
521.5874	-0.0051
521.7846	0.003
521.9818	-0.0072
522.1789	-0.0035
522.3761	-0.0083
522.5732	-0.0064
522.7704	-0.01
522.9675	-0.0027
523.1646	-0.0042
523.3617	-0.0014
523.5587	-0.0069
523.7558	-0.0005
523.9528	-0.0031
524.1498	-0.0039
524.3468	-0.0038
524.5438	-0.0097
524.7408	-0.0116
524.9378	-0.0052
525.1347	0.0022
525.3316	-0.0021
525.5285	-0.0059
525.7254	-0.0086
525.9223	0.0001
526.1192	-0.0093
526.316	-0.0004
526.5129	-0.0107
526.7097	-0.0116
526.9065	-0.0003
527.1033	-0.0005
527.3	-0.0019
527.4968	-0.0163
527.6935	-0.0086
527.8903	-0.0074
528.087	-0.013
528.2837	0.004
528.4804	-0.0034
528.677	-0.0124
528.8737	-0.0091
529.0703	0.0024
529.2669	0.0005
529.4635	-0.0077
529.6601	-0.0037
529.8567	-0.0062
530.0532	0.0008
530.2498	-0.0041
530.4463	-0.0057
530.6428	-0.0072
530.8393	-0.0045
531.0358	-0.0143
531.2322	-0.0066
531.4287	-0.0138
531.6251	-0.0062
531.8215	0.0016
532.0179	-0.0032
532.2143	-0.0031
532.4107	-0.0011
532.607	-0.0103
532.8034	-0.0041
532.9997	-0.0073
533.196	-0.0079
533.3923	-0.0001
533.5886	0.0006
533.7848	-0.0055
533.9811	-0.0075
534.1773	-0.0094
534.3735	-0.0025
534.5697	-0.0015
534.7659	-0.0011
534.9621	-0.0013
535.1582	-0.0113
535.3544	-0.0113
535.5505	-0.004
535.7466	-0.0072
535.9427	-0.004
536.1387	-0.0022
536.3348	0.0026
536.5308	-0.0052
536.7269	-0.0059
536.9229	-0.0008
537.1189	-0.0091
537.3148	-0.001
537.5108	0.0006
537.7068	-0.0062
537.9027	-0.0017
538.0986	0.0035
538.2945	-0.0068
538.4904	-0.0113
538.6863	-0.0069
538.8821	-0.0041
539.078	-0.0099
539.2738	-0.0085
539.4696	-0.0111
539.6654	-0.0034
539.8611	-0.002
540.0569	-0.0021
540.2526	0.0007
540.4484	0.0036
540.6441	-0.0063
540.8398	-0.0095
541.0355	-0.005
541.2311	-0.0014
541.4268	0
541.6224	-0.0005
541.818	-0.0049
542.0136	-0.0086
542.2092	-0.005
542.4048	-0.0031
542.6003	-0.0042
542.7959	-0.0046
542.9914	-0.0096
543.1869	-0.0074
543.3824	-0.0076
543.5779	-0.0124
543.7734	-0.0122
543.9688	-0.0086
544.1642	-0.01
544.3596	-0.0033
544.555	-0.0038
544.7504	-0.0089
544.9458	-0.0083
545.1411	0.0047
545.3365	-0.0072
545.5318	0.0011
545.7271	0.004
545.9224	0.0045
546.1177	-0.0065
546.3129	-0.0036
546.5081	-0.0042
546.7034	-0.0102
546.8986	-0.0047
547.0938	-0.0048
547.289	-0.008
547.4841	-0.0036
547.6793	-0.0038
547.8744	-0.0048
548.0695	-0.0041
548.2646	-0.0068
548.4597	0.0009
548.6548	0.0016
548.8498	-0.0072
549.0448	0.001
549.2399	-0.0032
549.4349	-0.0039
549.6298	-0.0105
549.8248	-0.0009
550.0198	-0.0032
550.2147	-0.004
550.4096	-0.0079
550.6045	-0.0032
550.7994	0.0056
550.9943	-0.004
551.1892	-0.0049
551.384	-0.0089
551.5788	-0.0098
551.7737	0.0004
551.9685	-0.0056
552.1632	-0.0062
552.358	-0.0057
552.5528	-0.0043
552.7475	-0.0052
552.9422	-0.0047
553.1369	-0.0123
553.3316	-0.0037
553.5263	-0.0037
553.7209	-0.0059
553.9156	-0.0043
554.1102	-0.0006
554.3048	-0.0113
554.4994	-0.0089
554.694	0.0025
554.8885	-0.0032
555.0831	-0.0031
555.2776	-0.0026
555.4721	-0.0093
555.6666	-0.0083
555.8611	-0.0038
556.0555	-0.0015
556.25	-0.0045
556.4444	-0.0059
556.6388	-0.0102
556.8332	-0.0007
557.0276	-0.0078
557.222	-0.0026
557.4163	-0.0008
557.6107	-0.0077
557.805	-0.0054
557.9993	0.0022
558.1936	-0.0036
558.3879	0.0013
558.5821	-0.0042
558.7764	-0.0093
558.9706	-0.0072
559.1648	-0.0025
559.359	-0.0126
559.5532	-0.0021
559.7473	-0.009
559.9415	-0.011
560.1356	-0.0079
560.3297	-0.0116
560.5238	-0.0051
560.7179	-0.0026
560.9119	-0.0004
561.106	-0.0051
561.3	0.0001
561.494	-0.0075
561.688	-0.0006
561.882	-0.0071
562.076	-0.0051
562.2699	-0.0079
562.4639	-0.0068
562.6578	-0.011
562.8517	-0.0018
563.0456	-0.0054
563.2395	-0.0036
563.4333	-0.0019
563.6272	-0.0054
563.821	-0.0083
564.0148	-0.0018
564.2086	-0.0091
564.4024	0.0012
564.5961	0.0015
564.7899	0.0046
564.9836	0.0026
565.1773	-0.0052
565.371	-0.0024
565.5647	-0.0012
565.7584	0.001
565.952	-0.0027
566.1456	-0.0025
566.3393	-0.0057
566.5329	-0.002
566.7264	-0.0009
566.92	-0.0024
567.1136	-0.0037
567.3071	0.0021
567.5006	-0.0038
567.6941	-0.0012
567.8876	-0.0089
568.0811	-0.0056
568.2745	-0.0066
568.468	-0.0078
568.6614	-0.0119
568.8548	-0.0063
569.0482	-0.0048
569.2416	-0.0005
569.4349	-0.0045
569.6283	-0.0007
569.8216	-0.0045
570.0149	-0.0056
570.2082	-0.0031
570.4015	-0.0019
570.5947	-0.001
570.788	-0.0073
570.9812	-0.0055
571.1744	-0.0114
571.3676	-0.0013
571.5608	-0.002
571.754	-0.0019
571.9471	-0.0061
572.1402	-0.0028
572.3333	-0.0035
572.5264	-0.0024
572.7195	0.0002
572.9126	-0.0025
573.1057	-0.0042
573.2987	0.0024
573.4917	-0.005
573.6847	-0.0002
573.8777	-0.0071
574.0707	0.0025
574.2636	-0.0062
574.4566	-0.0025
574.6495	-0.0048
574.8424	-0.0006
575.0353	-0.0042
575.2281	-0.0009
575.421	-0.0065
575.6138	-0.0008
575.8067	-0.0029
575.9995	0.0016
576.1923	-0.0055
576.385	-0.0093
576.5778	0.0029
576.7706	-0.0008
576.9633	-0.0082
577.156	0.0036
577.3487	0.0019
577.5414	-0.0028
577.734	0.0043
577.9267	-0.0009
578.1193	-0.0026
578.3119	-0.0027
578.5045	-0.0028
578.6971	-0.0021
578.8897	-0.01
579.0822	-0.0044
579.2747	0.002
579.4673	-0.0052
579.6598	-0.0044
579.8522	0.0005
580.0447	-0.0037
580.2372	0.0023
580.4296	0.0021
580.622	0.0043
580.8144	-0.0034
581.0068	-0.0032
581.1992	0.0028
581.3915	-0.0005
581.5839	-0.0022
581.7762	-0.0063
581.9685	-0.003
582.1608	-0.0034
582.353	-0.0017
582.5453	-0.0062
582.7375	-0.0028
582.9298	-0.0037
583.122	-0.0017
583.3142	-0.0011
583.5063	-0.0041
583.6985	-0.0039
583.8906	-0.0056
584.0827	-0.0087
584.2749	-0.0069
584.4669	-0.0067
584.659	-0.0045
584.8511	-0.0047
585.0431	-0.0021
585.2352	-0.0034
585.4272	-0.0077
585.6192	-0.0014
585.8111	-0.0011
586.0031	-0.0024
586.195	-0.0022
586.387	0.0005
586.5789	-0.0038
586.7708	-0.007
586.9627	-0.003
587.1545	-0.0086
587.3464	-0.008
587.5382	-0.0039
587.73	-0.0021
587.9218	-0.0037
588.1136	-0.0004
588.3053	-0.0007
588.4971	-0.005
588.6888	-0.0004
588.8805	-0.0076
589.0722	-0.0028
589.2639	-0.0006
589.4556	-0.0046
589.6472	-0.003
589.8389	-0.0021
590.0305	-0.0034
590.2221	-0.0018
590.4137	-0.0023
590.6052	-0.0005
590.7968	-0.0012
590.9883	-0.0002
591.1798	-0.0055
591.3713	0.0011
591.5628	-0.0054
591.7543	-0.0037
591.9458	-0.0013
592.1372	-0.0013
592.3286	-0.0023
592.52	-0.0054
592.7114	0.0048
592.9028	-0.0042
593.0941	-0.0024
593.2855	-0.0022
593.4768	-0.0022
593.6681	-0.0006
593.8594	0.0029
594.0506	0.0016
594.2419	0.0055
594.4331	-0.0029
594.6244	-0.0013
594.8156	-0.0092
595.0067	-0.0034
595.1979	-0.0034
595.3891	-0.006
595.5802	-0.0034
595.7713	0.0009
595.9624	-0.0002
596.1535	0.0002
596.3446	0.0003
596.5357	-0.0003
596.7267	-0.0034
596.9177	0.0009
597.1087	-0.0024
597.2997	0.0049
597.4907	-0.0038
597.6817	-0.0031
597.8726	-0.0033
598.0635	-0.005
598.2544	-0.0022
598.4453	-0.0074
598.6362	-0.005
598.827	-0.0078
599.0179	-0.0044
599.2087	-0.0101
599.3995	-0.0066
599.5903	-0.0029
599.7811	-0.0028
599.9718	-0.0033
600.1626	0.0003
600.3533	0.0015
600.544	-0.0033
600.7347	-0.0004
600.9254	-0.0002
601.116	-0.0051
601.3067	-0.0046
601.4973	-0.0051
601.6879	-0.0026
601.8785	-0.0035
602.0691	-0.0044
602.2596	0.0009
602.4502	-0.0034
602.6407	0.0014
602.8312	-0.0021
603.0217	-0.0054
603.2122	-0.0072
603.4027	-0.0044
603.5931	-0.0061
603.7835	-0.0038
603.9739	-0.0037
604.1643	-0.0038
604.3547	-0.003
604.5451	-0.0022
604.7354	-0.0009
604.9257	-0.0011
605.116	-0.0019
605.3063	-0.0011
605.4966	-0.0037
605.6869	-0.0076
605.8771	0.0002
606.0673	-0.002
606.2575	-0.0081
606.4477	-0.0055
606.6379	-0.0082
606.8281	-0.0083
607.0182	-0.0105
607.2083	-0.0061
607.3985	-0.0067
607.5885	-0.0007
607.7786	-0.0003
607.9687	-0.0015
608.1587	-0.0032
608.3488	-0.0032
608.5388	0.0009
608.7288	-0.0033
608.9187	-0.0041
609.1087	-0.0047
609.2986	-0.002
609.4886	0.0011
609.6785	-0.0033
609.8684	-0.0043
610.0582	-0.0012
610.2481	-0.0028
610.4379	0.0001
610.6278	-0.0006
610.8176	0.0027
611.0074	-0.0053
611.1971	-0.0002
611.3869	-0.0046
611.5766	0.0002
611.7664	0.0008
611.9561	0.0011
612.1458	0.0036
612.3354	-0.0062
612.5251	-0.0032
612.7147	-0.0025
612.9044	-0.0028
613.094	0.001
613.2836	-0.0013
613.4731	-0.0096
613.6627	-0.0028
613.8522	-0.0024
614.0417	-0.0044
614.2313	-0.0069
614.4207	-0.0015
614.6102	0.0031
614.7997	-0.0054
614.9891	-0.0051
615.1785	-0.0063
615.3679	0.0002
615.5573	-0.0008
615.7467	-0.0046
615.9361	-0.0027
616.1254	-0.0047
616.3147	-0.0049
616.504	-0.0009
616.6933	-0.0032
616.8826	-0.0093
617.0718	-0.0055
617.2611	-0.0022
617.4503	0.001
617.6395	-0.0084
617.8287	-0.0022
618.0179	0.0059
618.207	-0.0051
618.3961	-0.0014
618.5853	-0.0051
618.7744	-0.0046
618.9634	0.0042
619.1525	-0.005
619.3416	-0.0092
619.5306	-0.0076
619.7196	0.0026
619.9086	-0.0023
620.0976	-0.0015
620.2866	0.0009
620.4755	-0.0064
620.6645	-0.004
620.8534	0.0004
621.0423	-0.0066
621.2312	-0.0069
621.42	0.0003
621.6089	-0.0071
621.7977	-0.0035
621.9865	-0
622.1753	-0.0015
622.3641	0.0031
622.5529	0.002
622.7416	-0.0027
622.9303	0.0031
623.1191	-0.0061
623.3078	0.0013
623.4964	-0.0019
623.6851	0.0041
623.8737	0.0051
624.0624	0.0017
624.251	0.001
624.4396	0.0014
624.6282	-0.0024
624.8167	0.0023
625.0053	-0.0009
625.1938	0.0019
625.3823	0.0035
625.5708	0.0048
625.7593	-0.0051
625.9477	-0.0073
626.1362	-0.0039
626.3246	-0.0043
626.513	-0.0061
626.7014	0.0002
626.8898	-0.0038
627.0781	-0.006
627.2665	-0.0038
627.4548	-0.0051
627.6431	-0.0029
627.8314	-0.0034
628.0197	-0.0018
628.2079	-0.0036
628.3962	0.0015
628.5844	0.0003
628.7726	0.002
628.9608	-0.0021
629.1489	0.0017
629.3371	0.0068
629.5252	0.0021
629.7134	0.0005
629.9015	-0.0029
630.0895	-0.0002
630.2776	0.0025
630.4657	-0.0017
630.6537	-0.0036
630.8417	0.0011
631.0297	-0.0025
631.2177	0.0035
631.4057	0.0031
631.5936	-0.0012
631.7815	-0.0057
631.9695	-0.0052
632.1574	-0.007
632.3452	-0.0052
632.5331	-0.0031
632.7209	-0.004
632.9088	-0.0073
633.0966	-0.0022
633.2844	-0.0016
633.4722	0.0022
633.6599	0.0017
633.8477	-0.0029
634.0354	-0.0051
634.2231	-0.007
634.4108	-0.0009
634.5985	-0.0023
634.7861	-0.004
634.9738	-0.0048
635.1614	-0.002
635.349	-0.0029
635.5366	-0.004
635.7242	-0.0008
635.9117	0.001
636.0993	-0.0018
636.2868	-0.0049
636.4743	0.0009
636.6618	-0.0049
636.8492	-0.0019
637.0367	-0.0068
637.2241	-0.0049
637.4115	-0.008
637.5989	0.001
637.7863	-0.0023
637.9737	-0.0063
638.161	-0.006
638.3484	-0.0008
638.5357	0.0003
638.723	0.0009
638.9103	0.004
639.0975	0.0016
639.2848	-0.0037
639.472	0.0029
639.6592	0.0057
639.8464	-0.0029
640.0336	-0.0046
640.2208	0.0036
640.4079	-0.0061
640.595	-0.0011
640.7821	-0.0045
640.9692	0.0031
641.1563	0.0038
641.3434	0.002
641.5304	-0.0027
641.7174	0.0024
641.9044	0.002
642.0914	0.0013
642.2784	0.0045
642.4653	0.0059
642.6523	0.0005
642.8392	0.0042
643.0261	0.0043
643.213	0.0051
643.3999	-0.0044
643.5867	-0.0017
643.7735	0.0008
643.9604	-0.0023
644.1472	-0.0025
644.3339	-0.0014
644.5207	-0.0006
644.7075	-0.0015
644.8942	-0.0056
645.0809	-0.0027
645.2676	-0.0036
645.4543	-0.0003
645.6409	-0.0022
645.8276	-0.0003
646.0142	-0.0022
646.2008	-0.0045
646.3874	-0.0029
646.574	-0.0036
646.7605	-0.0054
646.9471	-0.009
647.1336	-0.0047
647.3201	-0.0032
647.5066	-0.0016
647.6931	-0.0045
647.8795	-0.0083
648.0659	-0.0033
648.2524	-0.0033
648.4388	-0.0039
648.6252	-0.001
648.8115	-0.0132
648.9979	-0.0063
649.1842	-0.011
649.3705	-0.0055
649.5568	-0.0026
649.7431	-0.0028
649.9294	-0.0061
650.1156	-0.006
650.3018	-0.0047
650.488	-0.0066
650.6742	-0.0063
650.8604	-0.0005
651.0466	0.0056
651.2327	-0.0002
651.4188	0.0018
651.6049	0.0021
651.791	0.0013
651.9771	0.0015
652.1632	0.0029
652.3492	-0.0013
652.5352	-0.0005
652.7212	0.0034
652.9072	0.0021
653.0932	0.0037
653.2791	-0.0053
653.465	-0.0052
653.651	-0.0043
653.8369	-0.005
654.0227	-0.0012
654.2086	0.0012
654.3944	-0.0062
654.5803	-0.0076
654.7661	-0.005
654.9519	-0.005
655.1377	-0.003
655.3234	0.0001
655.5092	0.0001
655.6949	0.0001
655.8806	0.0001
656.0663	0.0001
656.2519	0.0001
656.4376	-0.0046
656.6232	-0.0033
656.8088	-0.0042
656.9945	-0.0043
657.18	0.0024
657.3656	-0.0025
657.5511	-0.004
657.7367	-0.0011
657.9222	-0.0039
658.1077	-0.0038
658.2932	-0.0035
658.4786	-0.0047
658.6641	-0.0028
658.8495	-0.0034
659.0349	-0.0009
659.2203	-0.0054
659.4057	-0.0042
659.591	-0.0044
659.7764	-0.0051
659.9617	-0.004
660.147	-0.0035
660.3323	-0.0055
660.5176	-0.0072
660.7028	-0.0063
660.888	-0.0066
661.0733	0.0007
661.2585	-0.006
661.4436	0.001
661.6288	-0.0079
661.8139	0.0002
661.9991	-0.0011
662.1842	-0.0004
662.3693	-0.0007
662.5544	0.0013
662.7394	-0.0019
662.9245	-0.002
663.1095	0.0013
663.2945	-0.0014
663.4795	-0.0015
663.6644	-0.0062
663.8494	-0.0057
664.0343	-0.0036
664.2193	-0.0064
664.4042	-0.0087
664.589	-0.0036
664.7739	-0.0072
664.9587	0.0031
665.1436	0.0019
665.3284	-0.0005
665.5132	-0.0039
665.698	0.0044
665.8827	0.004
666.0675	-0.0037
666.2522	-0.0097
666.4369	-0.0083
666.6216	-0.0118
666.8063	-0.0092
666.9909	-0.0127
667.1756	-0.0073
667.3602	-0.0054
667.5448	-0.0104
667.7294	-0.0049
667.9139	-0.0033
668.0985	-0.0102
668.283	-0.0084
668.4675	-0.0107
668.652	-0.0071
668.8365	-0.0088
669.0209	-0.009
669.2054	-0.0042
669.3898	-0.0067
669.5742	-0.009
669.7586	-0.0072
669.943	-0.0062
670.1273	-0.0093
670.3117	-0.0055
670.496	-0.0069
670.6803	-0.0026
670.8646	-0.0033
671.0488	0
671.2331	-0.0007
671.4173	-0.0024
671.6015	0.0009
671.7857	-0.0059
671.9699	-0.0022
672.1541	-0.0071
672.3382	-0.0042
672.5223	-0.0059
672.7064	-0.009
672.8905	-0.014
673.0746	-0.0107
673.2587	-0.0161
673.4427	-0.0148
673.6267	-0.0143
673.8107	-0.0105
673.9947	-0.0063
674.1787	-0.0094
674.3626	-0.0106
674.5465	-0.0027
674.7304	0.0006
674.9143	0.0019
675.0982	0.0022
675.2821	-0.0032
675.4659	-0.0009
675.6497	-0.0003
675.8335	-0.0027
676.0173	-0.0092
676.2011	-0.0084
676.3849	-0.0044
676.5686	-0.0009
676.7523	-0.0045
676.936	-0.0032
677.1197	-0.0066
677.3034	-0.0059
677.487	-0.0102
677.6706	-0.0018
677.8542	-0.0017
678.0378	-0.0038
678.2214	-0.0095
678.405	-0.0043
678.5885	-0.0106
678.772	-0.0033
678.9555	-0.0043
679.139	-0.0063
679.3225	-0.009
679.5059	-0.0006
679.6894	-0.0011
679.8728	0.0005
680.0562	-0.0021
680.2395	-0.0023
680.4229	-0.0034
680.6062	0.0019
680.7896	-0.002
680.9729	-0.0015
681.1562	-0.0051
681.3394	0.0026
681.5227	-0.0051
681.7059	-0.0047
681.8891	-0.0013
682.0723	-0.0051
682.2555	-0.0064
682.4387	-0.0009
682.6218	-0.0065
682.805	-0.0037
682.9881	-0.0019
683.1712	0.0033
683.3542	-0.0053
683.5373	-0.0028
683.7203	-0.0024
683.9034	-0.0035
684.0864	-0.0049
684.2694	-0.0012
684.4523	-0.0046
684.6353	-0.0019
684.8182	0.0027
685.0011	-0.0044
685.184	-0.0019
685.3669	-0.0036
685.5498	-0.0011
685.7326	0.0022
685.9154	-0.0041
686.0982	-0.0064
686.281	-0.0096
686.4638	-0.0066
686.6465	-0.0082
686.8293	-0.0077
687.012	-0.0054
687.1947	-0.0039
687.3774	-0.0051
687.56	-0.0049
687.7427	-0.0017
687.9253	-0.0054
688.1079	0.0011
688.2905	-0.0024
688.4731	0.0012
688.6556	-0.0076
688.8382	-0.0041
689.0207	-0.0009
689.2032	0.0029
689.3857	-0.0008
689.5681	0.0007
689.7506	0.0013
689.933	-0.0015
690.1154	-0.0042
690.2978	0.002
690.4802	0.0015
690.6626	0.0039
690.8449	0.0008
691.0272	-0.0005
691.2095	0.0005
691.3918	-0.0032
691.5741	-0.0042
691.7563	0.0001
691.9386	-0.0055
692.1208	-0.0064
692.303	-0.0039
692.4852	0.0013
692.6673	-0.0023
692.8495	-0.0068
693.0316	-0.0053
693.2137	-0.0102
693.3958	-0.0039
693.5778	-0.0036
693.7599	-0.0048
693.9419	-0.0063
694.1239	-0.0059
694.3059	-0.0109
694.4879	-0.0048
694.6699	-0.0071
694.8518	-0.0076
695.0337	-0.0115
695.2157	-0.0025
695.3975	-0.0081
695.5794	-0.0032
695.7613	-0.0088
695.9431	-0.0087
696.1249	-0.0096
696.3067	-0.0071
696.4885	-0.0042
696.6703	-0.0028
696.852	-0.0079
697.0337	-0.0037
697.2154	-0.0023
697.3971	-0.0056
697.5788	-0.0052
697.7605	-0.0007
697.9421	-0.0062
698.1237	-0.0022
698.3053	-0.0009
698.4869	-0.0023
698.6685	-0.0048
698.85	-0.0074
699.0315	-0.0011
699.213	0.0017
699.3945	0.0025
699.576	0.0086
699.7575	-0.0034
699.9389	-0.0002
700.1203	-0.0037
700.3017	-0.0064
700.4831	-0.0013
700.6645	-0.0058
700.8458	-0.0039
701.0271	-0.0021
701.2084	-0.0121
701.3897	-0.0039
701.571	0.0057
701.7523	-0.0025
701.9335	0.0016
702.1147	0.0113
702.2959	-0.0076
702.4771	-0.0045
702.6583	-0.0002
702.8394	-0.0037
703.0205	0.0036
703.2016	-0.0011
703.3827	0.0054
703.5638	-0.0073
703.7449	-0.0081
703.9259	-0.006
704.1069	0.0003
704.2879	0.0017
704.4689	-0.0006
704.6499	-0.002
704.8308	-0.0057
705.0117	0.0001
705.1927	-0.0039
705.3735	0.0056
705.5544	0.0033
705.7353	0.0013
705.9161	-0.0026
706.0969	0.006
706.2777	-0.0067
706.4585	-0.0038
706.6393	-0.0012
706.82	-0.0076
707.0007	-0.0018
707.1815	-0
707.3621	-0.0043
707.5428	-0.0032
707.7235	-0.0002
707.9041	-0.0006
708.0847	0.0018
708.2653	-0.0043
708.4459	-0.002
708.6265	-0.0059
708.807	-0.0016
708.9875	-0.0038
709.168	-0.0072
709.3485	-0.0002
709.529	-0.005
709.7095	-0.0033
709.8899	-0.009
710.0703	0.0024
710.2507	-0.0076
710.4311	0.0018
710.6115	0.0012
710.7918	-0.0006
710.9721	-0.0035
711.1524	0.0013
711.3327	0.0028
711.513	-0.0006
711.6932	-0.0058
711.8735	0.0055
712.0537	-0.0047
712.2339	0.0008
712.4141	-0.0032
712.5942	0.0016
712.7744	0.0007
712.9545	0
713.1346	-0.001
713.3147	0.0019
713.4947	0.0004
713.6748	-0.0021
713.8548	-0.0005
714.0348	-0.0045
714.2148	-0.0061
714.3948	-0.006
714.5748	-0.0098
714.7547	-0.0095
714.9346	-0.0018
715.1145	-0.0082
715.2944	0.0029
715.4743	-0.0068
715.6541	-0.0056
715.834	-0.005
716.0138	0.0044
716.1936	-0.0048
716.3733	-0.0024
716.5531	-0.006
716.7328	-0.0012
716.9126	-0.0065
717.0923	0.0001
717.2719	-0.0101
717.4516	-0.0059
717.6312	-0.002
717.8109	-0.0043
717.9905	-0.0089
718.1701	-0.0055
718.3496	-0.005
718.5292	-0.0051
718.7087	-0.0057
718.8882	-0.0041
719.0677	-0.0043
719.2472	-0
719.4267	-0.0096
719.6061	-0.0132
719.7856	-0.0038
719.965	-0.0098
720.1443	-0.0035
720.3237	-0.0039
720.5031	-0.0069
720.6824	0.0002
720.8617	-0.0063
721.041	-0.0012
721.2203	-0.0085
721.3995	-0.0026
721.5788	-0.0104
721.758	-0.003
721.9372	-0.0012
722.1164	-0.0049
722.2956	-0.0068
722.4747	-0.0049
722.6538	-0.0094
722.8329	-0.0085
723.012	-0.0072
723.1911	0.0022
723.3702	0.0013
723.5492	-0.0084
723.7282	-0.0031
723.9072	-0.0034
724.0862	-0.0067
724.2652	-0
724.4441	-0.0077
724.623	0.0006
724.8019	-0.0031
724.9808	-0.0021
725.1597	0.0006
725.3385	0.0024
725.5174	0.0021
725.6962	-0.007
725.875	0.0052
726.0538	0.0003
726.2325	-0.003
726.4112	0.0017
726.59	-0.0009
726.7687	0.0014
726.9474	-0.0023
727.126	-0.001
727.3047	-0.0074
727.4833	-0.0018
727.6619	-0.011
727.8405	-0.0056
728.0191	0.0021
728.1976	-0.0062
728.3762	-0.0129
728.5547	-0.0099
728.7332	-0.006
728.9116	-0.0104
729.0901	-0.0067
729.2686	-0.0036
729.447	0.0012
729.6254	-0.0055
729.8038	-0.009
729.9821	0.002
730.1605	-0.0043
730.3388	-0.0013
730.5171	-0.0019
730.6954	0.0021
730.8737	-0.0026
731.0519	0.0042
731.2302	0.0047
731.4084	-0.0005
731.5866	0.0049
731.7648	0.0013
731.9429	0.0042
732.1211	0.0017
732.2992	0.0023
732.4773	-0.0039
732.6554	-0.0026
732.8335	-0.0055
733.0115	-0.0077
733.1896	-0.0085
733.3676	-0.0065
733.5456	-0.0073
733.7235	-0.0059
733.9015	-0.0009
734.0794	0.0035
734.2574	-0.0065
734.4353	0.0005
734.6131	0.0044
734.791	-0.0058
734.9689	-0.0029
735.1467	0.001
735.3245	0.0006
735.5023	0.0014
735.68	-0.0062
735.8578	0.0012
736.0355	0.0026
736.2132	0.0062
736.3909	-0.007
736.5686	-0.0007
736.7463	-0.0069
736.9239	-0.0046
737.1015	-0.0028
737.2791	-0.0097
737.4567	-0.0059
737.6343	-0.0052
737.8118	-0.0056
737.9894	-0.001
738.1669	-0.0043
738.3444	-0.0021
738.5218	0.0019
738.6993	-0.0026
738.8767	-0.0012
739.0541	-0.008
739.2315	-0.0041
739.4089	0.0002
739.5863	-0.0027
739.7636	-0.0071
739.9409	-0.0046
740.1182	0.0042
740.2955	-0.0001
740.4728	-0.0034
740.65	0.0017
740.8272	0.0044
741.0044	-0.0016
741.1816	0.0055
741.3588	0.0104
741.5359	-0.0007
741.7131	0.0017
741.8902	0.0042
742.0673	0.0045
742.2444	-0.004
742.4214	-0.0035
742.5985	-0.0024
742.7755	-0.0009
742.9525	0.0058
743.1295	-0.0031
743.3064	-0.0042
743.4834	-0.0051
743.6603	-0.0012
743.8372	0.0036
744.0141	0.0019
744.191	-0.0032
744.3678	0.0032
744.5446	-0.0002
744.7215	-0.0091
744.8982	-0.0007
745.075	0.0014
745.2518	-0.0066
745.4285	-0.0033
745.6052	0.001
745.7819	0.0023
745.9586	0.0027
746.1353	-0.0052
746.3119	0.0003
746.4885	-0.0033
746.6651	-0.0033
746.8417	-0.0014
747.0183	-0.0027
747.1948	-0.0065
747.3714	-0.0101
747.5479	-0.0006
747.7244	0.002
747.9008	0.0044
748.0773	0.0079
748.2537	0.0077
748.4301	-0.0001
748.6065	-0.0013
748.7829	0.0007
748.9593	-0.0038
749.1356	-0.0054
749.3119	-0.0039
749.4882	0.0032
749.6645	-0.0022
749.8408	-0.0025
750.017	-0.009
750.1933	-0.0004
750.3695	-0.0103
750.5457	-0.004
750.7218	-0.0099
750.898	-0.0084
751.0741	-0.0051
751.2502	-0.0076
751.4263	-0.0062
751.6024	-0.0005
751.7784	-0.0025
751.9545	-0.0016
752.1305	0.0019
752.3065	-0.0039
752.4825	0.0011
752.6584	-0.0043
752.8344	0.0021
753.0103	-0.0037
753.1862	0.0005
753.3621	-0.0017
753.5379	-0.0078
753.7138	0.0023
753.8896	-0.0107
754.0654	-0.0061
754.2412	-0.0145
754.417	-0.002
754.5927	-0.0019
754.7685	-0.0075
754.9442	-0.0102
755.1199	-0.0118
755.2956	-0.0031
755.4712	-0.0037
755.6469	-0.01
755.8225	-0.004
755.9981	-0.0048
756.1736	-0.0019
756.3492	-0.0006
756.5248	-0.0037
756.7003	-0.0027
756.8758	-0.0129
757.0513	-0.0087
757.2267	-0.0156
757.4022	-0.0064
757.5776	-0.0069
757.753	-0.0106
757.9284	-0.0084
758.1038	-0.0088
758.2791	-0.0154
758.4545	-0.0077
758.6298	-0.0064
758.8051	-0.0082
758.9803	-0.0141
759.1556	-0.0036
759.3308	-0.0066
759.506	-0.0112
759.6812	-0.0114
759.8564	-0.0067
760.0316	-0.0105
760.2067	-0.0088
760.3819	-0.0034
760.557	-0.0083
760.732	-0.0098
760.9071	-0.0131
761.0821	-0.0145
761.2572	-0.0095
761.4322	-0.0141
761.6072	-0.0106
761.7821	-0.012
761.9571	-0.0114
762.132	-0.0087
762.3069	-0.0034
762.4818	-0.0024
762.6567	-0.0136
762.8316	0.0005
763.0064	-0.0063
763.1812	-0.0004
763.356	0.0045
763.5308	0.0041
763.7055	0.008
763.8803	-0.0052
764.055	-0.0037
764.2297	0.0071
764.4044	-0.005
764.579	-0
764.7537	0.0003
764.9283	-0.0122
765.1029	0.0087
765.2775	0.0007
765.4521	0.006
765.6266	0.0043
765.8011	0.0035
765.9756	-0.0026
766.1501	0.0031
766.3246	-0.0063
766.4991	0.0004
766.6735	-0.0048
766.8479	-0.0063
767.0223	0.0018
767.1967	0.0006
767.371	-0.0045
767.5454	-0.0004
767.7197	-0.0061
767.894	0.0024
768.0683	-0.0006
768.2425	-0.001
768.4168	-0.0052
768.591	0.0033
768.7652	-0.0042
768.9394	0.0016
769.1135	0.0097
769.2877	-0.0017
769.4618	0.005
769.6359	-0.0009
769.81	-0.0029
769.984	-0.0089
770.1581	0.0032
770.3321	0.0028
770.5061	-0.0008
770.6801	0.0046
770.8541	0.0009
771.028	0.0074
771.202	0.0031
771.3759	-0.0026
771.5498	-0.0007
771.7236	0.003
771.8975	0.0013
772.0713	0.0063
772.2451	0.0039
772.4189	0.0034
772.5927	-0.007
772.7665	0.0045
772.9402	0.0016
773.1139	0.0013
773.2876	-0.0027
773.4613	0.0033
773.635	0.0045
773.8086	0.0038
773.9822	-0.0007
774.1558	-0.0063
774.3294	0.0067
774.503	0.0017
774.6765	-0.0087
774.8501	0.0033
775.0236	-0.0158
775.1971	-0.0076
775.3705	0.0096
775.544	-0.0023
775.7174	0.0012
775.8908	-0.0034
776.0642	-0.0014
776.2376	-0.006
776.4109	-0.0111
776.5843	0.0084
776.7576	0.0001
776.9309	-0.0009
777.1041	0.0001
777.2774	0.0043
777.4506	-0.004
777.6238	0.0018
777.797	0.0009
777.9702	-0.0073
778.1434	-0.0056
778.3165	0.0025
778.4896	-0.0128
778.6627	-0.0037
778.8358	-0.0057
779.0089	0.0015
779.1819	-0.0029
779.3549	-0.0028
779.5279	-0.0044
779.7009	-0.007
779.8739	0.0008
780.0468	-0.0136
780.2197	0.0019
780.3926	-0.0093
780.5655	-0.0123
780.7384	-0.0082
780.9112	-0.0099
781.0841	-0.0039
781.2569	-0.0007
781.4297	-0.0008
781.6024	0.0008
781.7752	-0.0037
781.9479	-0.004
782.1206	0.002
782.2933	-0.0042
782.466	-0.0094
782.6386	-0.0003
782.8113	-0.0164
782.9839	-0.0115
783.1565	-0.003
783.329	-0.0057
783.5016	-0.0073
783.6741	-0.0047
783.8466	-0.0085
784.0191	-0.0058
784.1916	-0.0011
784.3641	0.0032
784.5365	0.0016
784.7089	-0.0022
784.8813	0.0077
785.0537	0.0115
785.2261	-0.0041
785.3984	0.0052
785.5707	0
785.743	0.0064
785.9153	0.0027
786.0876	0.0033
786.2598	0.0079
786.432	0.0037
786.6042	0.0039
786.7764	0.0087
786.9486	0.0041
787.1207	-0.0035
787.2928	-0.0011
787.4649	-0.0048
787.637	-0.0057
787.8091	0.0014
787.9811	0.0085
788.1532	0.0038
788.3252	-0.0079
788.4972	-0.002
788.6691	-0.0011
788.8411	-0.0008
789.013	-0.0076
789.1849	0.0046
789.3568	-0.0042
789.5287	-0.0088
789.7005	-0.0012
789.8723	-0.002
790.0442	-0.0066
790.2159	-0.0004
790.3877	-0.0071
790.5595	-0.0053
790.7312	0.0057
790.9029	-0.0068
791.0746	-0.0028
791.2463	0.0034
791.4179	0.0013
791.5896	0.006
791.7612	-0.0081
791.9328	-0.0028
792.1044	-0.0027
792.2759	0.0063
792.4474	0.0002
792.619	-0.006
792.7905	-0.0062
792.9619	-0.0042
793.1334	-0.0043
793.3048	-0.0029
793.4762	-0.0003
793.6476	-0.0203
793.819	-0.0046
793.9904	-0.0111
794.1617	-0.0122
794.333	-0.013
794.5043	0.0009
794.6756	0.005
794.8469	0.0065
795.0181	-0.0076
795.1893	-0.0069
795.3605	-0.0085
795.5317	-0.0098
795.7029	-0.006
795.874	-0.0047
796.0452	-0.0093
796.2163	-0.0104
796.3873	-0.0096
796.5584	-0.0126
796.7294	-0.008
796.9005	-0.0129
797.0715	-0.0139
797.2425	-0.0089
797.4134	-0.0125
797.5844	-0.0136
797.7553	-0.0093
797.9262	-0.0061
798.0971	-0.0117
798.2679	-0.0109
798.4388	-0.0077
798.6096	-0.0173
798.7804	-0.0146
798.9512	-0.0156
799.122	-0.007
799.2927	-0.0066
799.4635	-0.004
799.6342	-0.0087
799.8049	-0.0099
799.9755	-0.0071
800.1462	-0.0184
800.3168	-0.0053
800.4874	-0.0032
800.658	-0.022
800.8286	-0.0136
800.9991	-0.0132
801.1696	-0.0096
801.3402	-0.0199
801.5106	-0.0114
801.6811	-0.018
801.8516	-0.0115
802.022	-0.0326
802.1924	-0.0147
802.3628	-0.0194
802.5332	-0.0199
802.7035	-0.0208
802.8739	-0.0064
803.0442	-0.0117
803.2145	-0.015
803.3847	-0.0232
803.555	-0.016
803.7252	-0.0113
803.8954	-0.0105
804.0656	0.004
804.2358	-0.0124
804.4059	-0.0048
804.5761	-0.0046
804.7462	-0.0092
804.9163	-0.0135
805.0864	-0.0108
805.2564	-0.0155
805.4264	-0.0138
805.5965	-0.0163
805.7665	-0.0075
805.9364	-0.0086
806.1064	-0.0139
806.2763	-0.0157
806.4462	-0.0049
806.6161	-0.0067
806.786	-0.0026
806.9559	-0.0013
807.1257	-0.0051
807.2955	-0.0115
807.4653	0.0027
807.6351	-0.0042
807.8048	-0.0088
807.9746	0.0014
808.1443	-0.0049
808.314	0.0014
808.4837	0.0118
808.6533	-0.0017
808.8229	-0.0002
808.9926	-0.0003
809.1622	-0.013
809.3317	0.0094
809.5013	0.0146
809.6708	0.0081
809.8403	0.0017
810.0098	0.0053
810.1793	-0.0062
810.3488	0.0054
810.5182	-0.0074
810.6876	0.003
810.857	-0.0102
811.0264	-0.0089
811.1958	0.0059
811.3651	-0.014
811.5344	0.0077
811.7037	-0.0124
811.873	-0.0147
812.0422	-0.0156
812.2115	-0.0062
812.3807	-0.0038
812.5499	-0.0083
812.7191	-0.0104
812.8882	-0.0112
813.0574	-0.0066
813.2265	0.0026
813.3956	0.0037
813.5646	-0.0077
813.7337	0.0026
813.9027	0.0042
814.0718	-0.0144
814.2407	0.0156
814.4097	-0.0028
814.5787	0.0077
814.7476	-0.0015
814.9165	-0.0101
815.0854	-0.0158
815.2543	0.0077
815.4232	0.0001
815.592	0.0029
815.7608	0.0031
815.9296	-0.0067
816.0984	-0.001
816.2671	-0.0035
816.4359	0.0006
816.6046	0.0034
816.7733	-0.0088
816.942	-0.0014
817.1106	-0.0006
817.2793	-0.0159
817.4479	-0.0125
817.6165	-0.0059
817.785	-0.0214
817.9536	0.0045
818.1221	-0.0071
818.2906	-0.013
818.4591	-0.0157
818.6276	-0.0003
818.7961	-0.0055
818.9645	-0.0081
819.1329	-0.0026
819.3013	-0.0054
819.4697	0.0043
819.638	-0.0168
819.8064	-0.0132
819.9747	0.0159
820.143	-0.0007
820.3113	-0.0082
820.4795	0.009
820.6477	-0.0146
820.816	0.0077
820.9842	-0.0029
821.1523	-0.018
821.3205	0.0002
821.4886	0.001
821.6567	-0.0007
821.8248	-0.0064
821.9929	-0.005
822.1609	0.0023
822.329	-0.0101
822.497	-0.0084
822.665	-0.008
822.833	-0.0299
823.0009	-0.0172
823.1688	-0.009
823.3367	-0.0102
823.5046	0.0004
823.6725	-0.0109
823.8404	0.0039
824.0082	-0.0071
824.176	0.0109
824.3438	-0.0046
824.5116	-0.0094
824.6793	-0.0157
824.847	-0.0008
825.0147	-0.005
825.1824	-0.029
825.3501	-0.0073
825.5177	-0.0015
825.6854	0.0146
825.853	0.0056
826.0206	0.0058
826.1881	0.0075
826.3557	0.0019
826.5232	0.0009
826.6907	-0.0073
826.8582	0.0053
827.0257	-0.0066
827.1931	0.0057
827.3605	-0.0044
827.528	0.005
827.6953	0.005
827.8627	-0.0022
828.03	-0.0085
828.1974	0.0075
828.3647	0.0075
828.532	-0.0012
828.6992	0.0128
828.8665	-0.0021
829.0337	0.0024
829.2009	-0.0176
829.3681	-0.0122
829.5352	0.0012
829.7024	0.0032
829.8695	-0.0218
830.0366	-0.0337
830.2037	-0.0051
830.3707	-0.0223
830.5378	-0.0067
830.7048	-0.014
830.8718	-0.0066
831.0388	-0.0109
831.2057	0.0023
831.3727	-0.0198
831.5396	-0.0048
831.7065	0.0041
831.8734	-0.002
832.0402	-0.0245
832.2071	0.0046
832.3739	0.0096
832.5407	-0.0016
832.7075	-0.002
832.8742	0.0239
833.041	0.0125
833.2077	-0.0243
833.3744	-0.0011
833.541	-0.0034
833.7077	-0.0076
833.8743	-0.0003
834.0409	0.0149
834.2075	0.0075
834.3741	-0.007
834.5407	0.0036
834.7072	-0.0042
834.8737	-0.0187
835.0402	-0.0187
835.2067	-0.0181
835.3731	-0.0076
835.5395	-0.014
835.706	-0.0189
835.8723	-0.0196
836.0387	-0.0229
836.2051	-0.0201
836.3714	0.0218
836.5377	-0.0001
836.704	0.0058
836.8703	-0.0272
837.0365	-0.0133
837.2027	-0.0054
837.3689	-0.0087
837.5351	-0.0031
837.7013	-0.032
837.8674	-0.0071
838.0335	-0.0076
838.1997	-0.0066
838.3657	0.0062
838.5318	-0.0059
838.6978	-0.0163
838.8639	0.0136
839.0299	-0.0372
839.1958	0.0074
839.3618	0.0302
839.5277	-0.0156
839.6937	-0.0004
839.8596	-0.006
840.0254	-0.0108
840.1913	-0.0241
840.3571	0.0193
840.523	-0.0075
840.6888	0.0098
840.8545	-0.0084
841.0203	0.0005
841.186	0.0051
841.3517	-0.0238
841.5174	-0.0007
841.6831	0.0045
841.8488	0.0102
842.0144	0.037
842.18	0.003
842.3456	0.0176
842.5112	-0.0084
842.6767	-0.0145
842.8422	-0.0007
843.0077	-0.0149
843.1732	0.0084
843.3387	-0.0348
843.5042	-0.0018
843.6696	-0.0018
843.835	-0.0117
844.0004	-0.0055
844.1657	-0.019
844.3311	0.0233
844.4964	-0.0061
844.6617	0.0028
844.827	0.009
844.9923	0.0065
845.1575	-0.003
845.3227	-0.0226
845.4879	-0.0116
845.6531	0.015
845.8183	-0.0202
845.9834	-0.0322
846.1485	0.0327
846.3136	-0.0573
846.4787	-0.0153
846.6438	-0.0164
846.8088	0.029
846.9738	-0.0096
847.1388	-0.0087
847.3038	0.0033
847.4687	0.0138
847.6337	0.023
847.7986	0.0079
847.9635	0.0076
848.1284	0.0134
848.2932	0.0113
848.458	0.0297
848.6228	0.0234
848.7876	-0.0639
848.9524	0.0308
849.1172	-0.0377
849.2819	0.0187
849.4466	-0.0017
849.6113	-0.007
849.7759	0.0235
849.9406	0.0174
850.1052	0.0353
850.2698	0.0014
850.4344	0.0177
850.599	-0.032
850.7635	0.0334
850.928	-0.0287
851.0925	0.0368
851.257	0.0225
851.4215	0.0226
851.5859	0.0352
851.7503	-0.0316
851.9147	0.038
852.0791	0.0097
852.2434	-0.0016
852.4078	0.0268
852.5721	-0.0443
852.7364	-0.0767
852.9007	0.0147
853.0649	-0.0036
853.2291	0.0135
853.3934	-0.013
853.5575	0.0034
853.7217	-0.0137
853.8859	0.0472
854.05	0.0499
854.2141	0.0241
854.3782	0.0456
854.5423	0.0006
854.7063	0.022
854.8703	0.0039
855.0343	-0.0246
855.1983	-0.01
855.3623	0.0411
855.5262	0.0453
855.6901	0.0352
855.854	-0.0027
856.0179	0.0498
856.1818	-0.0094
856.3456	-0.0119
856.5094	-0.0186
856.6732	-0.0122
856.837	-0.0338
857.0008	0.0107
857.1645	-0.0246
857.3282	0.0295
857.4919	-0.0386
857.6556	0.072
857.8192	0.0551
857.9828	0.0369
858.1465	0.0218
858.31	-0.0625
858.4736	-0.0796
858.6372	0.0159
858.8007	0.0929
858.9642	-0.0592
859.1277	0.0603
859.2911	0.0457
859.4546	0.0565
859.618	0.0128
859.7814	0.0489
859.9448	-0.0932
860.1081	0.0477
860.2715	0.0275
860.4348	-0.0005
860.5981	-0.0248
860.7614	-0.0684
860.9246	-0.0127
861.0879	-0.0816
861.2511	0.0674
861.4143	-0.1239
861.5774	-0.0362
861.7406	-0.0257
861.9037	-0.0658
862.0668	-0.0212
862.2299	-0.1015
862.393	-0.0699
862.556	0.0883
862.7191	-0.0387
862.8821	0.0079
863.0451	-0.0041
863.208	-0.068
863.371	-0.0028
863.5339	-0.049
863.6968	0.0173
863.8597	0.1418
864.0225	-0.2091
864.1854	0.1161
864.3482	-0.0945
864.511	0.0023
864.6737	-0.0275
864.8365	0.0814
864.9992	-0.0142
865.1619	-0.0341
865.3246	-0.015
865.4873	0.2113
865.65	0.0717
865.8126	0.0439
865.9752	-0.1101
866.1378	-0.0356
866.3004	0.1488
866.4629	0.1396
866.6254	0.0654
866.7879	0.0036
866.9504	0.1356
867.1129	-0.0642
867.2753	0.1896
867.4377	0.0074
867.6001	-0
867.7625	0.0486
867.9249	-0.1034
868.0872	-0.0014
868.2495	-0.1848
868.4118	-0.123
868.5741	-0.2129
868.7363	0.3297
868.8986	-0.1125
869.0608	0.0766
869.223	0.0142
869.3851	0.096
869.5473	-0.0358
869.7094	-0.1044
869.8715	0.1466
870.0336	0.121
870.1957	0.1492
870.3577	-0.0655
870.5197	1.7042
870.6817	-0.234
870.8437	-0.1117
871.0057	0.1172
871.1676	0.1467
871.3295	0.1869
871.4914	0.0843
871.6533	0.4285
871.8151	-0.0677
871.977	-0.0835
872.1388	-0.0369
872.3006	-0.226
872.4623	0.0206
872.6241	-0.1336
872.7858	0.201
872.9475	-0.0573
873.1092	-0.0778
873.2709	0.2461
873.4325	-0.1131
873.5941	-0.3348
873.7557	-0.1814
873.9173	0.124
874.0789	-0.1195
874.2404	-0.1076
874.4019	-0.2462
874.5634	-0.0151
874.7249	-0.1044
874.8863	-0.2318
875.0478	-0.1667
875.2092	-0.0974
875.3706	-0.0855
875.5319	-0.0027
875.6933	-0
875.8546	-0.4254
876.0159	0.0279
876.1772	-0.2785
876.3385	-0
876.4997	0.2131
876.6609	0.291
876.8221	-0.0026
876.9833	-0.449
877.1445	-0.0709
877.3056	0.1454
877.4667	-0.2073
877.6278	0.0623
877.7889	0.5549
877.9499	-0.5654
878.111	0.0825
878.272	0.0593
878.433	0.5038
878.5939	0.2709
878.7549	-0.2706
878.9158	-0
879.0767	-0.0117
879.2376	0.1639
879.3984	0.1811
879.5593	0.0147
879.7201	-0
879.8809	1.2187
880.0417	-0.1932
880.2024	0.3982
880.3632	-0.0761
880.5239	-0
880.6846	-0.0563
880.8452	1.0257
881.0059	-0.5448
881.1665	-0
881.3271	0.2226
881.4877	-0.175
881.6483	-0
881.8088	0.9122
881.9693	0.0625
882.1298	0.0625
882.2903	0.0625
