Data from MonoPyChalIsomerACN10uM450nmA_Absorbance_13-11-18-496.txt Node
Date: Tue Jul 09 13:11:18 BST 2024
User: LASERRRRR
Spectrometer: FLMT03099
Trigger mode: 0
Integration Time (sec): 2.000000E-1
Scans to average: 1
Electric dark correction enabled: true
Nonlinearity correction enabled: false
Boxcar width: 0
XAxis mode: Wavelengths
Number of Pixels in Spectrum: 3648
>>>>>Begin Spectral Data<<<<<
179.3399	0.1576
179.5586	0.1576
179.7771	0.1576
179.9957	-0.2423
180.2143	-0
180.4329	0.1512
180.6514	-0.1626
180.8699	-0
181.0885	-0
181.307	-0
181.5255	-0
181.744	-0
181.9625	0.2242
182.181	-0
182.3994	0.5447
182.6179	-0.5429
182.8363	-0
183.0547	0.1049
183.2732	0.1861
183.4916	0.0432
183.71	0.0919
183.9284	0.0197
184.1467	0.0415
184.3651	-0.0351
184.5835	0.132
184.8018	-0.0159
185.0201	0.1261
185.2385	0.0417
185.4568	-0.0333
185.6751	0.064
185.8934	-0.0673
186.1117	0.041
186.3299	0.0972
186.5482	-0.0087
186.7664	-0.0866
186.9847	0.0659
187.2029	0.0838
187.4211	0.0295
187.6393	-0.0905
187.8575	0.1042
188.0757	-0.0431
188.2939	0.0355
188.512	0.0373
188.7302	0.0923
188.9483	0.1379
189.1665	0.1129
189.3846	0.1421
189.6027	0.1872
189.8208	0.0723
190.0389	0.2347
190.257	0.1756
190.475	0.2378
190.6931	0.2027
190.9111	0.2612
191.1292	0.2901
191.3472	0.3496
191.5652	0.2809
191.7832	0.4775
192.0012	0.3607
192.2192	0.3883
192.4371	0.3985
192.6551	0.4308
192.873	0.3483
193.091	0.6099
193.3089	0.4885
193.5268	0.554
193.7447	0.5828
193.9626	0.5123
194.1805	0.6013
194.3984	0.5925
194.6162	0.5363
194.8341	0.4982
195.0519	0.5744
195.2697	0.6289
195.4875	0.5421
195.7054	0.5907
195.9231	0.677
196.1409	0.6611
196.3587	0.5599
196.5765	0.6505
196.7942	0.6827
197.012	0.6024
197.2297	0.6203
197.4474	0.6358
197.6651	0.6551
197.8828	0.7496
198.1005	0.7416
198.3182	0.6854
198.5358	0.7871
198.7535	0.7969
198.9711	0.8534
199.1888	0.8115
199.4064	0.7714
199.624	0.6899
199.8416	0.8525
200.0592	0.8476
200.2767	0.752
200.4943	0.8548
200.7119	0.8656
200.9294	0.8293
201.1469	0.8633
201.3645	0.7896
201.582	0.9168
201.7995	0.7855
202.017	0.9292
202.2344	0.8329
202.4519	0.9256
202.6694	0.8187
202.8868	0.9899
203.1042	0.9782
203.3217	0.8846
203.5391	0.8812
203.7565	0.8824
203.9739	0.8819
204.1913	0.8964
204.4086	0.9201
204.626	1.0479
204.8433	0.8704
205.0607	0.8986
205.278	0.9075
205.4953	1.091
205.7126	0.8708
205.9299	0.9381
206.1472	0.9143
206.3644	0.9302
206.5817	0.9859
206.7989	0.9925
207.0162	1.1296
207.2334	0.9566
207.4506	0.9703
207.6678	1.1189
207.885	1.0901
208.1022	1.0417
208.3194	0.9992
208.5365	1.0389
208.7537	1.1281
208.9708	1.1082
209.1879	1.1202
209.405	1.1002
209.6222	0.9964
209.8392	1.0599
210.0563	1.0444
210.2734	1.0882
210.4905	1.1512
210.7075	1.0123
210.9245	1.0037
211.1416	1.0973
211.3586	1.147
211.5756	1.0672
211.7926	1.0663
212.0096	1.0003
212.2265	1.0275
212.4435	1.0554
212.6604	1.0971
212.8774	1.0278
213.0943	1.0474
213.3112	1.0187
213.5281	1.042
213.745	0.9833
213.9619	0.9455
214.1788	0.9189
214.3956	0.9413
214.6125	0.9183
214.8293	0.8849
215.0461	0.8631
215.2629	0.9464
215.4798	0.8462
215.6965	0.8082
215.9133	0.8109
216.1301	0.8008
216.3469	0.8071
216.5636	0.7925
216.7803	0.7242
216.9971	0.7854
217.2138	0.7065
217.4305	0.7217
217.6472	0.6829
217.8639	0.6472
218.0805	0.6358
218.2972	0.5776
218.5138	0.5516
218.7305	0.485
218.9471	0.4565
219.1637	0.4474
219.3803	0.408
219.5969	0.3901
219.8135	0.3694
220.0301	0.3765
220.2466	0.3687
220.4632	0.3403
220.6797	0.3207
220.8962	0.3147
221.1127	0.3098
221.3292	0.3023
221.5457	0.2844
221.7622	0.2897
221.9787	0.2893
222.1951	0.2794
222.4116	0.2763
222.628	0.2749
222.8444	0.2647
223.0608	0.2738
223.2772	0.2723
223.4936	0.2775
223.71	0.2691
223.9264	0.2785
224.1427	0.2619
224.3591	0.2651
224.5754	0.2635
224.7917	0.2689
225.008	0.2628
225.2243	0.2738
225.4406	0.293
225.6569	0.2859
225.8732	0.3018
226.0894	0.2741
226.3057	0.2801
226.5219	0.2928
226.7381	0.2817
226.9543	0.2902
227.1705	0.2945
227.3867	0.301
227.6029	0.3061
227.8191	0.2947
228.0352	0.3001
228.2513	0.3108
228.4675	0.3044
228.6836	0.3337
228.8997	0.324
229.1158	0.3177
229.3319	0.3155
229.548	0.3355
229.764	0.3161
229.9801	0.3262
230.1961	0.3445
230.4121	0.3241
230.6282	0.3421
230.8442	0.3531
231.0602	0.3356
231.2761	0.3438
231.4921	0.3449
231.7081	0.3723
231.924	0.3568
232.14	0.3667
232.3559	0.3675
232.5718	0.3596
232.7877	0.3523
233.0036	0.371
233.2195	0.3536
233.4353	0.3662
233.6512	0.376
233.867	0.3686
234.0829	0.3918
234.2987	0.3795
234.5145	0.3817
234.7303	0.383
234.9461	0.382
235.1619	0.3815
235.3776	0.3873
235.5934	0.4025
235.8091	0.3903
236.0249	0.3895
236.2406	0.3919
236.4563	0.3941
236.672	0.4069
236.8877	0.3978
237.1034	0.4056
237.319	0.4018
237.5347	0.4112
237.7503	0.4127
237.966	0.4154
238.1816	0.4086
238.3972	0.4131
238.6128	0.4102
238.8284	0.4088
239.0439	0.4203
239.2595	0.4263
239.475	0.4268
239.6906	0.4138
239.9061	0.4004
240.1216	0.4142
240.3371	0.4085
240.5526	0.4199
240.7681	0.4065
240.9836	0.4173
241.199	0.4115
241.4145	0.394
241.6299	0.4018
241.8453	0.4026
242.0607	0.3845
242.2761	0.3866
242.4915	0.3691
242.7069	0.3826
242.9223	0.3736
243.1376	0.3668
243.353	0.359
243.5683	0.3475
243.7836	0.3415
243.9989	0.337
244.2142	0.3221
244.4295	0.3295
244.6448	0.319
244.86	0.3326
245.0753	0.3001
245.2905	0.2992
245.5057	0.3026
245.721	0.2947
245.9362	0.2879
246.1514	0.2814
246.3665	0.2801
246.5817	0.2723
246.7969	0.272
247.012	0.2711
247.2271	0.2608
247.4423	0.2682
247.6574	0.2604
247.8725	0.252
248.0876	0.2526
248.3026	0.2378
248.5177	0.2464
248.7328	0.2326
248.9478	0.2375
249.1628	0.2403
249.3779	0.2312
249.5929	0.2228
249.8079	0.2285
250.0228	0.2339
250.2378	0.2235
250.4528	0.2155
250.6677	0.2203
250.8827	0.205
251.0976	0.2133
251.3125	0.211
251.5274	0.1989
251.7423	0.2161
251.9572	0.2047
252.172	0.2093
252.3869	0.2089
252.6017	0.2024
252.8166	0.2134
253.0314	0.2096
253.2462	0.2096
253.461	0.2047
253.6758	0.1991
253.8906	0.1944
254.1053	0.1979
254.3201	0.2044
254.5348	0.2049
254.7496	0.2
254.9643	0.1961
255.179	0.1928
255.3937	0.2074
255.6083	0.202
255.823	0.1885
256.0377	0.1862
256.2523	0.1953
256.467	0.1965
256.6816	0.1873
256.8962	0.193
257.1108	0.2042
257.3254	0.1987
257.54	0.1941
257.7545	0.1942
257.9691	0.2
258.1836	0.2032
258.3981	0.1978
258.6127	0.204
258.8272	0.1899
259.0417	0.2021
259.2561	0.1893
259.4706	0.1956
259.6851	0.1929
259.8995	0.197
260.114	0.1897
260.3284	0.1953
260.5428	0.1984
260.7572	0.2017
260.9716	0.1929
261.186	0.1992
261.4003	0.1973
261.6147	0.1962
261.829	0.1991
262.0433	0.1997
262.2577	0.1959
262.472	0.1917
262.6863	0.1884
262.9005	0.1974
263.1148	0.1942
263.3291	0.1824
263.5433	0.188
263.7576	0.1842
263.9718	0.1896
264.186	0.1859
264.4002	0.1841
264.6144	0.1832
264.8286	0.1793
265.0427	0.188
265.2569	0.1904
265.471	0.1805
265.6851	0.1736
265.8993	0.1722
266.1134	0.1735
266.3275	0.1821
266.5415	0.1712
266.7556	0.1783
266.9697	0.1767
267.1837	0.1796
267.3978	0.1853
267.6118	0.1834
267.8258	0.1904
268.0398	0.1928
268.2538	0.1919
268.4677	0.1865
268.6817	0.1879
268.8957	0.184
269.1096	0.1893
269.3235	0.1817
269.5374	0.1776
269.7514	0.1591
269.9652	0.1665
270.1791	0.1568
270.393	0.1567
270.6068	0.1529
270.8207	0.1479
271.0345	0.1516
271.2483	0.1565
271.4622	0.1475
271.676	0.1451
271.8897	0.1396
272.1035	0.1355
272.3173	0.1431
272.531	0.1406
272.7448	0.1379
272.9585	0.1362
273.1722	0.1281
273.3859	0.1336
273.5996	0.1301
273.8133	0.1401
274.0269	0.1417
274.2406	0.1417
274.4542	0.1371
274.6679	0.1326
274.8815	0.1403
275.0951	0.1422
275.3087	0.1347
275.5223	0.1286
275.7358	0.139
275.9494	0.1441
276.1629	0.137
276.3765	0.1397
276.59	0.1375
276.8035	0.1379
277.017	0.1367
277.2305	0.1455
277.444	0.1361
277.6574	0.1409
277.8709	0.144
278.0843	0.1473
278.2978	0.1434
278.5112	0.1443
278.7246	0.1358
278.938	0.1379
279.1513	0.1487
279.3647	0.1428
279.5781	0.1395
279.7914	0.1463
280.0047	0.1465
280.2181	0.1403
280.4314	0.1513
280.6447	0.1436
280.8579	0.1441
281.0712	0.1497
281.2845	0.1449
281.4977	0.1428
281.711	0.1456
281.9242	0.1468
282.1374	0.1494
282.3506	0.1373
282.5638	0.1478
282.7769	0.1468
282.9901	0.1494
283.2033	0.155
283.4164	0.1597
283.6295	0.1546
283.8426	0.152
284.0557	0.1478
284.2688	0.1568
284.4819	0.1525
284.695	0.1512
284.908	0.1547
285.1211	0.1623
285.3341	0.1494
285.5471	0.1563
285.7601	0.1513
285.9731	0.154
286.1861	0.1611
286.3991	0.1556
286.612	0.1585
286.825	0.1567
287.0379	0.1621
287.2508	0.1568
287.4637	0.1584
287.6766	0.157
287.8895	0.1621
288.1024	0.1581
288.3152	0.158
288.5281	0.1622
288.7409	0.1527
288.9538	0.1631
289.1666	0.1642
289.3794	0.1527
289.5922	0.1636
289.8049	0.1649
290.0177	0.1668
290.2304	0.1576
290.4432	0.1618
290.6559	0.1585
290.8686	0.1631
291.0813	0.1614
291.294	0.1696
291.5067	0.1612
291.7194	0.1645
291.932	0.1637
292.1447	0.1601
292.3573	0.1631
292.5699	0.1686
292.7825	0.1656
292.9951	0.1664
293.2077	0.158
293.4203	0.1563
293.6328	0.1683
293.8454	0.1598
294.0579	0.1634
294.2704	0.1678
294.4829	0.1625
294.6954	0.1622
294.9079	0.1629
295.1204	0.1607
295.3328	0.1682
295.5453	0.1598
295.7577	0.1557
295.9701	0.1602
296.1825	0.163
296.3949	0.1656
296.6073	0.1614
296.8197	0.1678
297.0321	0.1642
297.2444	0.1568
297.4567	0.1586
297.6691	0.1569
297.8814	0.1595
298.0937	0.1624
298.306	0.1581
298.5182	0.1483
298.7305	0.1632
298.9428	0.157
299.155	0.1592
299.3672	0.1594
299.5794	0.1629
299.7916	0.1621
300.0038	0.1543
300.216	0.1642
300.4282	0.1554
300.6403	0.1595
300.8525	0.1602
301.0646	0.1619
301.2767	0.1588
301.4888	0.1576
301.7009	0.1624
301.913	0.163
302.125	0.161
302.3371	0.1705
302.5491	0.153
302.7612	0.1654
302.9732	0.1657
303.1852	0.1597
303.3972	0.1602
303.6092	0.1565
303.8211	0.1609
304.0331	0.1557
304.245	0.161
304.457	0.163
304.6689	0.1594
304.8808	0.156
305.0927	0.1552
305.3046	0.1512
305.5164	0.1581
305.7283	0.1529
305.9401	0.1516
306.152	0.1449
306.3638	0.1557
306.5756	0.1467
306.7874	0.14
306.9992	0.1461
307.2109	0.1441
307.4227	0.1388
307.6344	0.1267
307.8462	0.1427
308.0579	0.1281
308.2696	0.1342
308.4813	0.1378
308.693	0.1257
308.9046	0.123
309.1163	0.1277
309.328	0.1176
309.5396	0.1185
309.7512	0.1138
309.9628	0.1181
310.1744	0.1186
310.386	0.1148
310.5976	0.1239
310.8091	0.1059
311.0207	0.1149
311.2322	0.1123
311.4437	0.1211
311.6552	0.1069
311.8667	0.1114
312.0782	0.1074
312.2897	0.1066
312.5012	0.1109
312.7126	0.0978
312.924	0.1025
313.1355	0.105
313.3469	0.1041
313.5583	0.1043
313.7696	0.105
313.981	0.0973
314.1924	0.0994
314.4037	0.0976
314.6151	0.0942
314.8264	0.0938
315.0377	0.1008
315.249	0.0982
315.4603	0.1031
315.6716	0.0954
315.8828	0.0961
316.0941	0.0977
316.3053	0.0945
316.5165	0.0858
316.7277	0.0897
316.9389	0.0981
317.1501	0.0915
317.3613	0.0935
317.5724	0.0913
317.7836	0.0922
317.9947	0.0941
318.2058	0.0923
318.417	0.0873
318.6281	0.1019
318.8391	0.0866
319.0502	0.0882
319.2613	0.0976
319.4723	0.099
319.6834	0.0919
319.8944	0.0941
320.1054	0.098
320.3164	0.0954
320.5274	0.0955
320.7383	0.0881
320.9493	0.091
321.1602	0.0969
321.3712	0.0979
321.5821	0.0915
321.793	0.087
322.0039	0.0909
322.2148	0.0993
322.4257	0.0959
322.6365	0.0938
322.8474	0.0918
323.0582	0.1053
323.269	0.0886
323.4798	0.0983
323.6906	0.0954
323.9014	0.0975
324.1122	0.0908
324.3229	0.0919
324.5337	0.0886
324.7444	0.0981
324.9551	0.0996
325.1658	0.1031
325.3765	0.087
325.5872	0.0903
325.7979	0.097
326.0085	0.0996
326.2192	0.1002
326.4298	0.0991
326.6404	0.0933
326.851	0.0872
327.0616	0.0912
327.2722	0.0938
327.4828	0.1006
327.6933	0.0999
327.9039	0.0979
328.1144	0.0957
328.3249	0.1012
328.5354	0.0895
328.7459	0.0979
328.9564	0.0991
329.1669	0.1014
329.3773	0.0975
329.5878	0.0995
329.7982	0.1005
330.0086	0.0988
330.219	0.1005
330.4294	0.0972
330.6398	0.1027
330.8502	0.1014
331.0605	0.1009
331.2708	0.1023
331.4812	0.0993
331.6915	0.0983
331.9018	0.095
332.1121	0.1034
332.3224	0.1035
332.5326	0.0943
332.7429	0.1015
332.9531	0.0982
333.1633	0.1051
333.3735	0.1157
333.5837	0.0989
333.7939	0.1076
334.0041	0.1021
334.2143	0.0997
334.4244	0.1018
334.6346	0.0959
334.8447	0.1072
335.0548	0.1059
335.2649	0.0917
335.475	0.0933
335.685	0.1028
335.8951	0.1042
336.1051	0.1032
336.3152	0.1012
336.5252	0.0999
336.7352	0.1033
336.9452	0.1009
337.1552	0.105
337.3652	0.1082
337.5751	0.1014
337.7851	0.0988
337.995	0.1041
338.2049	0.0991
338.4148	0.1125
338.6247	0.1126
338.8346	0.103
339.0445	0.1054
339.2543	0.109
339.4642	0.109
339.674	0.1021
339.8838	0.1053
340.0936	0.1126
340.3034	0.112
340.5132	0.1072
340.7229	0.1227
340.9327	0.111
341.1424	0.1117
341.3522	0.1132
341.5619	0.1225
341.7716	0.1191
341.9813	0.1239
342.1909	0.1174
342.4006	0.1113
342.6102	0.1167
342.8199	0.1193
343.0295	0.1165
343.2391	0.1271
343.4487	0.1194
343.6583	0.1182
343.8679	0.1063
344.0774	0.1229
344.287	0.1193
344.4965	0.1204
344.706	0.1267
344.9155	0.1312
345.125	0.1301
345.3345	0.1232
345.544	0.1122
345.7534	0.1192
345.9629	0.1267
346.1723	0.1298
346.3817	0.1321
346.5911	0.1299
346.8005	0.1293
347.0099	0.119
347.2193	0.1228
347.4286	0.1328
347.638	0.131
347.8473	0.1265
348.0566	0.1263
348.2659	0.1235
348.4752	0.1314
348.6845	0.1328
348.8937	0.1362
349.103	0.1325
349.3122	0.1337
349.5214	0.1299
349.7306	0.1341
349.9398	0.1251
350.149	0.1323
350.3582	0.1342
350.5674	0.1409
350.7765	0.1332
350.9856	0.1293
351.1948	0.1338
351.4039	0.1333
351.613	0.1312
351.822	0.1379
352.0311	0.1338
352.2402	0.1389
352.4492	0.1463
352.6582	0.1391
352.8672	0.1352
353.0762	0.1558
353.2852	0.1492
353.4942	0.1429
353.7032	0.1486
353.9121	0.145
354.1211	0.1504
354.33	0.1384
354.5389	0.1477
354.7478	0.1481
354.9567	0.1363
355.1655	0.1449
355.3744	0.1549
355.5833	0.1501
355.7921	0.1487
356.0009	0.1453
356.2097	0.1507
356.4185	0.1571
356.6273	0.1585
356.8361	0.15
357.0448	0.1569
357.2536	0.1554
357.4623	0.1491
357.671	0.1576
357.8797	0.1643
358.0884	0.1592
358.2971	0.1613
358.5057	0.16
358.7144	0.1616
358.923	0.1741
359.1316	0.1681
359.3402	0.1694
359.5488	0.1628
359.7574	0.1719
359.966	0.1714
360.1746	0.1761
360.3831	0.1754
360.5916	0.1842
360.8002	0.1757
361.0087	0.1864
361.2172	0.1764
361.4256	0.1793
361.6341	0.1778
361.8426	0.1799
362.051	0.1714
362.2594	0.1789
362.4678	0.178
362.6762	0.1775
362.8846	0.1783
363.093	0.1808
363.3014	0.1946
363.5097	0.179
363.718	0.1949
363.9264	0.1838
364.1347	0.1961
364.343	0.1808
364.5513	0.1843
364.7595	0.1998
364.9678	0.1944
365.176	0.1959
365.3842	0.195
365.5925	0.1927
365.8007	0.1871
366.0089	0.1958
366.217	0.1882
366.4252	0.203
366.6333	0.1982
366.8415	0.2033
367.0496	0.2062
367.2577	0.209
367.4658	0.2018
367.6739	0.2022
367.882	0.2041
368.09	0.2042
368.2981	0.2227
368.5061	0.2056
368.7141	0.2077
368.9221	0.2008
369.1301	0.223
369.3381	0.2159
369.5461	0.2222
369.754	0.2048
369.962	0.2077
370.1699	0.2262
370.3778	0.2095
370.5857	0.2099
370.7936	0.214
371.0015	0.2219
371.2093	0.2059
371.4172	0.2259
371.625	0.2236
371.8328	0.2187
372.0406	0.2352
372.2484	0.2318
372.4562	0.2245
372.664	0.2195
372.8717	0.2197
373.0795	0.2255
373.2872	0.2329
373.4949	0.2268
373.7026	0.221
373.9103	0.2235
374.118	0.2287
374.3256	0.2275
374.5333	0.2324
374.7409	0.2293
374.9485	0.2293
375.1561	0.237
375.3637	0.2286
375.5713	0.2327
375.7789	0.2308
375.9864	0.2365
376.194	0.2372
376.4015	0.2478
376.609	0.2404
376.8165	0.2318
377.024	0.2304
377.2315	0.2403
377.4389	0.2353
377.6464	0.2358
377.8538	0.2389
378.0612	0.2379
378.2686	0.2461
378.476	0.2339
378.6834	0.2482
378.8908	0.2529
379.0981	0.2554
379.3055	0.2435
379.5128	0.2404
379.7201	0.2358
379.9274	0.2532
380.1347	0.2529
380.342	0.2457
380.5492	0.2527
380.7565	0.2586
380.9637	0.2528
381.1709	0.2567
381.3781	0.2465
381.5853	0.2541
381.7925	0.2495
381.9997	0.2544
382.2068	0.2642
382.4139	0.2588
382.6211	0.2513
382.8282	0.2564
383.0353	0.2513
383.2424	0.2519
383.4494	0.2667
383.6565	0.2485
383.8635	0.2657
384.0706	0.2568
384.2776	0.2704
384.4846	0.2621
384.6916	0.2574
384.8986	0.2628
385.1055	0.2684
385.3125	0.2572
385.5194	0.2607
385.7263	0.2715
385.9333	0.2583
386.1402	0.2645
386.347	0.2744
386.5539	0.2546
386.7608	0.252
386.9676	0.2675
387.1744	0.2551
387.3813	0.2506
387.5881	0.2592
387.7948	0.2683
388.0016	0.2621
388.2084	0.2619
388.4151	0.2526
388.6219	0.2619
388.8286	0.2613
389.0353	0.2548
389.242	0.2594
389.4487	0.2416
389.6553	0.2456
389.862	0.2468
390.0686	0.2537
390.2753	0.2453
390.4819	0.2542
390.6885	0.2541
390.8951	0.2485
391.1016	0.2445
391.3082	0.255
391.5147	0.2498
391.7213	0.2384
391.9278	0.2405
392.1343	0.2402
392.3408	0.2269
392.5473	0.2459
392.7537	0.2409
392.9602	0.2325
393.1666	0.2442
393.373	0.2338
393.5794	0.2265
393.7858	0.2389
393.9922	0.2223
394.1986	0.2276
394.4049	0.2452
394.6113	0.2343
394.8176	0.2181
395.0239	0.2323
395.2302	0.2296
395.4365	0.2255
395.6428	0.2071
395.8491	0.2232
396.0553	0.2112
396.2615	0.2286
396.4678	0.2341
396.674	0.221
396.8802	0.2191
397.0863	0.216
397.2925	0.2229
397.4987	0.2251
397.7048	0.2212
397.9109	0.2288
398.117	0.218
398.3231	0.2171
398.5292	0.2146
398.7353	0.228
398.9413	0.2144
399.1474	0.227
399.3534	0.2067
399.5594	0.2151
399.7654	0.2133
399.9714	0.2198
400.1774	0.217
400.3833	0.2159
400.5893	0.2201
400.7952	0.2101
401.0011	0.2212
401.207	0.2112
401.4129	0.2041
401.6188	0.2156
401.8247	0.2119
402.0305	0.2131
402.2364	0.2228
402.4422	0.2117
402.648	0.228
402.8538	0.2249
403.0596	0.2061
403.2654	0.2077
403.4711	0.1987
403.6768	0.2135
403.8826	0.2292
404.0883	0.2099
404.294	0.2198
404.4997	0.2182
404.7054	0.2174
404.911	0.2237
405.1167	0.2162
405.3223	0.2187
405.5279	0.2294
405.7335	0.2233
405.9391	0.2234
406.1447	0.2104
406.3502	0.2228
406.5558	0.2188
406.7613	0.1993
406.9668	0.2149
407.1724	0.214
407.3778	0.2262
407.5833	0.2219
407.7888	0.2318
407.9942	0.2169
408.1997	0.2256
408.4051	0.2101
408.6105	0.2086
408.8159	0.213
409.0213	0.2141
409.2267	0.2226
409.432	0.2188
409.6374	0.2198
409.8427	0.2201
410.048	0.2155
410.2533	0.2019
410.4586	0.2135
410.6639	0.2051
410.8691	0.2182
411.0744	0.214
411.2796	0.2126
411.4848	0.2034
411.69	0.2188
411.8952	0.2104
412.1004	0.2151
412.3056	0.2121
412.5107	0.2129
412.7158	0.2154
412.921	0.2229
413.1261	0.2037
413.3312	0.2261
413.5362	0.2135
413.7413	0.2134
413.9464	0.2196
414.1514	0.2004
414.3564	0.2205
414.5614	0.2131
414.7664	0.2151
414.9714	0.2131
415.1764	0.2082
415.3813	0.2007
415.5863	0.2214
415.7912	0.2077
415.9961	0.208
416.201	0.2065
416.4059	0.2116
416.6108	0.2053
416.8156	0.2079
417.0205	0.2104
417.2253	0.2025
417.4301	0.2093
417.6349	0.2074
417.8397	0.2116
418.0445	0.2025
418.2492	0.2021
418.454	0.203
418.6587	0.2052
418.8634	0.1972
419.0681	0.1998
419.2728	0.201
419.4775	0.1928
419.6822	0.1997
419.8868	0.2059
420.0915	0.2007
420.2961	0.2064
420.5007	0.1988
420.7053	0.1998
420.9099	0.1917
421.1144	0.2022
421.319	0.1898
421.5235	0.2007
421.728	0.1896
421.9325	0.1835
422.137	0.1795
422.3415	0.1916
422.546	0.2047
422.7504	0.1921
422.9549	0.196
423.1593	0.1869
423.3637	0.1903
423.5681	0.1854
423.7725	0.1867
423.9769	0.1872
424.1812	0.1797
424.3856	0.1713
424.5899	0.1824
424.7942	0.1801
424.9985	0.1845
425.2028	0.1726
425.4071	0.1811
425.6113	0.1822
425.8156	0.1742
426.0198	0.1905
426.224	0.1733
426.4282	0.17
426.6324	0.1727
426.8366	0.1669
427.0407	0.1743
427.2449	0.1806
427.449	0.1598
427.6531	0.1729
427.8572	0.1519
428.0613	0.1618
428.2654	0.1665
428.4694	0.1724
428.6735	0.1736
428.8775	0.1587
429.0815	0.1547
429.2855	0.1607
429.4895	0.1478
429.6935	0.1533
429.8975	0.1603
430.1014	0.1419
430.3053	0.1427
430.5093	0.1544
430.7132	0.1525
430.9171	0.1483
431.1209	0.1513
431.3248	0.1448
431.5286	0.1478
431.7325	0.1376
431.9363	0.1337
432.1401	0.1368
432.3439	0.1291
432.5477	0.1313
432.7514	0.1351
432.9552	0.1285
433.1589	0.1364
433.3627	0.1281
433.5664	0.1313
433.7701	0.1255
433.9737	0.1108
434.1774	0.1246
434.3811	0.1096
434.5847	0.1176
434.7883	0.108
434.9919	0.1061
435.1955	0.1006
435.3991	0.1077
435.6027	0.1091
435.8062	0.1153
436.0098	0.1122
436.2133	0.0989
436.4168	0.1082
436.6203	0.1096
436.8238	0.0934
437.0272	0.0977
437.2307	0.0983
437.4341	0.1001
437.6375	0.1015
437.841	0.0903
438.0443	0.0925
438.2477	0.0907
438.4511	0.1032
438.6545	0.0926
438.8578	0.0888
439.0611	0.0844
439.2644	0.0927
439.4677	0.0811
439.671	0.0814
439.8743	0.0904
440.0775	0.0731
440.2808	0.0666
440.484	0.0805
440.6872	0.0617
440.8904	0.0739
441.0936	0.0707
441.2967	0.0678
441.4999	0.0601
441.703	0.066
441.9062	0.0661
442.1093	0.064
442.3124	0.0624
442.5155	0.0649
442.7185	0.0541
442.9216	0.0557
443.1246	0.0639
443.3276	0.063
443.5307	0.0505
443.7337	0.053
443.9366	0.0603
444.1396	0.0532
444.3426	0.0538
444.5455	0.0457
444.7484	0.0494
444.9513	0.045
445.1542	0.0487
445.3571	0.045
445.56	0.0454
445.7628	0.0436
445.9657	0.053
446.1685	0.0451
446.3713	0.0433
446.5741	0.0536
446.7769	0.0451
446.9797	0.0392
447.1824	0.0384
447.3852	0.0439
447.5879	0.0396
447.7906	0.0442
447.9933	0.0268
448.196	0.0538
448.3986	0.0275
448.6013	0.0327
448.8039	0.0323
449.0066	0.0242
449.2092	0.0234
449.4118	0.0347
449.6143	0.0287
449.8169	0.0186
450.0195	0.0218
450.222	0.016
450.4245	0.0155
450.627	0.0329
450.8295	0.0159
451.032	0.0311
451.2345	0.0157
451.4369	0.0319
451.6394	0.0144
451.8418	0.0167
452.0442	0.012
452.2466	0.0255
452.449	0.0187
452.6513	0.0268
452.8537	0.0322
453.056	0.0173
453.2583	0.0144
453.4607	0.0158
453.663	0.0256
453.8652	0.021
454.0675	0.0213
454.2697	0.0136
454.472	0.0212
454.6742	0.0183
454.8764	0.025
455.0786	0.0262
455.2808	0.0133
455.4829	0.0079
455.6851	0.0036
455.8872	0.0021
456.0893	0.0082
456.2915	0.0022
456.4935	0.0114
456.6956	0.014
456.8977	0.0156
457.0997	0.0041
457.3018	0.0018
457.5038	0.0058
457.7058	0.0026
457.9078	0.0013
458.1098	0.0063
458.3117	0.0095
458.5137	0.0087
458.7156	0.0104
458.9175	0.0028
459.1194	0.0069
459.3213	0.0078
459.5232	-0.0036
459.725	-0.0076
459.9269	0.0042
460.1287	0.0039
460.3305	-0.0036
460.5323	0.007
460.7341	0.0108
460.9359	-0
461.1376	0.0068
461.3394	-0.0069
461.5411	0.0031
461.7428	-0.0045
461.9445	-0.0065
462.1462	-0.005
462.3479	-0.0033
462.5495	0.0075
462.7512	-0.0043
462.9528	0.0024
463.1544	0.0076
463.356	0.0045
463.5576	-0.0067
463.7592	-0.0037
463.9607	0.0025
464.1623	0.01
464.3638	-0.0016
464.5653	-0.0014
464.7668	0.0014
464.9683	0.0077
465.1697	0.0007
465.3712	0.0012
465.5726	-0.0022
465.7741	-0.0102
465.9755	-0.0021
466.1769	-0.0113
466.3782	-0.004
466.5796	-0.0007
466.7809	-0.0001
466.9823	-0.0076
467.1836	0.0019
467.3849	-0.0003
467.5862	-0.0054
467.7875	-0.0053
467.9887	0.0006
468.19	-0.0077
468.3912	-0.0007
468.5924	0.0043
468.7936	-0.0138
468.9948	0.0058
469.196	0.0002
469.3972	-0.001
469.5983	0.0144
469.7994	-0.0059
470.0006	-0.0081
470.2017	-0.0015
470.4027	-0.0134
470.6038	-0.0018
470.8049	-0.0034
471.0059	0.0024
471.2069	0.0082
471.408	-0.0042
471.6089	-0.004
471.8099	-0.0031
472.0109	-0.0077
472.2119	-0.0055
472.4128	0.0007
472.6137	-0.011
472.8146	-0.0137
473.0155	-0.0076
473.2164	-0.0136
473.4173	-0.013
473.6181	0.0045
473.819	-0.0037
474.0198	-0.0082
474.2206	0.001
474.4214	0.0015
474.6222	-0.0101
474.8229	-0.0119
475.0237	-0.007
475.2244	-0.0022
475.4251	-0.0049
475.6258	0.003
475.8265	-0.0029
476.0272	-0.0036
476.2278	-0.0043
476.4285	0.0017
476.6291	-0.0056
476.8297	-0.0043
477.0303	-0.0141
477.2309	-0.0015
477.4315	-0.0016
477.632	-0.0141
477.8326	-0.0041
478.0331	-0.0081
478.2336	-0.0039
478.4341	-0.0106
478.6346	0.0028
478.8351	-0.0054
479.0355	-0.0067
479.236	-0.0069
479.4364	-0.0068
479.6368	0.006
479.8372	-0.0057
480.0376	-0.007
480.2379	-0.0028
480.4383	-0.0046
480.6386	-0.0122
480.8389	-0.0065
481.0392	-0.0057
481.2395	-0.0131
481.4398	-0.0019
481.6401	-0.0089
481.8403	-0.002
482.0405	-0.0085
482.2408	0.0018
482.441	-0.0052
482.6411	-0.0019
482.8413	-0.0049
483.0415	-0.0091
483.2416	-0.0069
483.4417	-0.0096
483.6419	-0.0016
483.8419	-0.0138
484.042	-0.0049
484.2421	-0.0073
484.4422	-0.0096
484.6422	-0.0107
484.8422	-0.0102
485.0422	-0.0138
485.2422	-0.0069
485.4422	0.0013
485.6422	-0.0061
485.8421	-0.0055
486.042	-0.0001
486.242	-0.0115
486.4419	-0.0161
486.6417	-0.0053
486.8416	-0.0004
487.0415	-0.0075
487.2413	-0.0061
487.4411	0.0008
487.641	-0.003
487.8408	-0.0127
488.0405	-0.0115
488.2403	-0.0061
488.4401	-0.008
488.6398	-0.0041
488.8395	-0.0072
489.0392	-0.0035
489.2389	-0.0082
489.4386	-0.0066
489.6383	-0.0041
489.8379	-0.0026
490.0376	-0.0062
490.2372	-0.0048
490.4368	-0.01
490.6364	-0.0058
490.836	-0.0146
491.0355	-0.0053
491.2351	-0.0096
491.4346	-0.0081
491.6341	-0.0045
491.8336	-0.0091
492.0331	-0.0085
492.2326	-0.0116
492.432	-0.0091
492.6315	-0.0089
492.8309	-0.0042
493.0303	-0.0014
493.2297	-0.0002
493.4291	-0.0052
493.6284	-0.0019
493.8278	-0.0043
494.0271	-0.0027
494.2264	0.0012
494.4257	0.0016
494.625	-0.0025
494.8243	-0.0067
495.0236	-0.0143
495.2228	-0.0102
495.422	-0.0048
495.6213	-0.0167
495.8205	-0.0036
496.0196	-0.0064
496.2188	-0.0018
496.418	-0.0016
496.6171	-0.0062
496.8162	-0.0048
497.0153	-0.0028
497.2144	-0.0086
497.4135	-0.0037
497.6126	-0.0077
497.8116	0.0022
498.0107	-0.0021
498.2097	-0.0053
498.4087	-0.0059
498.6077	-0.0042
498.8067	-0.0088
499.0056	-0.0004
499.2046	0.0003
499.4035	-0.0098
499.6024	-0.002
499.8013	-0.0025
500.0002	-0.0062
500.199	-0.0093
500.3979	-0.0041
500.5967	-0.0037
500.7956	-0.015
500.9944	-0.0087
501.1932	-0.0085
501.3919	-0.0102
501.5907	-0.0045
501.7895	-0.0013
501.9882	-0.0168
502.1869	-0.0093
502.3856	-0.0014
502.5843	-0.0162
502.783	-0.0099
502.9816	-0.0036
503.1803	-0.003
503.3789	-0.0029
503.5775	-0.005
503.7761	-0.0059
503.9747	-0.0056
504.1732	-0.0006
504.3718	-0.0067
504.5703	-0.0037
504.7689	-0.0037
504.9674	-0.0044
505.1658	-0.0066
505.3643	-0.0036
505.5628	0.0049
505.7612	-0.009
505.9597	-0.0041
506.1581	-0.003
506.3565	-0.0078
506.5549	-0.0034
506.7532	-0.0087
506.9516	0.0022
507.1499	-0.0039
507.3482	-0.0136
507.5465	0.0012
507.7448	-0.0052
507.9431	-0.0023
508.1414	-0.0117
508.3396	-0.0029
508.5379	-0.0076
508.7361	0.0048
508.9343	-0.0045
509.1325	-0.009
509.3306	-0.0009
509.5288	0.0008
509.7269	-0.0125
509.9251	-0.0049
510.1232	0.0004
510.3213	-0.0118
510.5193	-0.0005
510.7174	-0.0023
510.9154	-0.004
511.1135	-0.0036
511.3115	-0.0116
511.5095	-0.0095
511.7075	0.001
511.9055	0.0002
512.1034	-0.0071
512.3014	-0.0062
512.4993	-0.0098
512.6972	-0.0013
512.8951	-0.0088
513.093	-0.013
513.2908	-0.0018
513.4887	-0.0024
513.6865	-0.01
513.8844	-0.0064
514.0822	-0.0072
514.2799	-0.0068
514.4777	-0.0052
514.6755	-0.0026
514.8732	-0.0123
515.0709	-0.0049
515.2687	-0.0127
515.4664	-0.0064
515.664	-0.0083
515.8617	-0.0048
516.0594	-0.0064
516.257	-0.0032
516.4546	-0.0124
516.6522	-0.0057
516.8498	-0.015
517.0474	0.0009
517.2449	-0.0088
517.4425	-0.0073
517.64	-0.0083
517.8375	-0.0052
518.035	-0.0043
518.2325	-0.0052
518.43	0.0017
518.6274	-0.0098
518.8249	-0.005
519.0223	-0.0049
519.2197	-0.0006
519.4171	-0.0021
519.6145	-0.0037
519.8118	-0.0159
520.0092	-0.0004
520.2065	-0.0115
520.4038	-0.005
520.6011	-0.0071
520.7984	-0.008
520.9956	-0.006
521.1929	-0.0113
521.3901	-0.0133
521.5874	-0.0117
521.7846	-0.0018
521.9818	-0.0055
522.1789	-0.0048
522.3761	-0.0036
522.5732	-0.0013
522.7704	-0.0048
522.9675	-0.0067
523.1646	-0.0052
523.3617	-0.0015
523.5587	-0.0068
523.7558	-0.0024
523.9528	-0.0027
524.1498	-0.0066
524.3468	-0.0103
524.5438	-0.0071
524.7408	-0.015
524.9378	-0.0077
525.1347	0.0011
525.3316	-0.0019
525.5285	-0.0039
525.7254	-0.0146
525.9223	0.0015
526.1192	-0.0073
526.316	-0.0024
526.5129	-0.0023
526.7097	-0.0123
526.9065	-0.002
527.1033	-0.0012
527.3	-0.0042
527.4968	-0.0147
527.6935	-0.0013
527.8903	-0.0026
528.087	-0.0156
528.2837	-0.0024
528.4804	-0.0075
528.677	-0.0075
528.8737	-0.0045
529.0703	-0.0027
529.2669	0.0026
529.4635	-0.0097
529.6601	0.0006
529.8567	-0.004
530.0532	-0.0045
530.2498	-0.0038
530.4463	-0.003
530.6428	-0.0042
530.8393	0.0007
531.0358	-0.008
531.2322	-0.0087
531.4287	-0.0161
531.6251	-0.0032
531.8215	0.0016
532.0179	-0.008
532.2143	-0.0033
532.4107	-0.0036
532.607	-0.0078
532.8034	-0.0064
532.9997	-0.0043
533.196	-0.003
533.3923	-0.0036
533.5886	-0.0073
533.7848	0.0004
533.9811	-0.0031
534.1773	-0.0129
534.3735	-0.0031
534.5697	-0.0053
534.7659	-0.0029
534.9621	-0.0009
535.1582	-0.0073
535.3544	-0.0087
535.5505	-0.0063
535.7466	-0.0018
535.9427	-0.0016
536.1387	0.0043
536.3348	-0.001
536.5308	0.0023
536.7269	0.0002
536.9229	-0.0081
537.1189	-0.0085
537.3148	0.0015
537.5108	0.0028
537.7068	-0.0081
537.9027	-0.0067
538.0986	-0.0022
538.2945	-0.0044
538.4904	0.001
538.6863	-0.0029
538.8821	-0.0049
539.078	-0.013
539.2738	-0.0044
539.4696	-0.0068
539.6654	-0.0014
539.8611	-0.0051
540.0569	-0.0068
540.2526	-0.0014
540.4484	0.0014
540.6441	-0.0006
540.8398	-0.0053
541.0355	-0.0016
541.2311	-0.0013
541.4268	-0.0045
541.6224	0.0018
541.818	-0.0032
542.0136	-0.004
542.2092	-0.0043
542.4048	-0.0036
542.6003	-0.0064
542.7959	0.0015
542.9914	-0.0068
543.1869	-0.0112
543.3824	-0.012
543.5779	-0.0098
543.7734	-0.0034
543.9688	-0.0189
544.1642	-0.0092
544.3596	-0.0061
544.555	-0.0089
544.7504	-0.0095
544.9458	-0.0075
545.1411	-0.0026
545.3365	-0.0057
545.5318	-0.0005
545.7271	0.0041
545.9224	-0.0034
546.1177	-0.0136
546.3129	-0.004
546.5081	-0.0022
546.7034	-0.0075
546.8986	-0.0063
547.0938	-0.005
547.289	-0.0051
547.4841	-0.0043
547.6793	-0.0078
547.8744	-0.0009
548.0695	-0.0038
548.2646	-0.0103
548.4597	0.0035
548.6548	-0.0043
548.8498	-0.006
549.0448	-0.0025
549.2399	-0.0021
549.4349	-0.0028
549.6298	-0.0041
549.8248	0.0007
550.0198	-0.007
550.2147	-0.0008
550.4096	-0.0031
550.6045	-0.0054
550.7994	0.0007
550.9943	-0.0021
551.1892	-0.0066
551.384	-0.0063
551.5788	-0.0121
551.7737	-0.0023
551.9685	-0.0054
552.1632	-0.0019
552.358	-0.0058
552.5528	-0.0074
552.7475	-0.0149
552.9422	-0.0027
553.1369	-0.0088
553.3316	-0.002
553.5263	-0.0044
553.7209	-0.0082
553.9156	-0.002
554.1102	-0.0105
554.3048	-0.003
554.4994	-0.0015
554.694	-0.0007
554.8885	-0.006
555.0831	0.0008
555.2776	-0.0018
555.4721	-0.0091
555.6666	-0.0085
555.8611	-0.0056
556.0555	-0.0052
556.25	-0.0017
556.4444	-0.0031
556.6388	-0.0031
556.8332	-0.0087
557.0276	-0.0048
557.222	-0.0095
557.4163	0.002
557.6107	-0.0017
557.805	-0.0054
557.9993	-0.0029
558.1936	-0.0068
558.3879	0.0048
558.5821	-0.0049
558.7764	-0.0088
558.9706	-0.0045
559.1648	-0.0025
559.359	-0.0083
559.5532	-0.0052
559.7473	-0.0107
559.9415	-0.0008
560.1356	-0.0108
560.3297	-0.008
560.5238	-0.0068
560.7179	-0.0033
560.9119	0.0038
561.106	0.004
561.3	-0.0007
561.494	-0.0108
561.688	-0.001
561.882	-0.0094
562.076	-0.0033
562.2699	-0.0017
562.4639	-0.0037
562.6578	-0.0082
562.8517	-0.0028
563.0456	-0.0019
563.2395	-0.0073
563.4333	-0.0021
563.6272	-0.0047
563.821	-0.0032
564.0148	-0.0008
564.2086	-0.0031
564.4024	-0.005
564.5961	0.0029
564.7899	0.0005
564.9836	0.0002
565.1773	-0.005
565.371	-0.0035
565.5647	-0.0049
565.7584	0.0017
565.952	-0.0034
566.1456	-0.0059
566.3393	-0.0053
566.5329	-0.0053
566.7264	0.0007
566.92	0.0005
567.1136	-0.0024
567.3071	0.0013
567.5006	0.0001
567.6941	-0.0017
567.8876	-0.0031
568.0811	-0.0043
568.2745	-0.0063
568.468	-0.0062
568.6614	-0.0064
568.8548	-0.0096
569.0482	-0.0051
569.2416	-0.0025
569.4349	-0.0052
569.6283	-0.0064
569.8216	-0.0052
570.0149	-0.0092
570.2082	-0.0067
570.4015	-0.0046
570.5947	-0.0017
570.788	-0.0053
570.9812	-0.004
571.1744	-0.0056
571.3676	-0.0081
571.5608	-0.0075
571.754	-0.0065
571.9471	-0.0032
572.1402	-0.0069
572.3333	-0.003
572.5264	-0.0041
572.7195	-0.0017
572.9126	-0.0069
573.1057	-0.0018
573.2987	-0.0011
573.4917	-0.0053
573.6847	0.0023
573.8777	-0.009
574.0707	-0.0029
574.2636	-0.0054
574.4566	-0.001
574.6495	-0.0015
574.8424	-0.0038
575.0353	-0.0042
575.2281	-0.004
575.421	-0.0087
575.6138	-0.0009
575.8067	-0.0002
575.9995	-0.0027
576.1923	-0.0082
576.385	-0.0051
576.5778	0.0041
576.7706	0.0016
576.9633	-0.0018
577.156	0.0007
577.3487	-0.001
577.5414	-0.0012
577.734	0.0024
577.9267	0.0049
578.1193	-0.008
578.3119	0.0012
578.5045	-0.0052
578.6971	0.0009
578.8897	-0.0058
579.0822	0.0005
579.2747	0.002
579.4673	-0.0018
579.6598	-0.0036
579.8522	-0.0011
580.0447	0.0002
580.2372	0
580.4296	0.0051
580.622	0.0007
580.8144	-0.0025
581.0068	-0.0013
581.1992	0.0044
581.3915	0.0006
581.5839	-0.004
581.7762	-0.0031
581.9685	-0.0026
582.1608	-0.0063
582.353	-0
582.5453	-0.0086
582.7375	-0.0018
582.9298	-0.004
583.122	0.0004
583.3142	0.0007
583.5063	0.0003
583.6985	-0.0034
583.8906	-0.0014
584.0827	-0.0048
584.2749	-0.0057
584.4669	-0.0067
584.659	-0.0077
584.8511	-0.0027
585.0431	-0.0024
585.2352	-0.0037
585.4272	-0.0064
585.6192	-0.009
585.8111	-0.0072
586.0031	-0.0016
586.195	-0.0055
586.387	-0.0019
586.5789	-0.0047
586.7708	-0.0036
586.9627	-0.0007
587.1545	-0.0036
587.3464	-0.0076
587.5382	-0.0012
587.73	-0.0039
587.9218	-0.0066
588.1136	-0.002
588.3053	-0.0047
588.4971	-0.0097
588.6888	-0.0064
588.8805	-0.0018
589.0722	0.0013
589.2639	-0.0017
589.4556	-0.0021
589.6472	-0.0001
589.8389	-0.0004
590.0305	-0.0038
590.2221	-0.0029
590.4137	-0.0022
590.6052	-0.0047
590.7968	-0.001
590.9883	0.0015
591.1798	-0.0039
591.3713	-0.0003
591.5628	-0.0034
591.7543	-0.0044
591.9458	-0.0015
592.1372	-0.005
592.3286	-0.0014
592.52	-0.0038
592.7114	0.0032
592.9028	-0.0047
593.0941	-0.0029
593.2855	-0.0016
593.4768	-0.0014
593.6681	0.0036
593.8594	0.0068
594.0506	-0.001
594.2419	0.0028
594.4331	-0.0057
594.6244	-0.001
594.8156	-0.0082
595.0067	-0.004
595.1979	-0.0032
595.3891	-0.0031
595.5802	-0.0041
595.7713	-0.0036
595.9624	0.0048
596.1535	0.0026
596.3446	-0.0037
596.5357	0.0035
596.7267	-0.0034
596.9177	-0.0001
597.1087	0.0018
597.2997	0.0004
597.4907	-0.0003
597.6817	-0.0026
597.8726	-0.003
598.0635	-0.0041
598.2544	-0.0014
598.4453	-0.0038
598.6362	-0.0046
598.827	-0.0043
599.0179	-0.0025
599.2087	-0.0114
599.3995	-0.0088
599.5903	0.0008
599.7811	-0.0043
599.9718	-0.0022
600.1626	-0.0032
600.3533	-0.0068
600.544	-0.0023
600.7347	0.0036
600.9254	-0.0028
601.116	-0.0091
601.3067	-0.0039
601.4973	-0.0049
601.6879	-0.0012
601.8785	-0.0016
602.0691	-0.0017
602.2596	-0.0027
602.4502	-0.0032
602.6407	0.0001
602.8312	-0.0056
603.0217	-0.0022
603.2122	-0.0019
603.4027	0.0008
603.5931	-0.0034
603.7835	-0.0062
603.9739	-0.0003
604.1643	-0.0025
604.3547	-0.0031
604.5451	-0.0021
604.7354	-0.0027
604.9257	-0.0048
605.116	-0.0031
605.3063	0.0003
605.4966	0.0003
605.6869	-0.0022
605.8771	-0.0024
606.0673	-0.0003
606.2575	-0.004
606.4477	-0.0088
606.6379	-0.0123
606.8281	-0.0072
607.0182	-0.0081
607.2083	-0.0076
607.3985	-0.0079
607.5885	-0.0003
607.7786	-0.0046
607.9687	0.0015
608.1587	-0.0059
608.3488	-0.006
608.5388	-0.0012
608.7288	-0.0077
608.9187	-0.0049
609.1087	-0.0046
609.2986	-0.0015
609.4886	-0.0009
609.6785	-0.0046
609.8684	-0.0012
610.0582	-0.0034
610.2481	-0.0036
610.4379	-0.0039
610.6278	0.0015
610.8176	0.0012
611.0074	-0.0049
611.1971	-0.0029
611.3869	-0.0037
611.5766	-0.001
611.7664	0.0076
611.9561	-0.0026
612.1458	0.0018
612.3354	-0.0061
612.5251	-0.008
612.7147	-0.0004
612.9044	-0.0083
613.094	0.0017
613.2836	-0.0076
613.4731	-0.007
613.6627	-0.0059
613.8522	-0.0058
614.0417	-0.0069
614.2313	-0.0019
614.4207	-0.0033
614.6102	0.0025
614.7997	-0.004
614.9891	-0.005
615.1785	-0.0048
615.3679	0.0034
615.5573	0.0024
615.7467	0.0012
615.9361	-0.0004
616.1254	-0.0019
616.3147	-0.0017
616.504	-0.0003
616.6933	-0.0009
616.8826	-0.0058
617.0718	-0.0024
617.2611	-0.0001
617.4503	0.0001
617.6395	-0.0043
617.8287	-0.0007
618.0179	0.0016
618.207	-0.0063
618.3961	-0.0001
618.5853	-0.0036
618.7744	-0.006
618.9634	0.0048
619.1525	-0.008
619.3416	-0.0065
619.5306	-0
619.7196	-0.0012
619.9086	-0.0036
620.0976	-0.0063
620.2866	0.0055
620.4755	-0.0074
620.6645	-0.0018
620.8534	-0.0003
621.0423	-0.0062
621.2312	-0.0097
621.42	-0.0011
621.6089	0.0005
621.7977	0.0021
621.9865	0.0028
622.1753	-0.0011
622.3641	-0.0006
622.5529	0.0013
622.7416	-0.0014
622.9303	0.0042
623.1191	-0.0006
623.3078	0.005
623.4964	-0.0021
623.6851	0.0009
623.8737	-0.0023
624.0624	0.002
624.251	-0.0031
624.4396	-0.0004
624.6282	-0.0048
624.8167	-0
625.0053	0.0008
625.1938	-0.0018
625.3823	-0.0023
625.5708	0.0009
625.7593	-0.0009
625.9477	-0.0073
626.1362	-0.003
626.3246	-0.0051
626.513	-0.0083
626.7014	-0.0019
626.8898	-0.0016
627.0781	-0.0026
627.2665	-0.0008
627.4548	-0.0099
627.6431	-0.0038
627.8314	0.0004
628.0197	-0.0002
628.2079	0.0013
628.3962	0.0029
628.5844	0.0011
628.7726	-0.0011
628.9608	-0.0008
629.1489	0.0006
629.3371	0.0001
629.5252	0.0044
629.7134	0.0016
629.9015	-0.0029
630.0895	-0.0021
630.2776	0.0002
630.4657	-0.0016
630.6537	-0.0025
630.8417	-0.001
631.0297	-0.0005
631.2177	-0.0001
631.4057	0.0019
631.5936	0.0021
631.7815	-0.0055
631.9695	-0.0022
632.1574	-0.0025
632.3452	-0.0071
632.5331	-0.0032
632.7209	-0.009
632.9088	-0.0078
633.0966	-0.0055
633.2844	-0.0031
633.4722	-0.0014
633.6599	0.0008
633.8477	-0.0017
634.0354	-0.0099
634.2231	-0.0063
634.4108	-0.0017
634.5985	-0.0008
634.7861	-0.0067
634.9738	-0.0036
635.1614	-0.003
635.349	-0.0018
635.5366	-0.0004
635.7242	0.0001
635.9117	0.0011
636.0993	-0.0042
636.2868	-0.0024
636.4743	0.0006
636.6618	-0.0058
636.8492	-0.0033
637.0367	-0.0005
637.2241	-0.0039
637.4115	-0.0079
637.5989	0.003
637.7863	-0.0013
637.9737	-0.0093
638.161	0.0006
638.3484	-0.004
638.5357	0.0024
638.723	-0.0025
638.9103	0.0006
639.0975	0.0021
639.2848	0.0016
639.472	-0.0015
639.6592	0.0036
639.8464	-0.0012
640.0336	-0.0009
640.2208	0.0003
640.4079	-0.0031
640.595	0.0031
640.7821	-0.0026
640.9692	0.001
641.1563	0.0022
641.3434	-0.0018
641.5304	-0.0011
641.7174	0.0053
641.9044	0.0052
642.0914	0.0017
642.2784	0.0045
642.4653	0.0041
642.6523	-0.0083
642.8392	0.004
643.0261	0.0063
643.213	0.0048
643.3999	0.0007
643.5867	-0.0009
643.7735	0.0006
643.9604	-0.0009
644.1472	-0.0002
644.3339	-0.0027
644.5207	-0.0029
644.7075	-0.0068
644.8942	-0.0022
645.0809	-0.0007
645.2676	-0.0033
645.4543	0.0025
645.6409	0.0007
645.8276	-0.001
646.0142	-0.0091
646.2008	-0.0078
646.3874	-0.0018
646.574	-0.003
646.7605	-0.0019
646.9471	-0.0101
647.1336	-0.0047
647.3201	-0.0068
647.5066	0.0007
647.6931	-0.0008
647.8795	-0.0054
648.0659	-0.0018
648.2524	-0.0039
648.4388	-0.0023
648.6252	-0.001
648.8115	-0.0091
648.9979	-0.004
649.1842	-0.01
649.3705	-0.0018
649.5568	-0.0006
649.7431	-0.0039
649.9294	-0.0011
650.1156	-0.0039
650.3018	-0.0069
650.488	-0.0081
650.6742	-0.0069
650.8604	0.0027
651.0466	-0.0017
651.2327	-0.0002
651.4188	-0.0022
651.6049	0.0004
651.791	0.0022
651.9771	-0.0008
652.1632	-0.0006
652.3492	0.0009
652.5352	-0.0021
652.7212	-0.0011
652.9072	0.0013
653.0932	0.0034
653.2791	0.0024
653.465	0.0004
653.651	-0.001
653.8369	-0.0015
654.0227	-0.005
654.2086	0.0011
654.3944	-0.0099
654.5803	-0.0036
654.7661	-0.0065
654.9519	-0.0025
655.1377	-0.0034
655.3234	-0.0001
655.5092	-0.0001
655.6949	-0.0001
655.8806	-0.0001
656.0663	-0.0001
656.2519	-0.0001
656.4376	-0.0039
656.6232	-0.0073
656.8088	0.0016
656.9945	-0.0017
657.18	-0.0035
657.3656	-0.0022
657.5511	-0.0012
657.7367	-0.0081
657.9222	0.003
658.1077	0.0011
658.2932	-0.0032
658.4786	-0.0037
658.6641	-0.004
658.8495	0.0011
659.0349	-0.0059
659.2203	-0.0097
659.4057	-0.0044
659.591	-0.0035
659.7764	-0.0022
659.9617	-0.0063
660.147	-0.003
660.3323	-0.0029
660.5176	-0.0079
660.7028	-0.0039
660.888	-0.0018
661.0733	-0.0005
661.2585	-0.0056
661.4436	0.0001
661.6288	-0.0045
661.8139	0.0066
661.9991	-0.0032
662.1842	-0.0021
662.3693	-0.0015
662.5544	0.0001
662.7394	0.0021
662.9245	-0.0002
663.1095	0.005
663.2945	-0.0017
663.4795	-0.0034
663.6644	-0.009
663.8494	-0.0037
664.0343	-0.0061
664.2193	-0.0061
664.4042	-0.0057
664.589	-0.0056
664.7739	-0.0044
664.9587	0.0027
665.1436	0.0033
665.3284	-0.0004
665.5132	0.0014
665.698	0.0064
665.8827	0.005
666.0675	-0.0045
666.2522	-0.0089
666.4369	-0.0038
666.6216	-0.0137
666.8063	-0.0054
666.9909	-0.0122
667.1756	-0.0065
667.3602	-0.0072
667.5448	-0.0084
667.7294	-0.0037
667.9139	-0.005
668.0985	-0.009
668.283	-0.0067
668.4675	-0.0161
668.652	-0.0133
668.8365	-0.007
669.0209	-0.0139
669.2054	-0.0055
669.3898	-0.004
669.5742	-0.0077
669.7586	-0.0053
669.943	-0.0079
670.1273	-0.0084
670.3117	-0.0043
670.496	-0.0047
670.6803	0.0016
670.8646	-0.0051
671.0488	-0.0029
671.2331	-0.0017
671.4173	-0.0059
671.6015	0.0003
671.7857	-0.0063
671.9699	-0.0042
672.1541	-0.0025
672.3382	-0.0059
672.5223	-0.0079
672.7064	-0.0071
672.8905	-0.014
673.0746	-0.0063
673.2587	-0.0156
673.4427	-0.0165
673.6267	-0.0145
673.8107	-0.0097
673.9947	-0.0131
674.1787	-0.0072
674.3626	-0.0053
674.5465	-0.0068
674.7304	-0.0023
674.9143	-0.0039
675.0982	-0.0009
675.2821	-0.0048
675.4659	-0.005
675.6497	0.0028
675.8335	-0.0045
676.0173	-0.0066
676.2011	-0.0044
676.3849	-0.0037
676.5686	0.0002
676.7523	-0.0051
676.936	-0.0041
677.1197	0.0008
677.3034	-0.0087
677.487	-0.0058
677.6706	-0.0011
677.8542	-0.0013
678.0378	-0.0012
678.2214	-0.0082
678.405	-0.0053
678.5885	-0.0074
678.772	-0.0058
678.9555	-0.0024
679.139	-0.005
679.3225	-0.0119
679.5059	-0.007
679.6894	-0.0038
679.8728	-0.0032
680.0562	0.0004
680.2395	-0.003
680.4229	0.0013
680.6062	0.0032
680.7896	-0.0028
680.9729	0.001
681.1562	0.0005
681.3394	-0.0016
681.5227	-0
681.7059	-0.003
681.8891	-0.0024
682.0723	-0.007
682.2555	-0.0031
682.4387	-0.0002
682.6218	-0.0026
682.805	-0.0068
682.9881	-0.0018
683.1712	-0.0001
683.3542	-0.0001
683.5373	0.0006
683.7203	0.0015
683.9034	0.0041
684.0864	-0.0067
684.2694	-0.0058
684.4523	-0.0053
684.6353	-0.0019
684.8182	-0.0009
685.0011	-0.002
685.184	-0.0026
685.3669	-0.0055
685.5498	-0.0022
685.7326	0.0018
685.9154	-0.0026
686.0982	-0.0041
686.281	-0.0061
686.4638	-0.006
686.6465	-0.0067
686.8293	-0.0039
687.012	0.0009
687.1947	-0.0084
687.3774	-0.001
687.56	-0.0047
687.7427	-0.0037
687.9253	-0.0026
688.1079	0.0022
688.2905	-0.0017
688.4731	-0.0021
688.6556	-0.0071
688.8382	-0.0051
689.0207	0.0009
689.2032	-0.0001
689.3857	-0.0016
689.5681	-0.0016
689.7506	0.0009
689.933	0.0019
690.1154	0.0011
690.2978	0.0029
690.4802	0.003
690.6626	0.003
690.8449	-0.0013
691.0272	0.0017
691.2095	0.0006
691.3918	-0.003
691.5741	-0.0046
691.7563	-0.0017
691.9386	-0.0042
692.1208	-0.0069
692.303	-0.0054
692.4852	-0.0027
692.6673	-0.0012
692.8495	-0.0087
693.0316	-0.0022
693.2137	-0.0104
693.3958	-0.0066
693.5778	0.001
693.7599	-0.0069
693.9419	-0.0106
694.1239	-0.0038
694.3059	-0.0093
694.4879	-0.0046
694.6699	-0.0088
694.8518	-0.0036
695.0337	-0.0055
695.2157	-0.0017
695.3975	-0.0079
695.5794	-0.0027
695.7613	-0.0061
695.9431	-0.0016
696.1249	-0.011
696.3067	-0.0054
696.4885	-0.0009
696.6703	-0.0062
696.852	-0.001
697.0337	-0.003
697.2154	-0.0011
697.3971	-0.0089
697.5788	-0.0021
697.7605	-0.0009
697.9421	-0.0024
698.1237	-0.0038
698.3053	-0.0009
698.4869	-0.0009
698.6685	-0.0042
698.85	-0.0064
699.0315	-0.0059
699.213	-0.0001
699.3945	-0.003
699.576	0.008
699.7575	-0.0047
699.9389	0.0013
700.1203	-0.0038
700.3017	-0.0068
700.4831	-0.0028
700.6645	-0.0133
700.8458	-0.0045
701.0271	-0.0029
701.2084	-0.0094
701.3897	0.0011
701.571	-0.0015
701.7523	-0.0045
701.9335	0.0035
702.1147	0.0015
702.2959	-0.0038
702.4771	-0.0054
702.6583	-0
702.8394	0.0013
703.0205	0.0008
703.2016	0.0001
703.3827	0.0039
703.5638	-0.0074
703.7449	-0.0057
703.9259	-0.0044
704.1069	0.0001
704.2879	-0.0005
704.4689	-0.0046
704.6499	-0.0025
704.8308	-0.0019
705.0117	0.001
705.1927	-0.0034
705.3735	-0.0007
705.5544	-0.002
705.7353	-0.0001
705.9161	0.0016
706.0969	0.002
706.2777	-0.005
706.4585	-0.0018
706.6393	-0.0051
706.82	-0.0053
707.0007	-0.0041
707.1815	-0.0026
707.3621	0.0015
707.5428	-0.004
707.7235	0.0006
707.9041	-0.0016
708.0847	0.0012
708.2653	0.0012
708.4459	-0.0021
708.6265	-0.0043
708.807	0.0019
708.9875	-0.0005
709.168	-0.0032
709.3485	-0.0052
709.529	-0.0057
709.7095	-0.0041
709.8899	-0.0071
710.0703	0.0045
710.2507	-0.0042
710.4311	0.0014
710.6115	-0.0012
710.7918	-0.0002
710.9721	0.0047
711.1524	-0.0034
711.3327	0.0047
711.513	-0.0032
711.6932	-0.0047
711.8735	0.0064
712.0537	0.0015
712.2339	-0.004
712.4141	-0.0046
712.5942	0.0051
712.7744	0.0037
712.9545	0.0034
713.1346	0.0002
713.3147	0.0042
713.4947	-0.0019
713.6748	-0.0082
713.8548	-0.0051
714.0348	0.0015
714.2148	-0.0002
714.3948	-0.0085
714.5748	-0.0094
714.7547	-0.0069
714.9346	-0.0052
715.1145	-0.0072
715.2944	0.0026
715.4743	-0.0114
715.6541	-0.007
715.834	-0.0032
716.0138	-0.001
716.1936	-0.0022
716.3733	-0.008
716.5531	-0.0071
716.7328	-0.0064
716.9126	0.0025
717.0923	-0.0054
717.2719	-0.0053
717.4516	-0.0042
717.6312	0.0026
717.8109	-0.0026
717.9905	-0.0114
718.1701	-0.0014
718.3496	-0.0057
718.5292	-0.0074
718.7087	-0.0069
718.8882	-0.001
719.0677	-0.0036
719.2472	-0.0048
719.4267	-0.0083
719.6061	-0.008
719.7856	-0.0043
719.965	-0.0092
720.1443	-0.0048
720.3237	-0.0102
720.5031	-0.0025
720.6824	-0.0056
720.8617	-0.0067
721.041	0.0046
721.2203	-0.0069
721.3995	-0.0046
721.5788	-0.0061
721.758	-0.0031
721.9372	0.0019
722.1164	-0.0063
722.2956	-0.0072
722.4747	-0.0057
722.6538	-0.0062
722.8329	-0.0049
723.012	-0.0017
723.1911	-0.0066
723.3702	-0.0019
723.5492	-0.0025
723.7282	-0.0019
723.9072	-0.0058
724.0862	-0.0031
724.2652	-0.0024
724.4441	-0.0041
724.623	0.0046
724.8019	0.0025
724.9808	-0.0005
725.1597	-0.0035
725.3385	0.0061
725.5174	0.0045
725.6962	-0.0071
725.875	-0.0012
726.0538	0.0032
726.2325	0.0001
726.4112	-0.0056
726.59	-0.0016
726.7687	-0.0004
726.9474	-0.0064
727.126	-0.0041
727.3047	-0.0013
727.4833	0.004
727.6619	-0.0081
727.8405	-0.0067
728.0191	-0.0004
728.1976	-0.0079
728.3762	-0.0051
728.5547	-0.004
728.7332	-0.011
728.9116	-0.0119
729.0901	-0.0059
729.2686	-0.0081
729.447	-0.0074
729.6254	-0.0131
729.8038	-0.0053
729.9821	-0.0016
730.1605	-0.0043
730.3388	0.0035
730.5171	-0.0031
730.6954	0.002
730.8737	-0.0004
731.0519	-0.0022
731.2302	0.0022
731.4084	0.0114
731.5866	-0.0008
731.7648	0.0046
731.9429	0.0011
732.1211	0.0033
732.2992	0.0014
732.4773	0.0012
732.6554	-0.0025
732.8335	-0.008
733.0115	-0.0092
733.1896	-0.0092
733.3676	-0.0048
733.5456	-0.0043
733.7235	-0.0051
733.9015	0.0023
734.0794	-0.0006
734.2574	-0.0046
734.4353	-0.0013
734.6131	-0.0032
734.791	-0.0071
734.9689	-0.0098
735.1467	-0.002
735.3245	0.0031
735.5023	-0.0069
735.68	-0.0003
735.8578	-0.0009
736.0355	0.0059
736.2132	0.0022
736.3909	-0.0022
736.5686	-0.0017
736.7463	-0.0043
736.9239	-0.0056
737.1015	-0.0042
737.2791	-0.0107
737.4567	-0.0071
737.6343	-0.0052
737.8118	-0.0087
737.9894	-0.0012
738.1669	-0.0006
738.3444	-0.0058
738.5218	0.0032
738.6993	0.0031
738.8767	-0.004
739.0541	-0.0069
739.2315	-0.0064
739.4089	0.002
739.5863	-0.0015
739.7636	-0.0064
739.9409	-0.0112
740.1182	-0.0007
740.2955	-0.0006
740.4728	-0.0022
740.65	-0.0032
740.8272	0.0011
741.0044	0.0024
741.1816	0.0028
741.3588	0.0053
741.5359	-0.0003
741.7131	0.0018
741.8902	-0.0063
742.0673	0.0018
742.2444	-0.0045
742.4214	-0.0065
742.5985	-0.0085
742.7755	-0.0032
742.9525	-0.0015
743.1295	-0.0018
743.3064	-0.004
743.4834	-0.0009
743.6603	-0.0075
743.8372	-0.0011
744.0141	-0.0054
744.191	-0.0048
744.3678	-0.0066
744.5446	0.0069
744.7215	-0.0121
744.8982	-0.0029
745.075	-0.0035
745.2518	-0.0018
745.4285	-0.0005
745.6052	0.0008
745.7819	-0.0022
745.9586	0.0007
746.1353	-0.006
746.3119	0.0053
746.4885	-0.0035
746.6651	-0.003
746.8417	-0.005
747.0183	-0.0026
747.1948	-0.0064
747.3714	-0.0061
747.5479	-0.0058
747.7244	-0.0048
747.9008	-0.0049
748.0773	0.0044
748.2537	-0.002
748.4301	0.0009
748.6065	-0.0006
748.7829	0.0034
748.9593	0.0017
749.1356	-0.007
749.3119	-0.0025
749.4882	0.0054
749.6645	-0.0007
749.8408	-0.0056
750.017	-0.0033
750.1933	-0.0033
750.3695	-0.0038
750.5457	-0.0076
750.7218	-0.0083
750.898	-0.0039
751.0741	-0.0066
751.2502	-0.001
751.4263	-0.0065
751.6024	-0.0046
751.7784	0.0011
751.9545	-0
752.1305	-0.0023
752.3065	-0.0046
752.4825	-0.0039
752.6584	0.0014
752.8344	-0.0045
753.0103	0.0013
753.1862	0.0059
753.3621	-0.0044
753.5379	-0.0029
753.7138	-0.0021
753.8896	-0.0046
754.0654	-0.0015
754.2412	-0.0112
754.417	-0.0012
754.5927	-0.0096
754.7685	-0.0081
754.9442	-0.0061
755.1199	-0.0064
755.2956	-0.0103
755.4712	-0.0014
755.6469	-0.0136
755.8225	-0.0121
755.9981	-0.0041
756.1736	-0.0059
756.3492	-0.0063
756.5248	-0.0048
756.7003	-0.0093
756.8758	-0.0068
757.0513	-0.0057
757.2267	-0.0118
757.4022	-0.0058
757.5776	-0.0049
757.753	-0.0147
757.9284	-0.012
758.1038	-0.0035
758.2791	-0.0119
758.4545	-0.0048
758.6298	-0.0033
758.8051	-0.0076
758.9803	-0.0099
759.1556	-0.0065
759.3308	-0.0044
759.506	-0.0068
759.6812	-0.0109
759.8564	-0.0056
760.0316	-0.0065
760.2067	-0.0047
760.3819	0.0025
760.557	-0.0048
760.732	-0.012
760.9071	-0.0159
761.0821	-0.0112
761.2572	-0.0096
761.4322	-0.0079
761.6072	-0.0086
761.7821	-0.01
761.9571	-0.0052
762.132	-0.0106
762.3069	-0.0018
762.4818	-0.0038
762.6567	-0.01
762.8316	-0.0067
763.0064	-0.0027
763.1812	0.0017
763.356	-0.0067
763.5308	-0.0016
763.7055	0.0015
763.8803	-0.0008
764.055	-0.0066
764.2297	-0.0005
764.4044	0.0038
764.579	0.0013
764.7537	-0.0046
764.9283	-0.0041
765.1029	0.0045
765.2775	0.0003
765.4521	0.0111
765.6266	-0.0018
765.8011	0.0025
765.9756	0.0033
766.1501	0.0065
766.3246	-0.0012
766.4991	-0.0039
766.6735	-0.0077
766.8479	-0.0031
767.0223	0.0013
767.1967	-0.0053
767.371	-0.0001
767.5454	-0.0012
767.7197	-0.0041
767.894	-0.0009
768.0683	-0.0038
768.2425	-0.0049
768.4168	-0.0086
768.591	-0.0033
768.7652	-0.0019
768.9394	0.0026
769.1135	0.0017
769.2877	0.004
769.4618	0.0043
769.6359	0.0031
769.81	-0.0019
769.984	-0.0051
770.1581	0.0044
770.3321	0.0033
770.5061	-0.0051
770.6801	0.0102
770.8541	-0.0043
771.028	0.0009
771.202	0.0019
771.3759	-0.004
771.5498	0.0003
771.7236	-0.0014
771.8975	-0.0019
772.0713	0.0059
772.2451	0.0077
772.4189	-0.0008
772.5927	0.0014
772.7665	0.0034
772.9402	-0.0029
773.1139	-0.002
773.2876	-0.0003
773.4613	0.0041
773.635	0.0031
773.8086	-0.0011
773.9822	0.0006
774.1558	0.0042
774.3294	0.0041
774.503	0.0035
774.6765	-0.0017
774.8501	0.0043
775.0236	-0.0086
775.1971	-0.0011
775.3705	-0.0043
775.544	-0.0077
775.7174	0.0007
775.8908	-0.0059
776.0642	-0.0085
776.2376	-0.0066
776.4109	-0.0083
776.5843	0.0062
776.7576	-0.0002
776.9309	-0.0019
777.1041	-0.0045
777.2774	0.0001
777.4506	-0.0011
777.6238	-0.002
777.797	-0.0003
777.9702	-0.0035
778.1434	-0.0078
778.3165	-0.0024
778.4896	-0.0149
778.6627	0.001
778.8358	-0.0026
779.0089	-0.0026
779.1819	-0.0031
779.3549	-0.0045
779.5279	-0.0106
779.7009	-0.0111
779.8739	0.0005
780.0468	-0.0085
780.2197	-0.0039
780.3926	-0.0019
780.5655	-0.0075
780.7384	-0.0035
780.9112	-0.0022
781.0841	-0.0041
781.2569	0.0021
781.4297	-0.0128
781.6024	-0.0052
781.7752	0.009
781.9479	-0.0032
782.1206	0.0022
782.2933	-0.0056
782.466	-0
782.6386	-0.0007
782.8113	-0.0165
782.9839	-0.0046
783.1565	-0.0102
783.329	-0.0075
783.5016	-0.006
783.6741	-0.0128
783.8466	-0.0051
784.0191	-0.0124
784.1916	0.0018
784.3641	-0.002
784.5365	0.0023
784.7089	0.0014
784.8813	0.0112
785.0537	0.0093
785.2261	-0.0042
785.3984	-0.0019
785.5707	0.0006
785.743	0
785.9153	-0.0006
786.0876	0.0013
786.2598	0.0087
786.432	0.004
786.6042	0.0076
786.7764	0.0037
786.9486	0.0006
787.1207	-0.0087
787.2928	-0.002
787.4649	-0.0128
787.637	-0.0058
787.8091	-0.0011
787.9811	0.0062
788.1532	-0.0079
788.3252	-0.0013
788.4972	-0.0042
788.6691	-0.005
788.8411	0.0033
789.013	0.0008
789.1849	-0.0066
789.3568	-0.0109
789.5287	-0.0019
789.7005	0.0005
789.8723	0.0023
790.0442	-0.0069
790.2159	0.0049
790.3877	-0.0095
790.5595	-0.0047
790.7312	0.0005
790.9029	-0.0037
791.0746	-0.005
791.2463	-0.0046
791.4179	-0.0073
791.5896	-0.0035
791.7612	-0.0025
791.9328	0.0031
792.1044	-0.008
792.2759	0.0084
792.4474	-0.0025
792.619	-0.0104
792.7905	-0.0031
792.9619	0.0014
793.1334	-0.0046
793.3048	-0.0044
793.4762	-0.0034
793.6476	-0.0131
793.819	-0.0041
793.9904	-0.012
794.1617	-0.0057
794.333	-0.0134
794.5043	-0.0042
794.6756	0.008
794.8469	0.001
795.0181	-0.0032
795.1893	-0.0077
795.3605	-0.0023
795.5317	-0.0127
795.7029	-0.0054
795.874	-0.0087
796.0452	-0.0057
796.2163	-0.0135
796.3873	-0.0026
796.5584	-0.0011
796.7294	-0.0114
796.9005	-0.0172
797.0715	-0.0135
797.2425	-0.0101
797.4134	-0.0157
797.5844	-0.0115
797.7553	-0.0093
797.9262	-0.0086
798.0971	-0.0149
798.2679	-0.0137
798.4388	-0.007
798.6096	-0.0138
798.7804	-0.0163
798.9512	-0.0117
799.122	-0.0064
799.2927	-0.0026
799.4635	-0.0047
799.6342	-0.0098
799.8049	-0.0188
799.9755	-0.0106
800.1462	-0.0174
800.3168	-0.0098
800.4874	-0.003
800.658	-0.014
800.8286	-0.0138
800.9991	-0.018
801.1696	-0.0115
801.3402	-0.0211
801.5106	-0.0264
801.6811	-0.0193
801.8516	-0.014
802.022	-0.0336
802.1924	-0.0268
802.3628	-0.0185
802.5332	-0.0102
802.7035	-0.0192
802.8739	-0.0085
803.0442	-0.016
803.2145	-0.0109
803.3847	-0.0228
803.555	-0.0157
803.7252	-0.0115
803.8954	-0.0219
804.0656	-0.0065
804.2358	-0.0121
804.4059	-0.0143
804.5761	-0.0123
804.7462	-0.0141
804.9163	-0.0051
805.0864	-0.0087
805.2564	-0.0254
805.4264	-0.0157
805.5965	-0.0151
805.7665	-0.0137
805.9364	-0.0021
806.1064	-0.0145
806.2763	-0.0119
806.4462	-0.0053
806.6161	-0.0009
806.786	-0.0119
806.9559	-0.0134
807.1257	-0.0113
807.2955	-0.012
807.4653	-0.0048
807.6351	0.0009
807.8048	-0.0036
807.9746	-0.0091
808.1443	-0.0052
808.314	0.0014
808.4837	0.0082
808.6533	-0.004
808.8229	-0.0032
808.9926	0.0052
809.1622	-0.0072
809.3317	0.0093
809.5013	0.0111
809.6708	-0.0037
809.8403	-0.0021
810.0098	0.0093
810.1793	-0.0119
810.3488	0.0073
810.5182	-0.014
810.6876	-0.0007
810.857	-0.0097
811.0264	-0.0207
811.1958	0.0087
811.3651	-0.0208
811.5344	-0.009
811.7037	-0.0096
811.873	-0.0015
812.0422	-0.0128
812.2115	-0.0043
812.3807	-0.005
812.5499	-0.0051
812.7191	-0.01
812.8882	0.0052
813.0574	-0.0056
813.2265	-0.0048
813.3956	-0.0108
813.5646	-0.0157
813.7337	-0.0008
813.9027	0.002
814.0718	-0.0103
814.2407	0.0102
814.4097	0.0044
814.5787	-0.0025
814.7476	-0.0079
814.9165	0.0182
815.0854	-0.0049
815.2543	0.0108
815.4232	-0.0058
815.592	-0.0038
815.7608	0.0005
815.9296	-0.0049
816.0984	0.0015
816.2671	0.0009
816.4359	0.012
816.6046	0.0001
816.7733	-0.0137
816.942	0.0011
817.1106	0.0003
817.2793	-0.0086
817.4479	-0.0117
817.6165	-0.0063
817.785	-0.0018
817.9536	-0.0003
818.1221	-0.0017
818.2906	-0.0077
818.4591	-0.0213
818.6276	-0.0086
818.7961	-0.0128
818.9645	-0.0173
819.1329	-0.0092
819.3013	0.001
819.4697	-0.0086
819.638	-0.0123
819.8064	-0.012
819.9747	0.004
820.143	0.0075
820.3113	0.0021
820.4795	0.0133
820.6477	-0.0089
820.816	-0.0121
820.9842	-0.0053
821.1523	-0.0208
821.3205	-0.0071
821.4886	-0.001
821.6567	-0.0063
821.8248	-0.0121
821.9929	-0.0021
822.1609	0.0051
822.329	-0.0163
822.497	-0.0156
822.665	-0.0087
822.833	-0.0374
823.0009	-0.0207
823.1688	-0.0147
823.3367	-0.0048
823.5046	-0.0122
823.6725	-0.0198
823.8404	-0.0097
824.0082	-0.0067
824.176	0.0028
824.3438	-0.0004
824.5116	0.0087
824.6793	-0.0163
824.847	0.0089
825.0147	-0.003
825.1824	-0.0358
825.3501	0.0059
825.5177	-0.0245
825.6854	-0.0038
825.853	-0.0051
826.0206	0.0024
826.1881	0.0041
826.3557	0.0001
826.5232	-0.0006
826.6907	0.003
826.8582	0.0105
827.0257	-0.0131
827.1931	0.0101
827.3605	-0.002
827.528	-0.0054
827.6953	-0.0112
827.8627	-0.0176
828.03	-0.0125
828.1974	-0.0049
828.3647	0.007
828.532	-0.0051
828.6992	-0.0003
828.8665	-0.0195
829.0337	-0.0154
829.2009	-0.021
829.3681	-0.0353
829.5352	-0.0128
829.7024	-0.0019
829.8695	-0.0339
830.0366	-0.0137
830.2037	-0.0109
830.3707	-0.0302
830.5378	-0.0121
830.7048	-0.009
830.8718	-0.0066
831.0388	-0.0213
831.2057	-0.0161
831.3727	-0.0248
831.5396	0.0116
831.7065	0.011
831.8734	-0.0003
832.0402	-0.003
832.2071	0.0115
832.3739	-0.012
832.5407	-0.002
832.7075	-0.0115
832.8742	0.0016
833.041	0.0137
833.2077	-0.0177
833.3744	0.0035
833.541	0.0071
833.7077	-0.0141
833.8743	-0.0068
834.0409	0.0081
834.2075	0.0123
834.3741	-0.0053
834.5407	-0.0037
834.7072	-0.006
834.8737	-0.0103
835.0402	-0.0232
835.2067	-0.0112
835.3731	-0.0134
835.5395	-0.001
835.706	-0.0303
835.8723	-0.0046
836.0387	-0.0315
836.2051	-0.0096
836.3714	0.0141
836.5377	-0.0075
836.704	-0.0064
836.8703	-0.0194
837.0365	0.0055
837.2027	0.0001
837.3689	-0.0258
837.5351	-0.0067
837.7013	-0.0118
837.8674	0.0136
838.0335	-0.0066
838.1997	-0.0125
838.3657	0.0211
838.5318	0.0123
838.6978	-0.0285
838.8639	0.016
839.0299	-0.0126
839.1958	0.0124
839.3618	0.0205
839.5277	0.0045
839.6937	0.0178
839.8596	-0.0088
840.0254	0.0045
840.1913	-0.0065
840.3571	0.0199
840.523	-0.005
840.6888	-0.0328
840.8545	-0.0127
841.0203	-0.0058
841.186	-0.01
841.3517	-0.0087
841.5174	-0.0252
841.6831	-0.0138
841.8488	-0.0066
842.0144	0.0329
842.18	0.0159
842.3456	-0.0067
842.5112	0.0273
842.6767	-0.0031
842.8422	0.0151
843.0077	-0.011
843.1732	-0.0381
843.3387	-0.0203
843.5042	0.0156
843.6696	0.0005
843.835	0.015
844.0004	-0.0114
844.1657	-0.008
844.3311	0.0148
844.4964	-0.0098
844.6617	-0.0074
844.827	-0.0032
844.9923	0.0181
845.1575	0.0192
845.3227	-0.0181
845.4879	-0.0135
845.6531	0.0002
845.8183	-0.0231
845.9834	-0.0326
846.1485	0.0206
846.3136	-0.0345
846.4787	-0.0023
846.6438	0.0002
846.8088	0.0154
846.9738	-0.0265
847.1388	-0.0158
847.3038	0.0486
847.4687	-0.007
847.6337	0.0188
847.7986	0.0164
847.9635	0.0184
848.1284	-0.0143
848.2932	0.0166
848.458	0.0435
848.6228	0.0033
848.7876	-0.0612
848.9524	0.0401
849.1172	-0.0311
849.2819	0.0171
849.4466	-0.0023
849.6113	-0.0091
849.7759	-0.0061
849.9406	-0.014
850.1052	0.0424
850.2698	-0.0121
850.4344	0.0215
850.599	-0.0426
850.7635	0.0117
850.928	-0.0226
851.0925	0.0415
851.257	0.0014
851.4215	-0.0027
851.5859	0.0171
851.7503	0.001
851.9147	-0.0211
852.0791	-0.0132
852.2434	-0.0154
852.4078	0.0311
852.5721	0.0011
852.7364	-0.0949
852.9007	0.0559
853.0649	0.0038
853.2291	0.0011
853.3934	0.0177
853.5575	-0.0118
853.7217	-0.0403
853.8859	0.0204
854.05	0.042
854.2141	-0.038
854.3782	0.0253
854.5423	0.0004
854.7063	0.0036
854.8703	-0.0254
855.0343	-0.0108
855.1983	0.0352
855.3623	-0.0313
855.5262	0.0218
855.6901	-0.0023
855.854	-0.0323
856.0179	0.0461
856.1818	0.0184
856.3456	-0.0024
856.5094	-0.0148
856.6732	-0.0852
856.837	-0.0207
857.0008	0.0209
857.1645	-0.0006
857.3282	0.0038
857.4919	-0.044
857.6556	0.0514
857.8192	-0.0027
857.9828	0.0183
858.1465	0.0153
858.31	0.017
858.4736	-0.134
858.6372	0.011
858.8007	-0.0666
858.9642	-0.0038
859.1277	0.0141
859.2911	-0.0045
859.4546	0.0085
859.618	-0.0489
859.7814	0.02
859.9448	-0.0255
860.1081	-0.0444
860.2715	0.0158
860.4348	0.015
860.5981	-0.0554
860.7614	-0.1622
860.9246	0.0009
861.0879	0.0056
861.2511	0.0065
861.4143	-0.1072
861.5774	0.0161
861.7406	0.016
861.9037	-0.0249
862.0668	0.0087
862.2299	-0.0103
862.393	0.0269
862.556	0.0487
862.7191	-0.0304
862.8821	-0.1045
863.0451	0.0728
863.208	-0.1228
863.371	0.0357
863.5339	0.0387
863.6968	-0.019
863.8597	0.0322
864.0225	-0.1721
864.1854	-0.0012
864.3482	-0.102
864.511	-0.0017
864.6737	-0.0338
864.8365	0.0123
864.9992	-0.0888
865.1619	0.0161
865.3246	-0.0933
865.4873	0.2722
865.65	0.0378
865.8126	0.0434
865.9752	0.0147
866.1378	-0.197
866.3004	-0.1238
866.4629	-0.213
866.6254	0.0437
866.7879	-0.1934
866.9504	-0.1112
867.1129	-0.1282
867.2753	0.0045
867.4377	-0.1142
867.6001	-0.1841
867.7625	0.0119
867.9249	-0.1313
868.0872	-0.1688
868.2495	-0.108
868.4118	-0.0637
868.5741	-0.1445
868.7363	0.2441
868.8986	0.0019
869.0608	-0.0717
869.223	-0.1358
869.3851	-0.086
869.5473	-0.2052
869.7094	-0.1055
869.8715	-0.116
870.0336	-0.2796
870.1957	-0.0091
870.3577	0.1281
870.5197	-0.3535
870.6817	-0.2121
870.8437	-0.2396
871.0057	-0.083
871.1676	-0.0343
871.3295	-0.5
871.4914	-0.0856
871.6533	-0.0282
871.8151	0.0197
871.977	0.1144
872.1388	0.1812
872.3006	-0.3205
872.4623	-0.0393
872.6241	-0.2246
872.7858	-0.0027
872.9475	-0.1609
873.1092	-0.1027
873.2709	-0.0606
873.4325	-0.2226
873.5941	-0.3194
873.7557	0.0222
873.9173	-0.1672
874.0789	-0.2485
874.2404	-0.0183
874.4019	-0.3575
874.5634	0.4475
874.7249	-0.1831
874.8863	0.0222
875.0478	0.2443
875.2092	-0.3337
875.3706	-0.3424
875.5319	-0.2321
875.6933	-0.1225
875.8546	-0.3255
876.0159	-0.0413
876.1772	-0.5012
876.3385	0.404
876.4997	1.2788
876.6609	0.1525
876.8221	-0.068
876.9833	-0.3345
877.1445	0.1245
877.3056	-0.1394
877.4667	-0.9249
877.6278	0.0196
877.7889	0.2337
877.9499	-0.3889
878.111	0.9528
878.272	0.0497
878.433	0.2598
878.5939	0.0311
878.7549	-0.3873
878.9158	-0.0678
879.0767	0.1065
879.2376	0.1571
879.3984	-0.2457
879.5593	-0.2102
879.7201	-0
879.8809	-0.1991
880.0417	-0.0426
880.2024	-0.299
880.3632	-0.1296
880.5239	-0
880.6846	-0.0744
880.8452	0.0097
881.0059	-0.2309
881.1665	-0
881.3271	-0.5151
881.4877	-0.246
881.6483	-0
881.8088	0.3646
881.9693	0.0391
882.1298	0.0391
882.2903	0.0391
