Data from MonoPyChalIsomerACN10uM450nmA_Absorbance_13-11-25-891.txt Node
Date: Tue Jul 09 13:11:25 BST 2024
User: LASERRRRR
Spectrometer: FLMT03099
Trigger mode: 0
Integration Time (sec): 2.000000E-1
Scans to average: 1
Electric dark correction enabled: true
Nonlinearity correction enabled: false
Boxcar width: 0
XAxis mode: Wavelengths
Number of Pixels in Spectrum: 3648
>>>>>Begin Spectral Data<<<<<
179.3399	-0.2097
179.5586	-0.2097
179.7771	-0.2097
179.9957	-0.1821
180.2143	-0.1541
180.4329	0.5343
180.6514	-0.0103
180.8699	-0
181.0885	-0
181.307	0.5989
181.5255	-0.0855
181.744	-0.0675
181.9625	-0.0356
182.181	-0.0089
182.3994	0.0537
182.6179	0.2303
182.8363	-0.775
183.0547	0.04
183.2732	0.1309
183.4916	-0.0114
183.71	0.0966
183.9284	-0.001
184.1467	0.0729
184.3651	-0.0194
184.5835	0.091
184.8018	0.0491
185.0201	0.0907
185.2385	0.015
185.4568	-0.0581
185.6751	0.0966
185.8934	0.0699
186.1117	0.041
186.3299	-0.0885
186.5482	0.1191
186.7664	-0.0108
186.9847	0.0899
187.2029	0.2398
187.4211	0.1766
187.6393	-0.0274
187.8575	0.132
188.0757	0.0797
188.2939	0.0829
188.512	-0.0037
188.7302	0.0011
188.9483	0.063
189.1665	0.1473
189.3846	0.1083
189.6027	0.0692
189.8208	0.2106
190.0389	0.1722
190.257	0.204
190.475	0.2927
190.6931	0.1136
190.9111	0.2822
191.1292	0.3448
191.3472	0.2634
191.5652	0.327
191.7832	0.3538
192.0012	0.3347
192.2192	0.3777
192.4371	0.4055
192.6551	0.4697
192.873	0.4543
193.091	0.4312
193.3089	0.5504
193.5268	0.5678
193.7447	0.5445
193.9626	0.476
194.1805	0.5772
194.3984	0.5365
194.6162	0.4954
194.8341	0.5977
195.0519	0.6397
195.2697	0.5784
195.4875	0.5928
195.7054	0.6728
195.9231	0.6189
196.1409	0.5947
196.3587	0.6566
196.5765	0.7704
196.7942	0.6518
197.012	0.6144
197.2297	0.7299
197.4474	0.7181
197.6651	0.5982
197.8828	0.7518
198.1005	0.7233
198.3182	0.8646
198.5358	0.7637
198.7535	0.7495
198.9711	0.8359
199.1888	0.7814
199.4064	0.8217
199.624	0.8904
199.8416	0.8806
200.0592	0.7309
200.2767	0.775
200.4943	0.8832
200.7119	0.8448
200.9294	0.9595
201.1469	0.8187
201.3645	0.7507
201.582	0.9365
201.7995	0.7489
202.017	1.0194
202.2344	0.8348
202.4519	0.9324
202.6694	0.8715
202.8868	0.906
203.1042	0.8792
203.3217	0.9726
203.5391	0.8775
203.7565	0.9084
203.9739	0.9934
204.1913	0.829
204.4086	0.9738
204.626	0.9394
204.8433	0.9255
205.0607	0.895
205.278	0.8923
205.4953	1.0433
205.7126	0.9064
205.9299	1.0115
206.1472	1.0028
206.3644	0.9469
206.5817	1.0357
206.7989	1.0419
207.0162	0.9468
207.2334	0.945
207.4506	1.0121
207.6678	1.0961
207.885	1.0689
208.1022	1.1592
208.3194	1.0992
208.5365	0.9898
208.7537	1.0884
208.9708	1.0689
209.1879	1.029
209.405	1.1147
209.6222	1.0313
209.8392	1.1744
210.0563	0.9964
210.2734	1.126
210.4905	1.0978
210.7075	1.0415
210.9245	1.0372
211.1416	1.0577
211.3586	1.0268
211.5756	1.1047
211.7926	1.0979
212.0096	1.0046
212.2265	1.0428
212.4435	1.1098
212.6604	1.1022
212.8774	1.0306
213.0943	1.0375
213.3112	1.0019
213.5281	1.0529
213.745	0.9858
213.9619	0.9622
214.1788	0.9169
214.3956	0.9089
214.6125	0.9822
214.8293	0.8804
215.0461	0.8648
215.2629	0.893
215.4798	0.8583
215.6965	0.859
215.9133	0.8224
216.1301	0.8042
216.3469	0.7848
216.5636	0.7899
216.7803	0.7952
216.9971	0.7255
217.2138	0.6935
217.4305	0.7338
217.6472	0.6569
217.8639	0.6636
218.0805	0.635
218.2972	0.5768
218.5138	0.5429
218.7305	0.5125
218.9471	0.4661
219.1637	0.4428
219.3803	0.4221
219.5969	0.3941
219.8135	0.3696
220.0301	0.3492
220.2466	0.3703
220.4632	0.3302
220.6797	0.3305
220.8962	0.3098
221.1127	0.3144
221.3292	0.2955
221.5457	0.2817
221.7622	0.3007
221.9787	0.2912
222.1951	0.2807
222.4116	0.2703
222.628	0.2749
222.8444	0.2766
223.0608	0.2747
223.2772	0.2684
223.4936	0.2535
223.71	0.2578
223.9264	0.2826
224.1427	0.2677
224.3591	0.2595
224.5754	0.2783
224.7917	0.2716
225.008	0.2766
225.2243	0.2809
225.4406	0.2747
225.6569	0.2773
225.8732	0.2999
226.0894	0.2766
226.3057	0.2827
226.5219	0.2951
226.7381	0.2863
226.9543	0.282
227.1705	0.2977
227.3867	0.2959
227.6029	0.2943
227.8191	0.2984
228.0352	0.298
228.2513	0.3118
228.4675	0.3041
228.6836	0.318
228.8997	0.3293
229.1158	0.3107
229.3319	0.3213
229.548	0.3338
229.764	0.3084
229.9801	0.3281
230.1961	0.3435
230.4121	0.3355
230.6282	0.3344
230.8442	0.3374
231.0602	0.3512
231.2761	0.3464
231.4921	0.3423
231.7081	0.3435
231.924	0.3509
232.14	0.3627
232.3559	0.3645
232.5718	0.3609
232.7877	0.3532
233.0036	0.3686
233.2195	0.357
233.4353	0.3664
233.6512	0.3802
233.867	0.3775
234.0829	0.3796
234.2987	0.3824
234.5145	0.3854
234.7303	0.3811
234.9461	0.3955
235.1619	0.3861
235.3776	0.3767
235.5934	0.3879
235.8091	0.3902
236.0249	0.3929
236.2406	0.3987
236.4563	0.3842
236.672	0.4007
236.8877	0.3952
237.1034	0.3996
237.319	0.4009
237.5347	0.4081
237.7503	0.4119
237.966	0.421
238.1816	0.4087
238.3972	0.4053
238.6128	0.415
238.8284	0.4143
239.0439	0.4067
239.2595	0.4296
239.475	0.4154
239.6906	0.4171
239.9061	0.4198
240.1216	0.4112
240.3371	0.4223
240.5526	0.4201
240.7681	0.4057
240.9836	0.4257
241.199	0.4148
241.4145	0.3966
241.6299	0.4001
241.8453	0.4008
242.0607	0.3839
242.2761	0.3974
242.4915	0.3845
242.7069	0.3783
242.9223	0.3729
243.1376	0.3763
243.353	0.362
243.5683	0.38
243.7836	0.3438
243.9989	0.3366
244.2142	0.3428
244.4295	0.339
244.6448	0.3299
244.86	0.336
245.0753	0.3084
245.2905	0.3062
245.5057	0.3111
245.721	0.2987
245.9362	0.2816
246.1514	0.2954
246.3665	0.2921
246.5817	0.2739
246.7969	0.2771
247.012	0.2802
247.2271	0.258
247.4423	0.266
247.6574	0.2567
247.8725	0.2537
248.0876	0.2568
248.3026	0.2521
248.5177	0.2472
248.7328	0.2363
248.9478	0.2447
249.1628	0.2355
249.3779	0.2305
249.5929	0.227
249.8079	0.231
250.0228	0.2326
250.2378	0.234
250.4528	0.2231
250.6677	0.2169
250.8827	0.209
251.0976	0.217
251.3125	0.2171
251.5274	0.2007
251.7423	0.2116
251.9572	0.2073
252.172	0.2117
252.3869	0.2091
252.6017	0.2046
252.8166	0.2118
253.0314	0.2066
253.2462	0.2044
253.461	0.2023
253.6758	0.1948
253.8906	0.2001
254.1053	0.1952
254.3201	0.2086
254.5348	0.1987
254.7496	0.2072
254.9643	0.2039
255.179	0.197
255.3937	0.2046
255.6083	0.2032
255.823	0.2012
256.0377	0.1946
256.2523	0.1881
256.467	0.1996
256.6816	0.1977
256.8962	0.198
257.1108	0.189
257.3254	0.1919
257.54	0.1939
257.7545	0.1984
257.9691	0.1928
258.1836	0.1963
258.3981	0.1938
258.6127	0.1914
258.8272	0.1908
259.0417	0.1901
259.2561	0.1989
259.4706	0.1871
259.6851	0.1975
259.8995	0.1967
260.114	0.1922
260.3284	0.195
260.5428	0.1907
260.7572	0.2038
260.9716	0.1962
261.186	0.1961
261.4003	0.1953
261.6147	0.2063
261.829	0.1986
262.0433	0.197
262.2577	0.1952
262.472	0.1981
262.6863	0.1886
262.9005	0.1946
263.1148	0.1986
263.3291	0.1852
263.5433	0.1901
263.7576	0.1883
263.9718	0.1833
264.186	0.1845
264.4002	0.1842
264.6144	0.1835
264.8286	0.1815
265.0427	0.1835
265.2569	0.1802
265.471	0.1792
265.6851	0.1812
265.8993	0.1741
266.1134	0.1783
266.3275	0.1848
266.5415	0.1728
266.7556	0.1846
266.9697	0.1739
267.1837	0.1785
267.3978	0.1903
267.6118	0.1883
267.8258	0.1811
268.0398	0.1987
268.2538	0.1915
268.4677	0.1913
268.6817	0.2025
268.8957	0.1959
269.1096	0.1894
269.3235	0.1833
269.5374	0.1765
269.7514	0.167
269.9652	0.1695
270.1791	0.1573
270.393	0.158
270.6068	0.1487
270.8207	0.1582
271.0345	0.158
271.2483	0.1611
271.4622	0.1486
271.676	0.1464
271.8897	0.1456
272.1035	0.1406
272.3173	0.1508
272.531	0.1458
272.7448	0.1498
272.9585	0.1411
273.1722	0.1449
273.3859	0.144
273.5996	0.1417
273.8133	0.1498
274.0269	0.1479
274.2406	0.1438
274.4542	0.1438
274.6679	0.1471
274.8815	0.1537
275.0951	0.1492
275.3087	0.143
275.5223	0.1394
275.7358	0.1518
275.9494	0.1478
276.1629	0.147
276.3765	0.1442
276.59	0.1431
276.8035	0.1458
277.017	0.1449
277.2305	0.1531
277.444	0.1485
277.6574	0.1509
277.8709	0.148
278.0843	0.1538
278.2978	0.1445
278.5112	0.1386
278.7246	0.1455
278.938	0.1491
279.1513	0.1597
279.3647	0.1501
279.5781	0.1477
279.7914	0.1563
280.0047	0.1554
280.2181	0.153
280.4314	0.1486
280.6447	0.1506
280.8579	0.1561
281.0712	0.1542
281.2845	0.158
281.4977	0.1569
281.711	0.156
281.9242	0.1581
282.1374	0.1511
282.3506	0.1519
282.5638	0.1544
282.7769	0.1568
282.9901	0.1549
283.2033	0.1641
283.4164	0.1614
283.6295	0.162
283.8426	0.1575
284.0557	0.1562
284.2688	0.1508
284.4819	0.1524
284.695	0.1586
284.908	0.1603
285.1211	0.1573
285.3341	0.1575
285.5471	0.1639
285.7601	0.1559
285.9731	0.1557
286.1861	0.1615
286.3991	0.1615
286.612	0.1571
286.825	0.1614
287.0379	0.155
287.2508	0.1549
287.4637	0.1608
287.6766	0.1539
287.8895	0.1596
288.1024	0.168
288.3152	0.1598
288.5281	0.1566
288.7409	0.1566
288.9538	0.1563
289.1666	0.156
289.3794	0.1643
289.5922	0.1618
289.8049	0.1587
290.0177	0.1719
290.2304	0.1588
290.4432	0.1579
290.6559	0.1582
290.8686	0.1564
291.0813	0.1586
291.294	0.1609
291.5067	0.1617
291.7194	0.1657
291.932	0.1597
292.1447	0.1646
292.3573	0.1578
292.5699	0.1641
292.7825	0.1577
292.9951	0.1623
293.2077	0.1591
293.4203	0.1553
293.6328	0.1639
293.8454	0.1554
294.0579	0.1559
294.2704	0.1599
294.4829	0.1648
294.6954	0.1517
294.9079	0.1549
295.1204	0.1599
295.3328	0.1649
295.5453	0.154
295.7577	0.1423
295.9701	0.1493
296.1825	0.1587
296.3949	0.1538
296.6073	0.1619
296.8197	0.1574
297.0321	0.1625
297.2444	0.1573
297.4567	0.1498
297.6691	0.1677
297.8814	0.1504
298.0937	0.1481
298.306	0.154
298.5182	0.1518
298.7305	0.1504
298.9428	0.1488
299.155	0.1525
299.3672	0.1533
299.5794	0.1582
299.7916	0.1561
300.0038	0.1528
300.216	0.1546
300.4282	0.1561
300.6403	0.1532
300.8525	0.1515
301.0646	0.1512
301.2767	0.1518
301.4888	0.154
301.7009	0.1591
301.913	0.159
302.125	0.1541
302.3371	0.156
302.5491	0.1571
302.7612	0.1579
302.9732	0.1603
303.1852	0.154
303.3972	0.1582
303.6092	0.1502
303.8211	0.1604
304.0331	0.1494
304.245	0.1555
304.457	0.1537
304.6689	0.1499
304.8808	0.1512
305.0927	0.1464
305.3046	0.1498
305.5164	0.151
305.7283	0.1543
305.9401	0.1501
306.152	0.1501
306.3638	0.1515
306.5756	0.1449
306.7874	0.1426
306.9992	0.1411
307.2109	0.1373
307.4227	0.1348
307.6344	0.1286
307.8462	0.1343
308.0579	0.1357
308.2696	0.1249
308.4813	0.1333
308.693	0.1302
308.9046	0.1264
309.1163	0.1212
309.328	0.1243
309.5396	0.1222
309.7512	0.1222
309.9628	0.1185
310.1744	0.1172
310.386	0.1096
310.5976	0.1165
310.8091	0.1164
311.0207	0.1214
311.2322	0.1107
311.4437	0.1239
311.6552	0.1155
311.8667	0.1111
312.0782	0.1078
312.2897	0.1018
312.5012	0.1162
312.7126	0.1051
312.924	0.0979
313.1355	0.105
313.3469	0.1062
313.5583	0.1066
313.7696	0.102
313.981	0.1017
314.1924	0.1014
314.4037	0.1011
314.6151	0.0876
314.8264	0.1032
315.0377	0.0978
315.249	0.1012
315.4603	0.102
315.6716	0.0998
315.8828	0.0991
316.0941	0.1033
316.3053	0.0947
316.5165	0.0902
316.7277	0.0979
316.9389	0.1003
317.1501	0.0965
317.3613	0.0939
317.5724	0.0967
317.7836	0.0991
317.9947	0.0985
318.2058	0.0942
318.417	0.0917
318.6281	0.1
318.8391	0.0974
319.0502	0.093
319.2613	0.1002
319.4723	0.0971
319.6834	0.0876
319.8944	0.1028
320.1054	0.0945
320.3164	0.1058
320.5274	0.095
320.7383	0.0921
320.9493	0.0906
321.1602	0.0977
321.3712	0.1087
321.5821	0.0995
321.793	0.0897
322.0039	0.0994
322.2148	0.0953
322.4257	0.0948
322.6365	0.0972
322.8474	0.1011
323.0582	0.1087
323.269	0.0959
323.4798	0.101
323.6906	0.1005
323.9014	0.1008
324.1122	0.1056
324.3229	0.0992
324.5337	0.0982
324.7444	0.1008
324.9551	0.1022
325.1658	0.1054
325.3765	0.103
325.5872	0.0988
325.7979	0.0997
326.0085	0.1028
326.2192	0.1036
326.4298	0.104
326.6404	0.104
326.851	0.0986
327.0616	0.1051
327.2722	0.1063
327.4828	0.1002
327.6933	0.1107
327.9039	0.101
328.1144	0.1037
328.3249	0.0991
328.5354	0.1098
328.7459	0.111
328.9564	0.1032
329.1669	0.1124
329.3773	0.1066
329.5878	0.1025
329.7982	0.1089
330.0086	0.1046
330.219	0.0991
330.4294	0.1075
330.6398	0.1097
330.8502	0.1106
331.0605	0.1115
331.2708	0.1084
331.4812	0.1125
331.6915	0.1082
331.9018	0.0944
332.1121	0.1057
332.3224	0.1001
332.5326	0.1005
332.7429	0.1103
332.9531	0.1053
333.1633	0.116
333.3735	0.1068
333.5837	0.1061
333.7939	0.1058
334.0041	0.1105
334.2143	0.1103
334.4244	0.1038
334.6346	0.1005
334.8447	0.1154
335.0548	0.1116
335.2649	0.1031
335.475	0.1013
335.685	0.1114
335.8951	0.1104
336.1051	0.1044
336.3152	0.1088
336.5252	0.1098
336.7352	0.1146
336.9452	0.1073
337.1552	0.1085
337.3652	0.1078
337.5751	0.1164
337.7851	0.1093
337.995	0.1118
338.2049	0.1069
338.4148	0.1091
338.6247	0.1118
338.8346	0.1119
339.0445	0.1164
339.2543	0.1121
339.4642	0.1156
339.674	0.1077
339.8838	0.1071
340.0936	0.1168
340.3034	0.1207
340.5132	0.1109
340.7229	0.1197
340.9327	0.1236
341.1424	0.1133
341.3522	0.1157
341.5619	0.1319
341.7716	0.1214
341.9813	0.1228
342.1909	0.1217
342.4006	0.1182
342.6102	0.1188
342.8199	0.1179
343.0295	0.1182
343.2391	0.1251
343.4487	0.1131
343.6583	0.1226
343.8679	0.1246
344.0774	0.1219
344.287	0.1317
344.4965	0.1197
344.706	0.1264
344.9155	0.124
345.125	0.1313
345.3345	0.1338
345.544	0.1204
345.7534	0.1255
345.9629	0.1242
346.1723	0.127
346.3817	0.1355
346.5911	0.1338
346.8005	0.1256
347.0099	0.12
347.2193	0.1361
347.4286	0.1346
347.638	0.1367
347.8473	0.131
348.0566	0.1374
348.2659	0.1345
348.4752	0.1419
348.6845	0.1294
348.8937	0.1397
349.103	0.1335
349.3122	0.1415
349.5214	0.1407
349.7306	0.1366
349.9398	0.1359
350.149	0.1354
350.3582	0.135
350.5674	0.1385
350.7765	0.1318
350.9856	0.1363
351.1948	0.1378
351.4039	0.1428
351.613	0.1311
351.822	0.1389
352.0311	0.1377
352.2402	0.1571
352.4492	0.143
352.6582	0.145
352.8672	0.1419
353.0762	0.1496
353.2852	0.1499
353.4942	0.1532
353.7032	0.1443
353.9121	0.1501
354.1211	0.1479
354.33	0.1458
354.5389	0.1501
354.7478	0.1469
354.9567	0.15
355.1655	0.1489
355.3744	0.1529
355.5833	0.1505
355.7921	0.1488
356.0009	0.1509
356.2097	0.1494
356.4185	0.1497
356.6273	0.1617
356.8361	0.1511
357.0448	0.1657
357.2536	0.1521
357.4623	0.1556
357.671	0.1617
357.8797	0.1573
358.0884	0.1594
358.2971	0.1596
358.5057	0.164
358.7144	0.1753
358.923	0.1658
359.1316	0.1672
359.3402	0.1715
359.5488	0.1615
359.7574	0.1742
359.966	0.1692
360.1746	0.172
360.3831	0.1706
360.5916	0.1863
360.8002	0.1781
361.0087	0.1696
361.2172	0.1732
361.4256	0.1701
361.6341	0.1815
361.8426	0.1841
362.051	0.1673
362.2594	0.1743
362.4678	0.1824
362.6762	0.1822
362.8846	0.1771
363.093	0.1791
363.3014	0.1827
363.5097	0.1792
363.718	0.1879
363.9264	0.18
364.1347	0.1951
364.343	0.1736
364.5513	0.1871
364.7595	0.189
364.9678	0.1819
365.176	0.195
365.3842	0.1788
365.5925	0.1914
365.8007	0.1869
366.0089	0.1911
366.217	0.1914
366.4252	0.1976
366.6333	0.1872
366.8415	0.1965
367.0496	0.2002
367.2577	0.202
367.4658	0.2025
367.6739	0.2006
367.882	0.203
368.09	0.2069
368.2981	0.217
368.5061	0.199
368.7141	0.1947
368.9221	0.1959
369.1301	0.2155
369.3381	0.2112
369.5461	0.2155
369.754	0.2104
369.962	0.2069
370.1699	0.2191
370.3778	0.2087
370.5857	0.2145
370.7936	0.2102
371.0015	0.2131
371.2093	0.2023
371.4172	0.2111
371.625	0.2037
371.8328	0.2218
372.0406	0.2208
372.2484	0.2095
372.4562	0.221
372.664	0.2166
372.8717	0.2205
373.0795	0.2156
373.2872	0.2227
373.4949	0.2167
373.7026	0.2233
373.9103	0.2113
374.118	0.2267
374.3256	0.2154
374.5333	0.2152
374.7409	0.2109
374.9485	0.216
375.1561	0.2206
375.3637	0.2157
375.5713	0.2241
375.7789	0.221
375.9864	0.2269
376.194	0.2233
376.4015	0.2305
376.609	0.2259
376.8165	0.2164
377.024	0.2218
377.2315	0.2323
377.4389	0.2123
377.6464	0.2213
377.8538	0.229
378.0612	0.2318
378.2686	0.2255
378.476	0.23
378.6834	0.2333
378.8908	0.2393
379.0981	0.2421
379.3055	0.2508
379.5128	0.224
379.7201	0.2308
379.9274	0.2343
380.1347	0.2305
380.342	0.2502
380.5492	0.2354
380.7565	0.2392
380.9637	0.2453
381.1709	0.242
381.3781	0.2255
381.5853	0.2397
381.7925	0.2554
381.9997	0.2484
382.2068	0.2381
382.4139	0.238
382.6211	0.2353
382.8282	0.2365
383.0353	0.2408
383.2424	0.2411
383.4494	0.2542
383.6565	0.2331
383.8635	0.2548
384.0706	0.2444
384.2776	0.2514
384.4846	0.2431
384.6916	0.2469
384.8986	0.2509
385.1055	0.2516
385.3125	0.2474
385.5194	0.2433
385.7263	0.25
385.9333	0.2411
386.1402	0.2481
386.347	0.251
386.5539	0.2456
386.7608	0.2531
386.9676	0.2421
387.1744	0.2446
387.3813	0.2455
387.5881	0.2425
387.7948	0.2475
388.0016	0.248
388.2084	0.2483
388.4151	0.2364
388.6219	0.2397
388.8286	0.2466
389.0353	0.2338
389.242	0.2467
389.4487	0.2332
389.6553	0.2396
389.862	0.2239
390.0686	0.2259
390.2753	0.2327
390.4819	0.2258
390.6885	0.2368
390.8951	0.2328
391.1016	0.2351
391.3082	0.2244
391.5147	0.2321
391.7213	0.2374
391.9278	0.2095
392.1343	0.2278
392.3408	0.2224
392.5473	0.2364
392.7537	0.2253
392.9602	0.2148
393.1666	0.2243
393.373	0.2137
393.5794	0.2205
393.7858	0.2195
393.9922	0.2151
394.1986	0.2157
394.4049	0.2313
394.6113	0.2217
394.8176	0.2056
395.0239	0.2171
395.2302	0.2133
395.4365	0.2085
395.6428	0.206
395.8491	0.1998
396.0553	0.2056
396.2615	0.2115
396.4678	0.2215
396.674	0.2075
396.8802	0.2078
397.0863	0.2193
397.2925	0.2086
397.4987	0.2007
397.7048	0.1987
397.9109	0.2111
398.117	0.2087
398.3231	0.2094
398.5292	0.1953
398.7353	0.2008
398.9413	0.2124
399.1474	0.2029
399.3534	0.1954
399.5594	0.1925
399.7654	0.2017
399.9714	0.2084
400.1774	0.2174
400.3833	0.2035
400.5893	0.2016
400.7952	0.1925
401.0011	0.1954
401.207	0.2051
401.4129	0.1889
401.6188	0.1956
401.8247	0.2059
402.0305	0.2008
402.2364	0.211
402.4422	0.2004
402.648	0.2023
402.8538	0.2008
403.0596	0.1896
403.2654	0.1892
403.4711	0.1978
403.6768	0.2023
403.8826	0.1983
404.0883	0.1982
404.294	0.2023
404.4997	0.199
404.7054	0.2039
404.911	0.2021
405.1167	0.2002
405.3223	0.1924
405.5279	0.2059
405.7335	0.2013
405.9391	0.2031
406.1447	0.1997
406.3502	0.1976
406.5558	0.2069
406.7613	0.193
406.9668	0.2109
407.1724	0.1979
407.3778	0.2107
407.5833	0.2082
407.7888	0.2149
407.9942	0.2102
408.1997	0.2021
408.4051	0.2115
408.6105	0.2022
408.8159	0.2048
409.0213	0.1963
409.2267	0.2053
409.432	0.2068
409.6374	0.1978
409.8427	0.2165
410.048	0.1859
410.2533	0.1919
410.4586	0.2058
410.6639	0.1935
410.8691	0.1962
411.0744	0.1931
411.2796	0.2011
411.4848	0.1869
411.69	0.1957
411.8952	0.1959
412.1004	0.1906
412.3056	0.2047
412.5107	0.2073
412.7158	0.1886
412.921	0.1959
413.1261	0.1814
413.3312	0.2015
413.5362	0.1905
413.7413	0.1902
413.9464	0.1866
414.1514	0.1906
414.3564	0.2029
414.5614	0.1905
414.7664	0.2031
414.9714	0.1896
415.1764	0.1955
415.3813	0.1912
415.5863	0.1916
415.7912	0.1958
415.9961	0.2005
416.201	0.1903
416.4059	0.1845
416.6108	0.1874
416.8156	0.1867
417.0205	0.1882
417.2253	0.1992
417.4301	0.1995
417.6349	0.2022
417.8397	0.1923
418.0445	0.1853
418.2492	0.1963
418.454	0.1894
418.6587	0.1898
418.8634	0.1749
419.0681	0.1815
419.2728	0.1908
419.4775	0.1876
419.6822	0.1908
419.8868	0.185
420.0915	0.1917
420.2961	0.1762
420.5007	0.1811
420.7053	0.1803
420.9099	0.1827
421.1144	0.1817
421.319	0.1773
421.5235	0.1897
421.728	0.176
421.9325	0.1755
422.137	0.1724
422.3415	0.1926
422.546	0.1711
422.7504	0.1823
422.9549	0.191
423.1593	0.1782
423.3637	0.1688
423.5681	0.1758
423.7725	0.1804
423.9769	0.1647
424.1812	0.1645
424.3856	0.1633
424.5899	0.1771
424.7942	0.1711
424.9985	0.1687
425.2028	0.1571
425.4071	0.1614
425.6113	0.1744
425.8156	0.1595
426.0198	0.1746
426.224	0.1589
426.4282	0.1585
426.6324	0.1683
426.8366	0.1562
427.0407	0.1579
427.2449	0.1587
427.449	0.1553
427.6531	0.1467
427.8572	0.1487
428.0613	0.1547
428.2654	0.145
428.4694	0.1547
428.6735	0.1546
428.8775	0.1455
429.0815	0.1426
429.2855	0.1449
429.4895	0.1372
429.6935	0.1361
429.8975	0.1344
430.1014	0.136
430.3053	0.1288
430.5093	0.1388
430.7132	0.143
430.9171	0.1298
431.1209	0.1392
431.3248	0.1372
431.5286	0.1305
431.7325	0.1274
431.9363	0.1324
432.1401	0.1299
432.3439	0.1268
432.5477	0.1299
432.7514	0.1178
432.9552	0.1182
433.1589	0.1071
433.3627	0.1233
433.5664	0.1063
433.7701	0.1026
433.9737	0.0984
434.1774	0.1022
434.3811	0.1
434.5847	0.1139
434.7883	0.1065
434.9919	0.1056
435.1955	0.099
435.3991	0.1072
435.6027	0.0969
435.8062	0.0973
436.0098	0.1004
436.2133	0.0973
436.4168	0.0919
436.6203	0.0913
436.8238	0.0866
437.0272	0.0921
437.2307	0.0956
437.4341	0.0904
437.6375	0.0937
437.841	0.0869
438.0443	0.087
438.2477	0.0796
438.4511	0.0803
438.6545	0.0753
438.8578	0.0896
439.0611	0.0814
439.2644	0.0864
439.4677	0.0768
439.671	0.0752
439.8743	0.0814
440.0775	0.0645
440.2808	0.0589
440.484	0.0713
440.6872	0.0593
440.8904	0.0615
441.0936	0.059
441.2967	0.073
441.4999	0.0577
441.703	0.0546
441.9062	0.0679
442.1093	0.0529
442.3124	0.0539
442.5155	0.0539
442.7185	0.0476
442.9216	0.0622
443.1246	0.0495
443.3276	0.0615
443.5307	0.0422
443.7337	0.0505
443.9366	0.056
444.1396	0.0434
444.3426	0.0441
444.5455	0.0436
444.7484	0.0362
444.9513	0.0443
445.1542	0.0437
445.3571	0.0422
445.56	0.0388
445.7628	0.0385
445.9657	0.0532
446.1685	0.0436
446.3713	0.0364
446.5741	0.0513
446.7769	0.032
446.9797	0.034
447.1824	0.0357
447.3852	0.0332
447.5879	0.038
447.7906	0.0396
447.9933	0.0339
448.196	0.0307
448.3986	0.0296
448.6013	0.0278
448.8039	0.0225
449.0066	0.0295
449.2092	0.0221
449.4118	0.0263
449.6143	0.0242
449.8169	0.0151
450.0195	0.0168
450.222	0.0056
450.4245	0.0195
450.627	0.0236
450.8295	0.0192
451.032	0.0305
451.2345	0.0161
451.4369	0.0284
451.6394	0.0244
451.8418	0.0107
452.0442	0.0241
452.2466	0.0249
452.449	0.0195
452.6513	0.0137
452.8537	0.0173
453.056	0.0113
453.2583	0.0092
453.4607	0.0215
453.663	0.0214
453.8652	0.011
454.0675	0.0125
454.2697	0.0164
454.472	0.0155
454.6742	0.0153
454.8764	0.0168
455.0786	0.0201
455.2808	0.0112
455.4829	0.0078
455.6851	-0.004
455.8872	-0.0064
456.0893	0.008
456.2915	0.011
456.4935	0.0054
456.6956	0.0164
456.8977	0.007
457.0997	0.004
457.3018	0.0147
457.5038	0.0075
457.7058	-0.0044
457.9078	0.01
458.1098	0.0044
458.3117	0.0033
458.5137	-0.0034
458.7156	0.0127
458.9175	-0.0028
459.1194	0.0087
459.3213	0.004
459.5232	-0.0039
459.725	-0.0068
459.9269	0.0032
460.1287	0.0012
460.3305	0.0019
460.5323	0.0111
460.7341	0.0042
460.9359	0.0033
461.1376	0.0037
461.3394	0.0004
461.5411	0.0096
461.7428	-0.0002
461.9445	0.0116
462.1462	-0.0091
462.3479	0.0006
462.5495	0.0064
462.7512	-0.005
462.9528	0.0033
463.1544	-0.0032
463.356	0.0026
463.5576	0.0005
463.7592	0
463.9607	0.0002
464.1623	0
464.3638	0.0005
464.5653	0.0041
464.7668	-0
464.9683	0.0158
465.1697	-0.0038
465.3712	0.0072
465.5726	-0.0037
465.7741	0.0004
465.9755	-0.0028
466.1769	-0.0082
466.3782	-0.0052
466.5796	0.001
466.7809	-0.0027
466.9823	-0.0049
467.1836	0.0015
467.3849	0.0056
467.5862	-0.0047
467.7875	-0.0066
467.9887	-0.0003
468.19	-0.0103
468.3912	-0.0015
468.5924	-0.0021
468.7936	-0.0161
468.9948	0.0078
469.196	-0.0086
469.3972	0.0049
469.5983	0.0085
469.7994	-0.0022
470.0006	-0.0106
470.2017	0.0003
470.4027	-0.0032
470.6038	-0.0013
470.8049	-0.0089
471.0059	0.0021
471.2069	0.0174
471.408	0.0003
471.6089	0.0024
471.8099	-0.0019
472.0109	-0.0096
472.2119	-0.0062
472.4128	-0.0038
472.6137	-0.0096
472.8146	-0.0157
473.0155	-0.0099
473.2164	-0.0143
473.4173	-0.0026
473.6181	0.0082
473.819	-0.0074
474.0198	-0.0053
474.2206	0.0029
474.4214	0.0018
474.6222	-0.0084
474.8229	-0.0093
475.0237	-0.0081
475.2244	-0.0015
475.4251	-0.0062
475.6258	0.0072
475.8265	-0.0026
476.0272	0.003
476.2278	-0.0005
476.4285	-0.0067
476.6291	0.0014
476.8297	-0.0101
477.0303	-0.0027
477.2309	-0.0061
477.4315	0.0033
477.632	-0.0058
477.8326	-0.0028
478.0331	-0.0034
478.2336	-0.009
478.4341	-0.0081
478.6346	-0.0043
478.8351	-0.0054
479.0355	-0.0037
479.236	-0.0116
479.4364	-0.0062
479.6368	0.0036
479.8372	0.0002
480.0376	-0.0042
480.2379	-0.002
480.4383	-0.0055
480.6386	-0.0079
480.8389	-0.0131
481.0392	-0.0041
481.2395	-0.0135
481.4398	-0.0025
481.6401	-0.0085
481.8403	-0.0063
482.0405	-0.014
482.2408	0.0015
482.441	-0.0071
482.6411	0.0055
482.8413	-0.0061
483.0415	-0.0125
483.2416	-0.0075
483.4417	-0.0056
483.6419	0.0014
483.8419	-0.0115
484.042	-0.0049
484.2421	-0.0091
484.4422	-0.0032
484.6422	-0.0087
484.8422	-0.0053
485.0422	-0.0141
485.2422	-0.0079
485.4422	-0.0019
485.6422	-0.0086
485.8421	-0.0027
486.042	-0.0024
486.242	-0.008
486.4419	-0.0022
486.6417	-0.0061
486.8416	-0.0039
487.0415	-0.0099
487.2413	-0.0036
487.4411	-0.0048
487.641	-0.0093
487.8408	-0.01
488.0405	-0.0014
488.2403	-0.0066
488.4401	-0.0092
488.6398	-0.0116
488.8395	-0.0033
489.0392	-0.0095
489.2389	0.0023
489.4386	-0.0089
489.6383	-0.0095
489.8379	-0.0036
490.0376	-0.0008
490.2372	-0.0046
490.4368	-0.0116
490.6364	-0.0013
490.836	-0.0137
491.0355	-0.0084
491.2351	-0.0121
491.4346	-0.0104
491.6341	-0.0063
491.8336	-0.0037
492.0331	-0.0018
492.2326	-0.0159
492.432	-0.0036
492.6315	-0.005
492.8309	-0.0047
493.0303	0.0016
493.2297	-0.0078
493.4291	-0.0111
493.6284	-0.0017
493.8278	-0.0052
494.0271	-0.0091
494.2264	-0.0081
494.4257	-0.0056
494.625	-0.0034
494.8243	-0.0009
495.0236	-0.0115
495.2228	-0.005
495.422	-0.003
495.6213	-0.0123
495.8205	-0.0046
496.0196	-0.0009
496.2188	-0.0013
496.418	-0.0052
496.6171	-0.0004
496.8162	-0.0035
497.0153	-0.0019
497.2144	-0.0006
497.4135	-0.0089
497.6126	-0.0055
497.8116	-0.0013
498.0107	-0.0059
498.2097	0.0003
498.4087	-0.0063
498.6077	-0.0072
498.8067	-0.0093
499.0056	0.001
499.2046	0.003
499.4035	-0.009
499.6024	-0.0096
499.8013	0.0001
500.0002	-0.012
500.199	-0.0062
500.3979	-0.0042
500.5967	-0.0115
500.7956	-0.0112
500.9944	-0.0066
501.1932	-0.0039
501.3919	-0.0153
501.5907	-0.0116
501.7895	-0.0031
501.9882	-0.016
502.1869	-0.0073
502.3856	0.0014
502.5843	-0.005
502.783	-0.0058
502.9816	-0.0054
503.1803	-0.0069
503.3789	-0.0051
503.5775	-0.0027
503.7761	-0.0056
503.9747	-0.0047
504.1732	-0.0085
504.3718	0.0017
504.5703	-0.0059
504.7689	-0.0084
504.9674	-0.0022
505.1658	-0.0083
505.3643	-0.0035
505.5628	0.0034
505.7612	-0.0075
505.9597	-0.0052
506.1581	-0.0088
506.3565	-0.0073
506.5549	-0.0126
506.7532	-0.004
506.9516	-0.001
507.1499	-0.0029
507.3482	-0.0052
507.5465	-0.0053
507.7448	-0.0012
507.9431	-0.0053
508.1414	-0.0024
508.3396	-0.0026
508.5379	-0.0037
508.7361	0.0018
508.9343	-0.0051
509.1325	-0.0138
509.3306	0.0024
509.5288	-0.0033
509.7269	-0.0139
509.9251	-0.0076
510.1232	-0.0007
510.3213	-0.0081
510.5193	-0.0024
510.7174	0.0004
510.9154	-0.0042
511.1135	-0.004
511.3115	-0.0064
511.5095	-0.0058
511.7075	0.0027
511.9055	-0.0035
512.1034	-0.0104
512.3014	-0.0046
512.4993	-0.0105
512.6972	-0.013
512.8951	-0.0056
513.093	-0.0122
513.2908	0.0011
513.4887	-0.0062
513.6865	-0.0036
513.8844	0.003
514.0822	-0.0052
514.2799	-0.0055
514.4777	-0.0042
514.6755	-0.005
514.8732	-0.0135
515.0709	-0.0059
515.2687	-0.0024
515.4664	-0.0052
515.664	-0.0094
515.8617	-0.0103
516.0594	-0.0079
516.257	-0.0006
516.4546	-0.016
516.6522	-0.0131
516.8498	-0.0112
517.0474	-0.0043
517.2449	-0.0061
517.4425	-0.0001
517.64	0.0003
517.8375	-0.008
518.035	-0.0029
518.2325	-0.0051
518.43	-0.0039
518.6274	-0.0111
518.8249	-0.0043
519.0223	-0.0124
519.2197	-0.0016
519.4171	-0.0021
519.6145	-0.0052
519.8118	-0.0137
520.0092	-0.0011
520.2065	-0.0097
520.4038	0.0006
520.6011	-0.0072
520.7984	-0.0121
520.9956	-0.0049
521.1929	-0.0051
521.3901	-0.0089
521.5874	-0.0108
521.7846	0.0001
521.9818	-0.006
522.1789	-0.0035
522.3761	-0.0049
522.5732	-0.0052
522.7704	-0.0064
522.9675	-0.0053
523.1646	-0.0053
523.3617	-0.0036
523.5587	-0.0095
523.7558	-0.0037
523.9528	-0.0056
524.1498	-0.0084
524.3468	-0.0047
524.5438	-0.0089
524.7408	-0.0172
524.9378	-0.0105
525.1347	-0.007
525.3316	-0.0036
525.5285	-0.0022
525.7254	-0.0083
525.9223	-0.0047
526.1192	-0.006
526.316	-0.0041
526.5129	-0.005
526.7097	-0.0115
526.9065	0.0019
527.1033	-0.0032
527.3	-0.0063
527.4968	-0.0099
527.6935	-0.0004
527.8903	-0.0038
528.087	-0.0101
528.2837	-0.0024
528.4804	-0.0041
528.677	-0.005
528.8737	-0.0095
529.0703	-0.0009
529.2669	-0.0025
529.4635	-0.0072
529.6601	-0.0058
529.8567	-0.0037
530.0532	0.0017
530.2498	-0.0091
530.4463	-0.0017
530.6428	-0.0002
530.8393	-0.0023
531.0358	-0.0148
531.2322	-0.005
531.4287	-0.0109
531.6251	-0.0114
531.8215	-0.004
532.0179	-0.0118
532.2143	-0.0009
532.4107	-0.0027
532.607	-0.0069
532.8034	-0.0126
532.9997	-0.0069
533.196	-0.0087
533.3923	-0.005
533.5886	-0.0058
533.7848	-0.0008
533.9811	-0.002
534.1773	-0.0024
534.3735	-0.0021
534.5697	-0.007
534.7659	-0.0036
534.9621	-0.0005
535.1582	-0.0103
535.3544	-0.0109
535.5505	-0.0065
535.7466	-0.0063
535.9427	-0.0065
536.1387	0.0035
536.3348	-0.0027
536.5308	-0.009
536.7269	-0.0017
536.9229	-0.0043
537.1189	-0.0042
537.3148	-0.0025
537.5108	0.0029
537.7068	-0.0026
537.9027	-0.0089
538.0986	-0.0012
538.2945	-0.003
538.4904	-0.0063
538.6863	-0.0101
538.8821	-0.0059
539.078	-0.009
539.2738	-0.014
539.4696	-0.0088
539.6654	-0.0067
539.8611	-0.0096
540.0569	-0.0029
540.2526	-0.0032
540.4484	0.006
540.6441	0.0026
540.8398	-0.0092
541.0355	-0.0021
541.2311	0.0018
541.4268	-0.0052
541.6224	0.0045
541.818	-0.0105
542.0136	-0.007
542.2092	-0.0099
542.4048	-0.0034
542.6003	-0.0034
542.7959	0.0013
542.9914	-0.0082
543.1869	-0.0057
543.3824	-0.0043
543.5779	-0.0123
543.7734	-0.0119
543.9688	-0.0136
544.1642	-0.0052
544.3596	-0.0068
544.555	-0.0026
544.7504	-0.0101
544.9458	-0.008
545.1411	0.0099
545.3365	-0.0033
545.5318	0.0009
545.7271	0.0005
545.9224	0.0002
546.1177	-0.005
546.3129	-0.0004
546.5081	-0.0025
546.7034	-0.0008
546.8986	-0.0041
547.0938	-0.0065
547.289	-0.0036
547.4841	-0.0086
547.6793	-0.0047
547.8744	0.0009
548.0695	-0.0086
548.2646	-0.0125
548.4597	0.0019
548.6548	-0.0038
548.8498	-0.006
549.0448	0.0034
549.2399	-0.0054
549.4349	0.0002
549.6298	-0.0072
549.8248	-0.0059
550.0198	-0.0023
550.2147	-0.0013
550.4096	-0.0097
550.6045	-0.0048
550.7994	0.0026
550.9943	-0.0031
551.1892	-0.0014
551.384	-0.0085
551.5788	-0.0053
551.7737	-0.0011
551.9685	-0.0066
552.1632	-0.0054
552.358	-0.0099
552.5528	-0.0017
552.7475	-0.0095
552.9422	-0.0067
553.1369	-0.0105
553.3316	-0.0038
553.5263	-0.0068
553.7209	-0.009
553.9156	0.0003
554.1102	-0.0057
554.3048	-0.0072
554.4994	-0.0014
554.694	-0.0033
554.8885	-0.0055
555.0831	-0.0044
555.2776	-0.0043
555.4721	-0.0057
555.6666	-0.0081
555.8611	-0.0073
556.0555	-0.0055
556.25	-0.0041
556.4444	-0.0098
556.6388	-0.0051
556.8332	-0.0046
557.0276	-0.0077
557.222	-0.0044
557.4163	-0.0005
557.6107	-0.0091
557.805	-0.0041
557.9993	-0.0034
558.1936	-0.0097
558.3879	0.006
558.5821	-0.005
558.7764	-0.0088
558.9706	-0.007
559.1648	-0.0029
559.359	-0.0092
559.5532	-0.0051
559.7473	-0.0118
559.9415	-0.0114
560.1356	-0.0081
560.3297	-0.0093
560.5238	-0.0077
560.7179	-0.0073
560.9119	0.0075
561.106	-0.0034
561.3	-0.0047
561.494	-0.006
561.688	-0.0057
561.882	-0.0016
562.076	-0.0078
562.2699	-0.0042
562.4639	0.0004
562.6578	-0.0071
562.8517	-0.0041
563.0456	-0.002
563.2395	-0.0073
563.4333	0
563.6272	-0.0098
563.821	-0.0035
564.0148	-0.0008
564.2086	-0.0029
564.4024	-0.0037
564.5961	-0.0025
564.7899	-0.0011
564.9836	0.0034
565.1773	-0.0006
565.371	-0.0046
565.5647	-0.0039
565.7584	0.0002
565.952	-0.0003
566.1456	-0.0036
566.3393	-0.0071
566.5329	-0.0005
566.7264	0.0004
566.92	-0.0001
567.1136	0.0009
567.3071	-0.0033
567.5006	0.0036
567.6941	-0.0011
567.8876	-0.0012
568.0811	-0.0018
568.2745	-0.0092
568.468	-0.0042
568.6614	-0.0125
568.8548	-0.0112
569.0482	-0.0075
569.2416	-0.0064
569.4349	-0.0007
569.6283	-0.0061
569.8216	-0.0069
570.0149	-0.0043
570.2082	-0.0005
570.4015	-0.0016
570.5947	-0.0023
570.788	-0.0048
570.9812	-0.0054
571.1744	-0.0096
571.3676	-0.0068
571.5608	-0.0018
571.754	-0.0039
571.9471	-0.007
572.1402	-0.0039
572.3333	0.0011
572.5264	-0.0017
572.7195	-0.0024
572.9126	-0.0047
573.1057	-0.006
573.2987	-0.0028
573.4917	-0.0051
573.6847	-0.0009
573.8777	-0.0046
574.0707	-0.0021
574.2636	-0.0018
574.4566	-0.0041
574.6495	-0.0049
574.8424	-0.0036
575.0353	-0.0029
575.2281	-0.0017
575.421	-0.0035
575.6138	-0.0055
575.8067	-0.0039
575.9995	-0.0037
576.1923	-0.0066
576.385	-0.0039
576.5778	-0.0011
576.7706	0.0005
576.9633	-0.0018
577.156	-0.0025
577.3487	-0.0015
577.5414	0.002
577.734	0.0043
577.9267	0.0011
578.1193	-0.004
578.3119	-0.0004
578.5045	-0.0017
578.6971	-0.0052
578.8897	-0.0059
579.0822	-0.0031
579.2747	0.0022
579.4673	-0.0026
579.6598	-0.0041
579.8522	-0.0034
580.0447	-0.0037
580.2372	0.0046
580.4296	-0.0012
580.622	0.001
580.8144	-0.0038
581.0068	-0.0017
581.1992	0.0029
581.3915	-0.0001
581.5839	-0.005
581.7762	-0.0055
581.9685	-0.0019
582.1608	-0.0096
582.353	0.0043
582.5453	-0.0065
582.7375	0.0043
582.9298	-0.0036
583.122	-0.0017
583.3142	-0.0001
583.5063	-0.0029
583.6985	-0.0028
583.8906	-0.0053
584.0827	-0.005
584.2749	-0.0092
584.4669	-0.0046
584.659	-0.0075
584.8511	-0.003
585.0431	-0.0032
585.2352	-0.0046
585.4272	-0.0082
585.6192	-0.0062
585.8111	-0.0012
586.0031	0.0009
586.195	-0.0081
586.387	0.0028
586.5789	-0.0025
586.7708	-0.0097
586.9627	-0.0032
587.1545	-0.0065
587.3464	-0.0106
587.5382	-0.0013
587.73	-0.0031
587.9218	-0.0059
588.1136	-0.0013
588.3053	-0.0026
588.4971	-0.0049
588.6888	-0.0053
588.8805	0.0024
589.0722	-0.0047
589.2639	-0.0035
589.4556	-0.001
589.6472	-0.0007
589.8389	-0.0032
590.0305	-0.0073
590.2221	0.0013
590.4137	-0.004
590.6052	-0.0001
590.7968	0.0005
590.9883	0.0002
591.1798	-0.0075
591.3713	-0.0021
591.5628	-0.0066
591.7543	-0.003
591.9458	-0.0004
592.1372	0.0009
592.3286	-0.0002
592.52	-0.0057
592.7114	0.0074
592.9028	-0.0072
593.0941	-0.0019
593.2855	-0.001
593.4768	0.0024
593.6681	-0.0047
593.8594	0.0031
594.0506	0.0054
594.2419	0.0042
594.4331	-0.0053
594.6244	-0.0019
594.8156	-0.0081
595.0067	-0.0033
595.1979	-0.0039
595.3891	-0.0037
595.5802	-0.0047
595.7713	-0.0053
595.9624	0.0015
596.1535	0.0002
596.3446	-0.0073
596.5357	0.0017
596.7267	-0.0004
596.9177	0.0019
597.1087	-0.0056
597.2997	0.0044
597.4907	-0.0077
597.6817	-0.0038
597.8726	-0.0063
598.0635	-0.0038
598.2544	-0.0048
598.4453	-0.0029
598.6362	-0.0073
598.827	-0.007
599.0179	-0.0029
599.2087	-0.011
599.3995	-0.0077
599.5903	0.0009
599.7811	-0.0041
599.9718	-0.0023
600.1626	0.0012
600.3533	0.0005
600.544	-0.0055
600.7347	0.0029
600.9254	-0.0029
601.116	-0.0039
601.3067	-0.0041
601.4973	-0.0062
601.6879	-0.0012
601.8785	-0.0049
602.0691	-0.0047
602.2596	-0.0042
602.4502	0.0003
602.6407	-0.001
602.8312	-0.0045
603.0217	-0.0053
603.2122	-0.0095
603.4027	-0.0006
603.5931	-0.0028
603.7835	-0.002
603.9739	-0.0006
604.1643	-0.0021
604.3547	-0.0022
604.5451	-0.0042
604.7354	-0.0038
604.9257	-0.0036
605.116	-0.0014
605.3063	-0.0014
605.4966	-0.0023
605.6869	-0.0061
605.8771	-0.0028
606.0673	-0.0044
606.2575	-0.0041
606.4477	-0.0071
606.6379	-0.0118
606.8281	-0.0093
607.0182	-0.0044
607.2083	-0.0075
607.3985	-0.0095
607.5885	-0.0028
607.7786	-0.0039
607.9687	-0.0063
608.1587	-0.0004
608.3488	0.0002
608.5388	0.0018
608.7288	-0.0057
608.9187	-0.0056
609.1087	-0.0042
609.2986	-0.0032
609.4886	-0.0004
609.6785	-0
609.8684	-0.0049
610.0582	-0.0002
610.2481	0.0014
610.4379	-0.0013
610.6278	-0.0007
610.8176	-0.0001
611.0074	-0.0051
611.1971	-0.0001
611.3869	0.0007
611.5766	0.0028
611.7664	0.0017
611.9561	-0.0003
612.1458	0.0031
612.3354	-0.0038
612.5251	-0.007
612.7147	-0.0046
612.9044	-0.0016
613.094	-0.0007
613.2836	0.0008
613.4731	-0.0034
613.6627	-0.0064
613.8522	-0.0043
614.0417	-0.005
614.2313	-0.0038
614.4207	-0.0042
614.6102	-0.002
614.7997	-0.0048
614.9891	-0.0037
615.1785	-0.0055
615.3679	-0.0015
615.5573	-0.0024
615.7467	-0.0042
615.9361	-0.0024
616.1254	-0.007
616.3147	-0.0045
616.504	-0.0025
616.6933	-0.005
616.8826	-0.005
617.0718	-0.004
617.2611	0.0008
617.4503	-0.0025
617.6395	-0.0036
617.8287	-0.0015
618.0179	0.0042
618.207	-0.0033
618.3961	-0.0053
618.5853	-0.0035
618.7744	-0.0029
618.9634	0.005
619.1525	-0.0008
619.3416	-0.0116
619.5306	-0.0044
619.7196	-0.0016
619.9086	-0.0018
620.0976	0.002
620.2866	-0.0031
620.4755	-0.0018
620.6645	-0.0002
620.8534	0.0005
621.0423	-0.0068
621.2312	-0.0092
621.42	-0.0012
621.6089	-0.003
621.7977	-0.0046
621.9865	-0.0056
622.1753	-0.0037
622.3641	0.0027
622.5529	0.0002
622.7416	-0.0025
622.9303	0.001
623.1191	-0.0013
623.3078	0.0022
623.4964	-0.0021
623.6851	0.0035
623.8737	0.0018
624.0624	0.0016
624.251	0.0011
624.4396	-0.0007
624.6282	-0.0012
624.8167	0.0012
625.0053	-0.0006
625.1938	0.0008
625.3823	0.0024
625.5708	-0.0002
625.7593	-0.002
625.9477	-0.0071
626.1362	-0.0034
626.3246	-0.0012
626.513	-0.0071
626.7014	-0.0071
626.8898	-0.0004
627.0781	-0.0006
627.2665	-0.0062
627.4548	-0.0074
627.6431	-0.002
627.8314	-0.0052
628.0197	-0.0031
628.2079	-0.0004
628.3962	0.0002
628.5844	0.0007
628.7726	0.0017
628.9608	-0.0009
629.1489	0.0013
629.3371	0.0017
629.5252	0.0009
629.7134	0.0013
629.9015	0.0008
630.0895	0.0019
630.2776	0.0005
630.4657	-0.0026
630.6537	-0.0003
630.8417	0.0013
631.0297	-0.0034
631.2177	0.0051
631.4057	0.0002
631.5936	-0.0006
631.7815	-0.0047
631.9695	-0.0057
632.1574	-0.0087
632.3452	-0.0076
632.5331	-0.0058
632.7209	-0.0064
632.9088	-0.0042
633.0966	-0.0043
633.2844	-0.0068
633.4722	0.0032
633.6599	-0.0014
633.8477	-0.0006
634.0354	-0.0023
634.2231	-0.0054
634.4108	-0.0029
634.5985	-0.0057
634.7861	-0.0078
634.9738	-0.0038
635.1614	-0.0057
635.349	-0.0007
635.5366	-0
635.7242	-0.0024
635.9117	0.0004
636.0993	-0.0043
636.2868	-0.0028
636.4743	-0.0024
636.6618	-0.0051
636.8492	-0.0007
637.0367	0.0007
637.2241	-0.0038
637.4115	-0.007
637.5989	-0.0021
637.7863	-0.0021
637.9737	-0.0086
638.161	-0.0039
638.3484	-0.0048
638.5357	-0.0012
638.723	-0.0024
638.9103	0.0016
639.0975	-0.0007
639.2848	-0.005
639.472	0.0045
639.6592	0.0059
639.8464	-0.0013
640.0336	-0.0044
640.2208	0.0026
640.4079	-0.0057
640.595	0.0007
640.7821	-0.0026
640.9692	-0.0006
641.1563	0.0007
641.3434	0.0005
641.5304	0.0022
641.7174	0.0025
641.9044	0.005
642.0914	0.0029
642.2784	0.0067
642.4653	0.0084
642.6523	0.0006
642.8392	0.0041
643.0261	0.006
643.213	0.0007
643.3999	-0.0003
643.5867	-0.0018
643.7735	0.0012
643.9604	-0.0038
644.1472	-0.0011
644.3339	-0
644.5207	-0.0027
644.7075	-0.0077
644.8942	-0.0009
645.0809	-0.0032
645.2676	-0.0022
645.4543	0.006
645.6409	-0.0003
645.8276	-0.0012
646.0142	-0.0041
646.2008	-0.0061
646.3874	-0.0018
646.574	-0.0064
646.7605	0.0002
646.9471	-0.0086
647.1336	-0.0069
647.3201	-0.0051
647.5066	-0.001
647.6931	0.0025
647.8795	-0.0064
648.0659	-0.0044
648.2524	-0.0041
648.4388	-0.006
648.6252	-0.0042
648.8115	-0.0152
648.9979	-0.0034
649.1842	-0.0108
649.3705	-0.0044
649.5568	-0.0025
649.7431	-0.0044
649.9294	-0.0038
650.1156	-0.0055
650.3018	-0.0032
650.488	-0.0078
650.6742	-0.0049
650.8604	-0.0006
651.0466	0.002
651.2327	-0.0008
651.4188	-0.0024
651.6049	0.0007
651.791	-0.0009
651.9771	-0.002
652.1632	0.0006
652.3492	0.0001
652.5352	-0.0023
652.7212	-0.0015
652.9072	0.0026
653.0932	-0.0009
653.2791	-0.0023
653.465	-0.0009
653.651	-0.0012
653.8369	-0.0009
654.0227	-0.0005
654.2086	0.0023
654.3944	-0.0074
654.5803	-0.0056
654.7661	-0.006
654.9519	-0.0023
655.1377	-0.0028
655.3234	-0
655.5092	-0
655.6949	-0
655.8806	-0
656.0663	-0
656.2519	-0
656.4376	-0.0025
656.6232	-0.0047
656.8088	-0.0019
656.9945	-0.0051
657.18	-0.0004
657.3656	-0.0021
657.5511	-0.0048
657.7367	-0.001
657.9222	-0.0009
658.1077	0.0002
658.2932	-0.001
658.4786	-0.0048
658.6641	-0.0037
658.8495	-0.0028
659.0349	-0.0036
659.2203	-0.0078
659.4057	-0.0068
659.591	-0.0021
659.7764	-0.0051
659.9617	-0.005
660.147	-0.0026
660.3323	-0.0012
660.5176	-0.0074
660.7028	-0.0072
660.888	-0.0033
661.0733	-0.0014
661.2585	-0.0064
661.4436	-0.0003
661.6288	0.0005
661.8139	0.0005
661.9991	0.0039
662.1842	-0.0006
662.3693	-0.0002
662.5544	0.002
662.7394	-0.001
662.9245	-0.0016
663.1095	0.0015
663.2945	0.0015
663.4795	0.0024
663.6644	-0.0051
663.8494	-0.0074
664.0343	-0.0022
664.2193	-0.0053
664.4042	-0.0107
664.589	-0.0022
664.7739	-0.0053
664.9587	0.0014
665.1436	0
665.3284	0.0017
665.5132	-0.0004
665.698	0.0025
665.8827	-0.0035
666.0675	-0.0068
666.2522	-0.0139
666.4369	-0.0053
666.6216	-0.0127
666.8063	-0.0044
666.9909	-0.012
667.1756	-0.0067
667.3602	-0.0089
667.5448	-0.01
667.7294	-0.0068
667.9139	-0.0066
668.0985	-0.0098
668.283	-0.0045
668.4675	-0.0119
668.652	-0.0109
668.8365	-0.0053
669.0209	-0.0088
669.2054	-0.0044
669.3898	-0.0069
669.5742	-0.0067
669.7586	-0.0016
669.943	-0.0096
670.1273	-0.009
670.3117	-0.0066
670.496	-0.0045
670.6803	-0.0059
670.8646	-0.0042
671.0488	-0.0015
671.2331	0.0004
671.4173	-0.001
671.6015	-0.0023
671.7857	-0.006
671.9699	-0.0016
672.1541	-0.0041
672.3382	-0.0033
672.5223	-0.0099
672.7064	-0.01
672.8905	-0.017
673.0746	-0.0096
673.2587	-0.0158
673.4427	-0.011
673.6267	-0.0111
673.8107	-0.0134
673.9947	-0.0085
674.1787	-0.008
674.3626	-0.0065
674.5465	-0.0064
674.7304	-0.0015
674.9143	-0.0015
675.0982	0.0016
675.2821	-0.002
675.4659	-0.0041
675.6497	0.0008
675.8335	-0.0025
676.0173	-0.0049
676.2011	-0.0048
676.3849	-0.0047
676.5686	-0.0022
676.7523	-0.0088
676.936	0.0007
677.1197	-0.0009
677.3034	-0.0063
677.487	-0.0078
677.6706	-0.0029
677.8542	-0.0032
678.0378	-0.0029
678.2214	-0.0117
678.405	0.0007
678.5885	-0.0081
678.772	0.0029
678.9555	-0.0049
679.139	-0.0084
679.3225	-0.0117
679.5059	-0.0054
679.6894	-0.0002
679.8728	-0.0005
680.0562	0.0003
680.2395	-0.0059
680.4229	-0.0003
680.6062	0.0019
680.7896	-0.0012
680.9729	-0.0007
681.1562	0.0037
681.3394	-0.0009
681.5227	-0.0001
681.7059	-0.0046
681.8891	-0.0039
682.0723	-0.006
682.2555	-0.0009
682.4387	0.0007
682.6218	-0.0091
682.805	-0.0024
682.9881	-0.0048
683.1712	0.0069
683.3542	-0.0018
683.5373	-0.0079
683.7203	-0.0074
683.9034	-0.0005
684.0864	-0.0078
684.2694	-0.0064
684.4523	-0.0061
684.6353	0.0005
684.8182	-0.005
685.0011	-0.0015
685.184	-0.0062
685.3669	-0.004
685.5498	0.0018
685.7326	-0.0031
685.9154	-0.0056
686.0982	-0.0013
686.281	-0.0064
686.4638	-0.0054
686.6465	-0.007
686.8293	-0.0053
687.012	-0.0039
687.1947	-0.0082
687.3774	-0.0036
687.56	-0.0045
687.7427	0.0012
687.9253	-0.0062
688.1079	0.0029
688.2905	-0.0025
688.4731	-0.0042
688.6556	-0.0042
688.8382	-0.0019
689.0207	-0.0004
689.2032	0.0015
689.3857	-0.0026
689.5681	-0.0012
689.7506	-0.0027
689.933	-0.0016
690.1154	-0.0051
690.2978	0.0019
690.4802	-0.0019
690.6626	0.0068
690.8449	0.0009
691.0272	0.0007
691.2095	0.0029
691.3918	-0.006
691.5741	-0.0062
691.7563	-0.002
691.9386	-0.0057
692.1208	-0.0067
692.303	-0.0042
692.4852	0.0002
692.6673	-0.0036
692.8495	-0.0034
693.0316	-0.0014
693.2137	-0.0074
693.3958	-0.0043
693.5778	-0.0017
693.7599	-0.0037
693.9419	-0.0098
694.1239	-0.0047
694.3059	-0.0076
694.4879	-0.0042
694.6699	-0.0073
694.8518	-0.0069
695.0337	-0.005
695.2157	-0.0077
695.3975	-0.0044
695.5794	-0.0061
695.7613	-0.0054
695.9431	-0.0072
696.1249	-0.0051
696.3067	-0.0075
696.4885	-0.0022
696.6703	-0.003
696.852	-0.0088
697.0337	-0.0006
697.2154	-0.0003
697.3971	-0.0025
697.5788	-0.0038
697.7605	-0.0002
697.9421	-0.0065
698.1237	-0.0043
698.3053	-0.0052
698.4869	0.0046
698.6685	0.0004
698.85	-0.0088
699.0315	0.0006
699.213	-0.0009
699.3945	0.0028
699.576	0.0057
699.7575	0.0025
699.9389	0.0023
700.1203	-0.0062
700.3017	-0.0077
700.4831	-0.0005
700.6645	-0.0087
700.8458	-0.0019
701.0271	-0.0013
701.2084	-0.0093
701.3897	-0.0054
701.571	-0.0025
701.7523	-0.0005
701.9335	0.0006
702.1147	0.0045
702.2959	-0.0023
702.4771	-0.0035
702.6583	0.002
702.8394	0.0005
703.0205	-0.0024
703.2016	0.0021
703.3827	0.0089
703.5638	-0.0031
703.7449	-0.0064
703.9259	-0.0014
704.1069	-0.0033
704.2879	-0.0003
704.4689	-0.0035
704.6499	-0.0045
704.8308	-0.0015
705.0117	0.0021
705.1927	-0.0012
705.3735	0.0012
705.5544	0.0043
705.7353	0.0011
705.9161	0.0022
706.0969	0.0005
706.2777	-0
706.4585	-0.0011
706.6393	-0.0022
706.82	-0.0064
707.0007	-0.0042
707.1815	-0.0049
707.3621	-0.0003
707.5428	-0.006
707.7235	-0.0001
707.9041	0.0016
708.0847	-0.0045
708.2653	-0.0041
708.4459	-0.0031
708.6265	-0.0064
708.807	-0.0003
708.9875	-0.0039
709.168	-0.0016
709.3485	-0.0034
709.529	-0.0062
709.7095	-0.0032
709.8899	-0.0101
710.0703	0.0009
710.2507	-0.0056
710.4311	-0.0029
710.6115	0.0047
710.7918	-0.0013
710.9721	-0.0005
711.1524	-0
711.3327	0.0022
711.513	-0.0007
711.6932	-0.0021
711.8735	0.0006
712.0537	0.0008
712.2339	-0.0002
712.4141	-0.0005
712.5942	0.0037
712.7744	0.0006
712.9545	0.0008
713.1346	-0.0023
713.3147	0.0027
713.4947	0.0066
713.6748	-0.0054
713.8548	-0.0065
714.0348	-0.0028
714.2148	-0.0038
714.3948	-0.0064
714.5748	-0.0117
714.7547	-0.0094
714.9346	-0.0084
715.1145	-0.003
715.2944	-0.0035
715.4743	-0.0017
715.6541	-0.0068
715.834	-0.006
716.0138	-0.0015
716.1936	0.0073
716.3733	-0.0038
716.5531	-0.0054
716.7328	-0.0065
716.9126	-0.0013
717.0923	-0.0034
717.2719	-0.0097
717.4516	-0.0063
717.6312	0.001
717.8109	0.0011
717.9905	-0.0098
718.1701	-0.0003
718.3496	0.0016
718.5292	0.002
718.7087	-0.0039
718.8882	-0.0037
719.0677	-0.0002
719.2472	0.0001
719.4267	-0.0113
719.6061	-0.0052
719.7856	-0.0017
719.965	-0.0077
720.1443	-0.0033
720.3237	-0.0029
720.5031	-0.0124
720.6824	-0.0026
720.8617	-0.0078
721.041	-0.0033
721.2203	-0.0037
721.3995	-0.0007
721.5788	-0.0161
721.758	-0.0084
721.9372	-0.0076
722.1164	-0.0087
722.2956	-0.0072
722.4747	-0.0058
722.6538	-0.0056
722.8329	-0.0068
723.012	-0.0042
723.1911	-0.0025
723.3702	0.0027
723.5492	-0.0039
723.7282	-0.0054
723.9072	0.0025
724.0862	-0.0002
724.2652	-0.0072
724.4441	-0.0051
724.623	-0.0001
724.8019	0.0033
724.9808	-0.0033
725.1597	0.0007
725.3385	0.0021
725.5174	0.0012
725.6962	-0.0089
725.875	0.0063
726.0538	0.0077
726.2325	-0.0082
726.4112	-0.0023
726.59	0
726.7687	-0.0003
726.9474	-0.0039
727.126	-0.0029
727.3047	-0.0048
727.4833	0.0039
727.6619	-0.012
727.8405	0.0016
728.0191	-0.0038
728.1976	-0.006
728.3762	-0.0057
728.5547	-0.0037
728.7332	-0.0084
728.9116	-0.0105
729.0901	-0.0104
729.2686	-0.0083
729.447	-0.0021
729.6254	-0.0125
729.8038	-0.0149
729.9821	-0.0032
730.1605	-0.0011
730.3388	-0.0037
730.5171	-0.0002
730.6954	-0.0053
730.8737	0.0005
731.0519	0.0018
731.2302	-0.0021
731.4084	0.0042
731.5866	0.0032
731.7648	0.0052
731.9429	0.0081
732.1211	0.0038
732.2992	-0.0007
732.4773	-0.002
732.6554	-0.0056
732.8335	-0.003
733.0115	-0.0041
733.1896	-0.007
733.3676	-0.0034
733.5456	-0.0032
733.7235	-0.0034
733.9015	0.0028
734.0794	0.0028
734.2574	-0.004
734.4353	-0.0024
734.6131	0.0018
734.791	-0.0037
734.9689	-0.006
735.1467	0.0066
735.3245	-0.0038
735.5023	-0.0033
735.68	-0.0064
735.8578	-0.0001
736.0355	0.0062
736.2132	-0.0038
736.3909	-0.0005
736.5686	-0.0046
736.7463	0.0008
736.9239	-0.0029
737.1015	-0.0012
737.2791	-0.0043
737.4567	-0.0073
737.6343	-0.0003
737.8118	-0.0083
737.9894	0.0015
738.1669	-0.0041
738.3444	-0.0026
738.5218	0.0027
738.6993	-0.0006
738.8767	0.0011
739.0541	-0.0033
739.2315	-0.0028
739.4089	-0.0051
739.5863	-0.0057
739.7636	-0.0037
739.9409	-0.0036
740.1182	0.0015
740.2955	-0.0002
740.4728	-0.0024
740.65	-0.0008
740.8272	0.0035
741.0044	-0.0019
741.1816	-0.0009
741.3588	0.0044
741.5359	-0.0026
741.7131	-0.0018
741.8902	0.0006
742.0673	-0.003
742.2444	-0.0065
742.4214	-0.0107
742.5985	-0.0061
742.7755	-0.0076
742.9525	-0.0012
743.1295	-0.0055
743.3064	-0.008
743.4834	-0.001
743.6603	-0.0035
743.8372	-0.0014
744.0141	-0.001
744.191	-0.0025
744.3678	-0.0027
744.5446	0.0025
744.7215	-0.0096
744.8982	0.0009
745.075	-0.0038
745.2518	-0.0027
745.4285	-0.003
745.6052	0.0015
745.7819	-0.0008
745.9586	0.0039
746.1353	-0.0016
746.3119	0.0021
746.4885	-0.0029
746.6651	-0.0037
746.8417	-0.0019
747.0183	-0.0038
747.1948	-0.0101
747.3714	-0.0154
747.5479	-0.0039
747.7244	0.0003
747.9008	0.0016
748.0773	0.0047
748.2537	0.0046
748.4301	0.0006
748.6065	-0.005
748.7829	0.0021
748.9593	0.0037
749.1356	-0.0042
749.3119	-0.005
749.4882	0.0078
749.6645	-0.0011
749.8408	-0.0018
750.017	-0.0025
750.1933	-0.0053
750.3695	-0.0082
750.5457	-0.0055
750.7218	-0.0138
750.898	-0.0105
751.0741	-0.0092
751.2502	-0.0083
751.4263	-0.0101
751.6024	-0.0065
751.7784	-0.0035
751.9545	-0.0037
752.1305	0.0048
752.3065	-0.0025
752.4825	-0.0032
752.6584	-0.0016
752.8344	-0.0042
753.0103	-0.0013
753.1862	0.0032
753.3621	0.0033
753.5379	-0.0031
753.7138	0.0029
753.8896	-0.0099
754.0654	-0.0038
754.2412	-0.0132
754.417	-0.0076
754.5927	-0.0051
754.7685	-0.0083
754.9442	-0.0102
755.1199	-0.0092
755.2956	-0.0046
755.4712	-0.0052
755.6469	-0.0129
755.8225	-0.004
755.9981	-0.0057
756.1736	-0.0053
756.3492	-0.0054
756.5248	-0.0029
756.7003	-0.0092
756.8758	-0.0078
757.0513	-0.0153
757.2267	-0.0056
757.4022	-0.01
757.5776	-0.0151
757.753	-0.0151
757.9284	-0.0098
758.1038	-0.0048
758.2791	-0.0136
758.4545	-0.0112
758.6298	-0.0115
758.8051	-0.0042
758.9803	-0.0085
759.1556	-0.009
759.3308	0.0012
759.506	-0.0101
759.6812	-0.0098
759.8564	-0.0052
760.0316	-0.0108
760.2067	-0.0051
760.3819	-0.0076
760.557	-0.0085
760.732	-0.007
760.9071	-0.0106
761.0821	-0.0149
761.2572	-0.012
761.4322	-0.0095
761.6072	-0.0108
761.7821	-0.0146
761.9571	-0.0181
762.132	-0.0121
762.3069	-0.005
762.4818	-0.0003
762.6567	-0.0115
762.8316	-0.0027
763.0064	0.0025
763.1812	0.001
763.356	0.0037
763.5308	0.0001
763.7055	0.0016
763.8803	-0.0058
764.055	0.0004
764.2297	0.0052
764.4044	-0.003
764.579	0.0012
764.7537	-0.0009
764.9283	-0.007
765.1029	0.0019
765.2775	-0.0007
765.4521	0.0006
765.6266	0.0001
765.8011	0.0019
765.9756	0.0005
766.1501	0.003
766.3246	0.0004
766.4991	-0.0013
766.6735	-0.0034
766.8479	-0.0097
767.0223	0.0005
767.1967	-0.0037
767.371	-0.0041
767.5454	0.001
767.7197	-0.0011
767.894	-0.0026
768.0683	0.0071
768.2425	-0.0027
768.4168	-0.0102
768.591	0.0059
768.7652	-0.0042
768.9394	0.0032
769.1135	0.0021
769.2877	0.0026
769.4618	0.0013
769.6359	0.0015
769.81	0.008
769.984	-0.0143
770.1581	0.0013
770.3321	-0.0023
770.5061	0.0042
770.6801	0.0018
770.8541	0.0011
771.028	0.005
771.202	0.0038
771.3759	0.0011
771.5498	0.0087
771.7236	0.0017
771.8975	-0.0016
772.0713	0.0072
772.2451	0.0079
772.4189	0.0069
772.5927	-0.0068
772.7665	-0.0011
772.9402	0.0034
773.1139	0.0015
773.2876	-0.0036
773.4613	0.0037
773.635	-0.0017
773.8086	0.0037
773.9822	0.0063
774.1558	0.0041
774.3294	0.0071
774.503	-0.0038
774.6765	-0.0019
774.8501	0.005
775.0236	-0.0112
775.1971	-0.0095
775.3705	0.0006
775.544	0.0008
775.7174	0.0034
775.8908	-0.0035
776.0642	-0.0034
776.2376	0.0003
776.4109	-0.0109
776.5843	0.0088
776.7576	-0.003
776.9309	0.0004
777.1041	-0.0034
777.2774	0.0064
777.4506	0.008
777.6238	-0.0008
777.797	0.0004
777.9702	-0.0054
778.1434	-0.0063
778.3165	-0
778.4896	-0.0101
778.6627	-0.0103
778.8358	-0.0024
779.0089	-0.0001
779.1819	-0.0044
779.3549	0.0029
779.5279	-0.0007
779.7009	-0.0075
779.8739	-0.0046
780.0468	-0.0105
780.2197	-0.0056
780.3926	-0.0088
780.5655	-0.0017
780.7384	-0.0013
780.9112	-0.0137
781.0841	-0.0043
781.2569	-0.0031
781.4297	-0.0072
781.6024	-0.0018
781.7752	0.0034
781.9479	-0.0076
782.1206	0.0016
782.2933	-0.0044
782.466	-0.0052
782.6386	-0.0025
782.8113	-0.0133
782.9839	-0.0058
783.1565	-0.0068
783.329	-0.0081
783.5016	-0.0039
783.6741	-0.0136
783.8466	-0.0128
784.0191	-0.0077
784.1916	0.0006
784.3641	-0.0024
784.5365	0.0001
784.7089	0.0027
784.8813	0.0065
785.0537	0.006
785.2261	0.0001
785.3984	-0.007
785.5707	0.0009
785.743	0.0074
785.9153	-0.003
786.0876	0.0039
786.2598	0.0132
786.432	0.0112
786.6042	0.0104
786.7764	0.0075
786.9486	0.0039
787.1207	-0.004
787.2928	0.0021
787.4649	-0.008
787.637	0.0036
787.8091	-0.0022
787.9811	0.006
788.1532	-0.0063
788.3252	-0.0065
788.4972	-0.0055
788.6691	-0.0006
788.8411	-0.0016
789.013	0.0019
789.1849	0.0005
789.3568	-0.0146
789.5287	-0.0017
789.7005	-0.0058
789.8723	-0.0019
790.0442	-0.0079
790.2159	0.0072
790.3877	-0.0079
790.5595	-0.0019
790.7312	0.0013
790.9029	-0.008
791.0746	-0.0055
791.2463	-0.0006
791.4179	-0.007
791.5896	0.012
791.7612	-0.0014
791.9328	0.0018
792.1044	-0.0061
792.2759	0.0131
792.4474	0.0037
792.619	-0.0016
792.7905	-0.0046
792.9619	-0.0012
793.1334	-0.0021
793.3048	-0.0016
793.4762	-0.0028
793.6476	-0.0156
793.819	-0.0057
793.9904	-0.0141
794.1617	-0.0182
794.333	-0.0133
794.5043	-0.0025
794.6756	0.0031
794.8469	0.0024
795.0181	-0.0161
795.1893	-0.0074
795.3605	-0.0093
795.5317	-0.0046
795.7029	-0.0093
795.874	-0.0065
796.0452	-0.008
796.2163	-0.0138
796.3873	-0.016
796.5584	-0.0114
796.7294	-0.0115
796.9005	-0.0099
797.0715	-0.0118
797.2425	-0.0188
797.4134	-0.0075
797.5844	-0.011
797.7553	-0.0148
797.9262	-0.0087
798.0971	-0.016
798.2679	-0.0139
798.4388	-0.0176
798.6096	-0.0171
798.7804	-0.0139
798.9512	-0.0106
799.122	-0.0016
799.2927	-0.0137
799.4635	-0.0053
799.6342	-0.0149
799.8049	-0.0059
799.9755	-0.004
800.1462	-0.0217
800.3168	-0.0082
800.4874	-0.0095
800.658	-0.0245
800.8286	-0.0128
800.9991	-0.0077
801.1696	-0.0049
801.3402	-0.013
801.5106	-0.0222
801.6811	-0.0113
801.8516	-0.0075
802.022	-0.0181
802.1924	-0.0239
802.3628	-0.0213
802.5332	-0.0168
802.7035	-0.0127
802.8739	-0.0047
803.0442	-0.0129
803.2145	-0.011
803.3847	-0.0209
803.555	-0.0175
803.7252	-0.0093
803.8954	-0.0092
804.0656	-0.0031
804.2358	-0.0099
804.4059	-0.012
804.5761	-0.0102
804.7462	-0.006
804.9163	-0.0031
805.0864	-0.0079
805.2564	-0.0072
805.4264	-0.0116
805.5965	-0.0159
805.7665	-0.0116
805.9364	-0.0145
806.1064	-0.0176
806.2763	-0.0081
806.4462	-0.006
806.6161	-0.0172
806.786	-0.014
806.9559	-0.0097
807.1257	-0.0129
807.2955	-0.0074
807.4653	-0.0088
807.6351	-0.0043
807.8048	0.0015
807.9746	-0.0074
808.1443	0.0047
808.314	0.0014
808.4837	0.0019
808.6533	-0.0011
808.8229	-0.0014
808.9926	0.0014
809.1622	-0.0051
809.3317	0.0111
809.5013	0.0042
809.6708	0.0033
809.8403	-0.007
810.0098	0.0112
810.1793	-0.0156
810.3488	0.0055
810.5182	0.0022
810.6876	0.0014
810.857	-0.0172
811.0264	-0.0074
811.1958	-0.0052
811.3651	-0.011
811.5344	-0.004
811.7037	-0.0039
811.873	0.0003
812.0422	-0.0081
812.2115	-0.0075
812.3807	-0.0002
812.5499	-0.0017
812.7191	-0.0125
812.8882	-0.0016
813.0574	0.0033
813.2265	-0.0012
813.3956	-0.0038
813.5646	-0.0127
813.7337	0.0028
813.9027	-0.003
814.0718	-0.0043
814.2407	0.0082
814.4097	-0.0062
814.5787	-0.0046
814.7476	-0.0053
814.9165	-0.0041
815.0854	-0.0102
815.2543	0.0019
815.4232	0.0065
815.592	0.0069
815.7608	0.0038
815.9296	-0.0033
816.0984	0.0158
816.2671	-0.0042
816.4359	-0.0063
816.6046	0.0034
816.7733	-0.0079
816.942	0.0093
817.1106	-0.0049
817.2793	-0.0015
817.4479	-0.0031
817.6165	-0.012
817.785	-0.0056
817.9536	-0.0079
818.1221	-0.0111
818.2906	-0.0067
818.4591	-0.0144
818.6276	0.0122
818.7961	-0.0134
818.9645	-0.0016
819.1329	-0.0003
819.3013	-0.0133
819.4697	-0.0088
819.638	-0.0164
819.8064	-0.0153
819.9747	0.0049
820.143	-0.0067
820.3113	-0.001
820.4795	0.0231
820.6477	-0.0098
820.816	-0.0038
820.9842	-0.0084
821.1523	-0.0175
821.3205	-0.0029
821.4886	0.001
821.6567	-0.0002
821.8248	-0.0062
821.9929	-0.006
822.1609	-0.0002
822.329	-0.0066
822.497	-0.0116
822.665	-0.0106
822.833	-0.0299
823.0009	-0.0149
823.1688	-0.0093
823.3367	-0.001
823.5046	-0.0148
823.6725	-0.024
823.8404	-0.005
824.0082	0.0009
824.176	0.0091
824.3438	-0.0005
824.5116	0.0058
824.6793	0.0007
824.847	-0.011
825.0147	-0.0208
825.1824	-0.0297
825.3501	0.006
825.5177	-0.0093
825.6854	0.0092
825.853	0.0095
826.0206	0.0063
826.1881	-0.0034
826.3557	0.0015
826.5232	0.0001
826.6907	0.001
826.8582	0.0076
827.0257	-0.0065
827.1931	0.0028
827.3605	0.0057
827.528	-0.0089
827.6953	-0.0126
827.8627	0.0042
828.03	-0.0082
828.1974	-0.0097
828.3647	0.0104
828.532	-0.0098
828.6992	-0.0068
828.8665	-0.0093
829.0337	-0.003
829.2009	-0.0282
829.3681	-0.0152
829.5352	-0.0031
829.7024	-0.019
829.8695	-0.0269
830.0366	-0.0315
830.2037	-0.0007
830.3707	-0.0171
830.5378	-0.0115
830.7048	-0.0129
830.8718	0.0064
831.0388	-0.0127
831.2057	-0.0134
831.3727	-0.0271
831.5396	0.0145
831.7065	0.0068
831.8734	0.0011
832.0402	-0.0179
832.2071	0.0029
832.3739	0.0157
832.5407	0.0022
832.7075	0.0003
832.8742	0.0052
833.041	0.0058
833.2077	-0.0225
833.3744	-0.0092
833.541	-0.0055
833.7077	-0.0115
833.8743	0.0058
834.0409	0.002
834.2075	-0.0105
834.3741	0.0034
834.5407	-0.0059
834.7072	-0.0036
834.8737	-0.0176
835.0402	-0.0243
835.2067	-0.0348
835.3731	-0.0078
835.5395	-0.0122
835.706	-0.0251
835.8723	-0.0178
836.0387	-0.0387
836.2051	-0.0053
836.3714	0.0176
836.5377	0.0103
836.704	-0.0057
836.8703	-0.0277
837.0365	0.0053
837.2027	0.007
837.3689	-0.0034
837.5351	-0.0022
837.7013	0.0004
837.8674	0.009
838.0335	0.0012
838.1997	0.0065
838.3657	0.008
838.5318	-0.0224
838.6978	-0.0362
838.8639	0.0103
839.0299	-0.0112
839.1958	-0.0072
839.3618	0.0191
839.5277	-0.0126
839.6937	-0.0123
839.8596	-0.0004
840.0254	-0.0067
840.1913	0.0232
840.3571	0.0134
840.523	0.0042
840.6888	0.0058
840.8545	0.0033
841.0203	-0.0185
841.186	-0.0132
841.3517	-0.0183
841.5174	0.0144
841.6831	0.0159
841.8488	-0.0035
842.0144	0.0515
842.18	-0.0233
842.3456	-0.015
842.5112	0.0073
842.6767	0.0143
842.8422	0.0088
843.0077	0.0015
843.1732	0.0115
843.3387	-0.0304
843.5042	0.0124
843.6696	0.0098
843.835	-0.0055
844.0004	0.0005
844.1657	0.0068
844.3311	0.0065
844.4964	-0.012
844.6617	0.0146
844.827	0.0222
844.9923	0.0061
845.1575	0.0509
845.3227	-0.0185
845.4879	0.0136
845.6531	-0.0072
845.8183	-0.0102
845.9834	-0.0153
846.1485	0.0105
846.3136	-0.0597
846.4787	-0.0068
846.6438	-0.0145
846.8088	0.0196
846.9738	-0.0072
847.1388	-0.0112
847.3038	0.0002
847.4687	-0.0045
847.6337	0.011
847.7986	0.0342
847.9635	0.0007
848.1284	-0.0097
848.2932	0.0103
848.458	0.0451
848.6228	0.0671
848.7876	-0.063
848.9524	0.0261
849.1172	-0.0301
849.2819	0.0258
849.4466	-0.0216
849.6113	0.0098
849.7759	-0.0029
849.9406	0.0068
850.1052	-0.0068
850.2698	-0.0023
850.4344	0.0165
850.599	-0.0143
850.7635	0.0046
850.928	-0.026
851.0925	0.0285
851.257	0.0118
851.4215	-0.0051
851.5859	0.0249
851.7503	0.0349
851.9147	-0.0391
852.0791	0.0137
852.2434	0.0003
852.4078	0.0204
852.5721	-0.0144
852.7364	-0.0649
852.9007	0.0301
853.0649	-0.0243
853.2291	0.0357
853.3934	-0.0235
853.5575	0.0084
853.7217	-0.0381
853.8859	-0.0223
854.05	0.0074
854.2141	-0.0227
854.3782	0.0502
854.5423	-0.0279
854.7063	0.033
854.8703	-0.0293
855.0343	-0.006
855.1983	0.0004
855.3623	-0.0102
855.5262	0.028
855.6901	-0.0264
855.854	-0.0239
856.0179	0.0151
856.1818	0.0174
856.3456	-0.0063
856.5094	-0.0087
856.6732	-0.003
856.837	-0.0289
857.0008	0.0624
857.1645	-0.0073
857.3282	-0.0244
857.4919	-0.0206
857.6556	0.0449
857.8192	-0.0186
857.9828	0.0353
858.1465	-0.0078
858.31	-0.0138
858.4736	-0.0905
858.6372	-0.0173
858.8007	-0.0144
858.9642	-0.0038
859.1277	0.0537
859.2911	0.06
859.4546	0.0054
859.618	-0.0449
859.7814	-0.0203
859.9448	-0.0725
860.1081	0.0009
860.2715	0.0287
860.4348	0.045
860.5981	0.0284
860.7614	-0.079
860.9246	-0.0441
861.0879	-0.0291
861.2511	0.0065
861.4143	-0.032
861.5774	0.0065
861.7406	-0.0363
861.9037	-0.1245
862.0668	-0.0067
862.2299	-0.0458
862.393	0.001
862.556	0.0603
862.7191	-0.0987
862.8821	0.0141
863.0451	0.021
863.208	-0.0964
863.371	0.0858
863.5339	0.0415
863.6968	-0.0902
863.8597	0.0931
864.0225	-0.0563
864.1854	0.0533
864.3482	-0.2187
864.511	-0.161
864.6737	-0.0492
864.8365	-0.043
864.9992	-0.0519
865.1619	-0.021
865.3246	0.0053
865.4873	0.1084
865.65	0.0291
865.8126	-0.0046
865.9752	0.1099
866.1378	-0.0918
866.3004	0.0686
866.4629	-0.0762
866.6254	-0.0347
866.7879	-0.1934
866.9504	-0.1488
867.1129	-0.0647
867.2753	-0.0749
867.4377	0.2791
867.6001	-0.1501
867.7625	0.0832
867.9249	-0.0471
868.0872	-0.0105
868.2495	-0.0475
868.4118	-0.0976
868.5741	-0.1054
868.7363	0.2622
868.8986	0.0799
869.0608	-0.1588
869.223	-0.0873
869.3851	-0.0167
869.5473	0.048
869.7094	0.3003
869.8715	0.0023
870.0336	-0.1131
870.1957	0.1147
870.3577	0.0025
870.5197	-0
870.6817	-0.1272
870.8437	-0.2761
871.0057	0.0351
871.1676	-0.2043
871.3295	-0.1831
871.4914	0.0327
871.6533	0.1192
871.8151	-0.256
871.977	0.1301
872.1388	-0.2106
872.3006	-0.1012
872.4623	0.1016
872.6241	0.0605
872.7858	-0.0389
872.9475	-0.2643
873.1092	-0.037
873.2709	0.4078
873.4325	-0.1058
873.5941	-0.1526
873.7557	0.1774
873.9173	-0.1256
874.0789	-0.2307
874.2404	-0.0037
874.4019	-0.1828
874.5634	0.0306
874.7249	-0.2804
874.8863	-0.1844
875.0478	0.4642
875.2092	-0.3085
875.3706	0.0579
875.5319	-0.0502
875.6933	-0.0397
875.8546	-0.3255
876.0159	-0.0767
876.1772	-0.3974
876.3385	0.2114
876.4997	0.3145
876.6609	-0.2902
876.8221	0.21
876.9833	-0.6316
877.1445	-0.1991
877.3056	-0.1078
877.4667	-0.9392
877.6278	0.12
877.7889	0.0992
877.9499	-0.3258
878.111	0.0315
878.272	0.1296
878.433	-0.0481
878.5939	0.1501
878.7549	-0.3447
878.9158	0.5879
879.0767	0.0345
879.2376	0.2129
879.3984	-0.0924
879.5593	0.4844
879.7201	-0
879.8809	-0.003
880.0417	0.3005
880.2024	0.2471
880.3632	-0.3229
880.5239	-0
880.6846	0.5019
880.8452	0.2818
881.0059	-0.4593
881.1665	-0
881.3271	-0.1449
881.4877	-0.0922
881.6483	-0
881.8088	-0.2528
881.9693	0.2811
882.1298	0.2811
882.2903	0.2811
