Data from MonoPyChalIsomerACN10uM450nmA_Absorbance_13-11-17-692.txt Node
Date: Tue Jul 09 13:11:17 BST 2024
User: LASERRRRR
Spectrometer: FLMT03099
Trigger mode: 0
Integration Time (sec): 2.000000E-1
Scans to average: 1
Electric dark correction enabled: true
Nonlinearity correction enabled: false
Boxcar width: 0
XAxis mode: Wavelengths
Number of Pixels in Spectrum: 3648
>>>>>Begin Spectral Data<<<<<
179.3399	0.68
179.5586	0.68
179.7771	0.68
179.9957	0.1514
180.2143	-0.3107
180.4329	0.1934
180.6514	-0
180.8699	-0
181.0885	-0
181.307	-0
181.5255	0.2727
181.744	-0.5329
181.9625	0.3019
182.181	0.0091
182.3994	0.3145
182.6179	0.4834
182.8363	-0
183.0547	0.0502
183.2732	0.0886
183.4916	0.1138
183.71	0.078
183.9284	0.0437
184.1467	0.0028
184.3651	0.0713
184.5835	0.18
184.8018	0.0419
185.0201	0.0884
185.2385	-0.0211
185.4568	-0.0333
185.6751	0.1405
185.8934	-0.0481
186.1117	0.0182
186.3299	0.0212
186.5482	0.0872
186.7664	0.042
186.9847	0.0944
187.2029	0.0029
187.4211	0.2049
187.6393	-0.0978
187.8575	0.0359
188.0757	-0.0041
188.2939	-0.0347
188.512	0.0037
188.7302	0.054
188.9483	0.1055
189.1665	0.1603
189.3846	0.1249
189.6027	0.0643
189.8208	0.1765
190.0389	0.2119
190.257	0.3026
190.475	0.296
190.6931	0.1281
190.9111	0.2392
191.1292	0.2209
191.3472	0.3845
191.5652	0.2434
191.7832	0.3009
192.0012	0.3182
192.2192	0.455
192.4371	0.4446
192.6551	0.4331
192.873	0.4114
193.091	0.4227
193.3089	0.5341
193.5268	0.4045
193.7447	0.495
193.9626	0.5428
194.1805	0.5142
194.3984	0.6128
194.6162	0.4469
194.8341	0.5176
195.0519	0.6422
195.2697	0.5543
195.4875	0.5361
195.7054	0.6221
195.9231	0.6106
196.1409	0.6114
196.3587	0.612
196.5765	0.7018
196.7942	0.7111
197.012	0.576
197.2297	0.7719
197.4474	0.8086
197.6651	0.5965
197.8828	0.7935
198.1005	0.8999
198.3182	0.7871
198.5358	0.817
198.7535	0.7662
198.9711	0.8937
199.1888	0.7021
199.4064	0.843
199.624	0.7411
199.8416	0.8331
200.0592	0.7109
200.2767	0.8415
200.4943	0.801
200.7119	0.7761
200.9294	0.8708
201.1469	0.8654
201.3645	0.9081
201.582	0.9365
201.7995	0.7152
202.017	0.8766
202.2344	0.7823
202.4519	0.8656
202.6694	0.8064
202.8868	0.834
203.1042	0.9806
203.3217	0.8456
203.5391	0.8906
203.7565	0.9221
203.9739	0.8934
204.1913	0.8817
204.4086	0.9565
204.626	0.9073
204.8433	0.8864
205.0607	0.9249
205.278	0.9268
205.4953	1.0505
205.7126	0.9048
205.9299	0.9563
206.1472	0.9413
206.3644	0.9733
206.5817	0.9256
206.7989	1.0195
207.0162	1.0023
207.2334	0.9195
207.4506	0.9353
207.6678	1.0939
207.885	1.1454
208.1022	1.0656
208.3194	1.0971
208.5365	1.02
208.7537	0.9795
208.9708	0.9457
209.1879	1.0896
209.405	1.0503
209.6222	1.0621
209.8392	1.0635
210.0563	1.036
210.2734	1.081
210.4905	1.0503
210.7075	1.0021
210.9245	1.0309
211.1416	1.1214
211.3586	1.0827
211.5756	1.0873
211.7926	1.0647
212.0096	0.9784
212.2265	1.0569
212.4435	0.9994
212.6604	1.0103
212.8774	0.9818
213.0943	0.9897
213.3112	1.0573
213.5281	1.0379
213.745	1.0098
213.9619	0.9555
214.1788	0.9782
214.3956	0.9786
214.6125	0.9438
214.8293	0.8699
215.0461	0.8792
215.2629	0.883
215.4798	0.8231
215.6965	0.874
215.9133	0.832
216.1301	0.8396
216.3469	0.8129
216.5636	0.7782
216.7803	0.7835
216.9971	0.7672
217.2138	0.749
217.4305	0.6929
217.6472	0.681
217.8639	0.6375
218.0805	0.626
218.2972	0.5651
218.5138	0.5371
218.7305	0.5028
218.9471	0.4599
219.1637	0.4652
219.3803	0.4263
219.5969	0.3995
219.8135	0.3798
220.0301	0.3634
220.2466	0.3534
220.4632	0.3279
220.6797	0.335
220.8962	0.3101
221.1127	0.301
221.3292	0.3042
221.5457	0.2929
221.7622	0.2835
221.9787	0.2799
222.1951	0.2748
222.4116	0.2717
222.628	0.2746
222.8444	0.2685
223.0608	0.2658
223.2772	0.2629
223.4936	0.2653
223.71	0.2772
223.9264	0.268
224.1427	0.2696
224.3591	0.2742
224.5754	0.2855
224.7917	0.2788
225.008	0.2676
225.2243	0.2744
225.4406	0.2843
225.6569	0.2798
225.8732	0.3071
226.0894	0.2754
226.3057	0.294
226.5219	0.2835
226.7381	0.2869
226.9543	0.2862
227.1705	0.287
227.3867	0.2926
227.6029	0.2985
227.8191	0.3117
228.0352	0.2969
228.2513	0.3185
228.4675	0.2993
228.6836	0.3275
228.8997	0.3099
229.1158	0.3182
229.3319	0.3199
229.548	0.3278
229.764	0.32
229.9801	0.329
230.1961	0.3375
230.4121	0.3341
230.6282	0.3339
230.8442	0.3459
231.0602	0.3446
231.2761	0.3366
231.4921	0.3378
231.7081	0.3588
231.924	0.3506
232.14	0.3569
232.3559	0.3574
232.5718	0.3667
232.7877	0.3595
233.0036	0.3685
233.2195	0.3745
233.4353	0.3677
233.6512	0.3764
233.867	0.3854
234.0829	0.3744
234.2987	0.3823
234.5145	0.3846
234.7303	0.3831
234.9461	0.3877
235.1619	0.3891
235.3776	0.3842
235.5934	0.4003
235.8091	0.3916
236.0249	0.3925
236.2406	0.3915
236.4563	0.3931
236.672	0.4059
236.8877	0.3995
237.1034	0.41
237.319	0.4191
237.5347	0.4059
237.7503	0.4091
237.966	0.408
238.1816	0.4072
238.3972	0.4076
238.6128	0.4189
238.8284	0.4039
239.0439	0.4224
239.2595	0.431
239.475	0.4288
239.6906	0.4166
239.9061	0.4193
240.1216	0.4231
240.3371	0.4325
240.5526	0.4205
240.7681	0.4132
240.9836	0.4119
241.199	0.4088
241.4145	0.3951
241.6299	0.4008
241.8453	0.3922
242.0607	0.3843
242.2761	0.3857
242.4915	0.3789
242.7069	0.3785
242.9223	0.3672
243.1376	0.3688
243.353	0.3537
243.5683	0.357
243.7836	0.3449
243.9989	0.3395
244.2142	0.3276
244.4295	0.3303
244.6448	0.3221
244.86	0.3164
245.0753	0.3032
245.2905	0.2922
245.5057	0.2976
245.721	0.2955
245.9362	0.2841
246.1514	0.2835
246.3665	0.2844
246.5817	0.269
246.7969	0.2734
247.012	0.2617
247.2271	0.2625
247.4423	0.2648
247.6574	0.251
247.8725	0.2539
248.0876	0.2609
248.3026	0.2457
248.5177	0.2466
248.7328	0.2372
248.9478	0.2371
249.1628	0.2313
249.3779	0.2289
249.5929	0.226
249.8079	0.2212
250.0228	0.2224
250.2378	0.2273
250.4528	0.2152
250.6677	0.2184
250.8827	0.2121
251.0976	0.2098
251.3125	0.2063
251.5274	0.205
251.7423	0.2066
251.9572	0.1973
252.172	0.2064
252.3869	0.2024
252.6017	0.2092
252.8166	0.2045
253.0314	0.1996
253.2462	0.2048
253.461	0.1986
253.6758	0.1942
253.8906	0.196
254.1053	0.2035
254.3201	0.2061
254.5348	0.1974
254.7496	0.2084
254.9643	0.1877
255.179	0.1898
255.3937	0.1974
255.6083	0.1981
255.823	0.199
256.0377	0.1936
256.2523	0.2
256.467	0.1931
256.6816	0.1995
256.8962	0.2021
257.1108	0.1993
257.3254	0.1973
257.54	0.1929
257.7545	0.1877
257.9691	0.1954
258.1836	0.1925
258.3981	0.1915
258.6127	0.1947
258.8272	0.184
259.0417	0.1922
259.2561	0.1982
259.4706	0.1877
259.6851	0.2001
259.8995	0.1947
260.114	0.1929
260.3284	0.1941
260.5428	0.1986
260.7572	0.2004
260.9716	0.1919
261.186	0.1976
261.4003	0.201
261.6147	0.1954
261.829	0.2014
262.0433	0.2037
262.2577	0.1918
262.472	0.1909
262.6863	0.1874
262.9005	0.1998
263.1148	0.1929
263.3291	0.1856
263.5433	0.1912
263.7576	0.1937
263.9718	0.1882
264.186	0.1823
264.4002	0.1869
264.6144	0.1784
264.8286	0.1756
265.0427	0.1771
265.2569	0.1851
265.471	0.177
265.6851	0.1699
265.8993	0.1719
266.1134	0.1697
266.3275	0.182
266.5415	0.1654
266.7556	0.1872
266.9697	0.1746
267.1837	0.175
267.3978	0.1868
267.6118	0.1935
267.8258	0.1951
268.0398	0.1892
268.2538	0.1833
268.4677	0.1847
268.6817	0.1883
268.8957	0.1877
269.1096	0.1758
269.3235	0.1787
269.5374	0.1712
269.7514	0.1596
269.9652	0.1726
270.1791	0.1598
270.393	0.1562
270.6068	0.1439
270.8207	0.1499
271.0345	0.152
271.2483	0.1472
271.4622	0.1472
271.676	0.1459
271.8897	0.1392
272.1035	0.1325
272.3173	0.1444
272.531	0.1383
272.7448	0.1355
272.9585	0.1361
273.1722	0.1369
273.3859	0.1361
273.5996	0.1313
273.8133	0.14
274.0269	0.1423
274.2406	0.1358
274.4542	0.1313
274.6679	0.134
274.8815	0.1396
275.0951	0.1423
275.3087	0.1349
275.5223	0.1311
275.7358	0.1319
275.9494	0.1336
276.1629	0.1453
276.3765	0.1415
276.59	0.1397
276.8035	0.1425
277.017	0.135
277.2305	0.1369
277.444	0.1404
277.6574	0.1371
277.8709	0.1421
278.0843	0.1414
278.2978	0.1443
278.5112	0.1459
278.7246	0.1418
278.938	0.1434
279.1513	0.1504
279.3647	0.1457
279.5781	0.1446
279.7914	0.1479
280.0047	0.1364
280.2181	0.1483
280.4314	0.1393
280.6447	0.1434
280.8579	0.1518
281.0712	0.1425
281.2845	0.1423
281.4977	0.1506
281.711	0.1565
281.9242	0.1482
282.1374	0.1522
282.3506	0.1405
282.5638	0.1452
282.7769	0.1531
282.9901	0.1497
283.2033	0.1483
283.4164	0.1502
283.6295	0.1546
283.8426	0.1592
284.0557	0.1481
284.2688	0.1538
284.4819	0.1498
284.695	0.1549
284.908	0.1492
285.1211	0.158
285.3341	0.1491
285.5471	0.1533
285.7601	0.1477
285.9731	0.1548
286.1861	0.1639
286.3991	0.1595
286.612	0.1604
286.825	0.1601
287.0379	0.1585
287.2508	0.1566
287.4637	0.1649
287.6766	0.1517
287.8895	0.1632
288.1024	0.16
288.3152	0.158
288.5281	0.1621
288.7409	0.16
288.9538	0.1614
289.1666	0.163
289.3794	0.1593
289.5922	0.1669
289.8049	0.1627
290.0177	0.1576
290.2304	0.1628
290.4432	0.1634
290.6559	0.1652
290.8686	0.1597
291.0813	0.1623
291.294	0.1615
291.5067	0.1599
291.7194	0.1646
291.932	0.1679
292.1447	0.1655
292.3573	0.1593
292.5699	0.1695
292.7825	0.1744
292.9951	0.1689
293.2077	0.1549
293.4203	0.1605
293.6328	0.1718
293.8454	0.1605
294.0579	0.1626
294.2704	0.167
294.4829	0.1686
294.6954	0.1577
294.9079	0.1661
295.1204	0.1682
295.3328	0.1605
295.5453	0.1609
295.7577	0.1608
295.9701	0.1628
296.1825	0.1623
296.3949	0.1557
296.6073	0.1664
296.8197	0.1627
297.0321	0.1676
297.2444	0.1606
297.4567	0.1635
297.6691	0.1605
297.8814	0.1569
298.0937	0.159
298.306	0.1657
298.5182	0.153
298.7305	0.1683
298.9428	0.1589
299.155	0.1582
299.3672	0.1603
299.5794	0.1652
299.7916	0.1623
300.0038	0.1626
300.216	0.1741
300.4282	0.1594
300.6403	0.1576
300.8525	0.1584
301.0646	0.1692
301.2767	0.1623
301.4888	0.157
301.7009	0.1591
301.913	0.1618
302.125	0.1589
302.3371	0.1577
302.5491	0.1576
302.7612	0.1626
302.9732	0.1698
303.1852	0.1573
303.3972	0.162
303.6092	0.1554
303.8211	0.1639
304.0331	0.1557
304.245	0.163
304.457	0.1551
304.6689	0.1577
304.8808	0.1547
305.0927	0.1583
305.3046	0.1566
305.5164	0.1461
305.7283	0.1472
305.9401	0.1524
306.152	0.1497
306.3638	0.1586
306.5756	0.1429
306.7874	0.1412
306.9992	0.1476
307.2109	0.135
307.4227	0.1418
307.6344	0.131
307.8462	0.1303
308.0579	0.1323
308.2696	0.1297
308.4813	0.1265
308.693	0.1295
308.9046	0.1257
309.1163	0.1218
309.328	0.12
309.5396	0.1261
309.7512	0.1268
309.9628	0.1199
310.1744	0.1166
310.386	0.1131
310.5976	0.1152
310.8091	0.113
311.0207	0.1158
311.2322	0.1094
311.4437	0.1178
311.6552	0.1108
311.8667	0.1127
312.0782	0.1124
312.2897	0.1002
312.5012	0.1056
312.7126	0.0967
312.924	0.099
313.1355	0.1053
313.3469	0.0999
313.5583	0.1057
313.7696	0.1051
313.981	0.1033
314.1924	0.0949
314.4037	0.097
314.6151	0.0844
314.8264	0.0948
315.0377	0.0984
315.249	0.1066
315.4603	0.0955
315.6716	0.0983
315.8828	0.098
316.0941	0.0883
316.3053	0.0944
316.5165	0.0896
316.7277	0.0848
316.9389	0.0939
317.1501	0.0873
317.3613	0.0902
317.5724	0.0922
317.7836	0.0893
317.9947	0.0986
318.2058	0.0968
318.417	0.0848
318.6281	0.0935
318.8391	0.0912
319.0502	0.0874
319.2613	0.093
319.4723	0.095
319.6834	0.0866
319.8944	0.0925
320.1054	0.0879
320.3164	0.1013
320.5274	0.098
320.7383	0.0912
320.9493	0.0925
321.1602	0.0957
321.3712	0.0974
321.5821	0.0961
321.793	0.088
322.0039	0.0914
322.2148	0.0878
322.4257	0.0941
322.6365	0.0913
322.8474	0.0974
323.0582	0.1096
323.269	0.0908
323.4798	0.0955
323.6906	0.0974
323.9014	0.093
324.1122	0.0967
324.3229	0.0961
324.5337	0.0849
324.7444	0.0822
324.9551	0.095
325.1658	0.0961
325.3765	0.0951
325.5872	0.088
325.7979	0.0979
326.0085	0.0994
326.2192	0.0951
326.4298	0.1013
326.6404	0.0955
326.851	0.0913
327.0616	0.0913
327.2722	0.1006
327.4828	0.1023
327.6933	0.0952
327.9039	0.0979
328.1144	0.0999
328.3249	0.1013
328.5354	0.0929
328.7459	0.0959
328.9564	0.1011
329.1669	0.0958
329.3773	0.0961
329.5878	0.1046
329.7982	0.1035
330.0086	0.0999
330.219	0.0997
330.4294	0.0929
330.6398	0.1039
330.8502	0.1083
331.0605	0.0975
331.2708	0.095
331.4812	0.105
331.6915	0.0984
331.9018	0.0983
332.1121	0.1052
332.3224	0.0988
332.5326	0.0924
332.7429	0.1
332.9531	0.0976
333.1633	0.1086
333.3735	0.103
333.5837	0.1007
333.7939	0.1013
334.0041	0.098
334.2143	0.0957
334.4244	0.0972
334.6346	0.1015
334.8447	0.1026
335.0548	0.1014
335.2649	0.0983
335.475	0.0926
335.685	0.1053
335.8951	0.1062
336.1051	0.0989
336.3152	0.1039
336.5252	0.102
336.7352	0.0983
336.9452	0.1071
337.1552	0.1046
337.3652	0.1076
337.5751	0.1074
337.7851	0.1014
337.995	0.1041
338.2049	0.1045
338.4148	0.1005
338.6247	0.1083
338.8346	0.1008
339.0445	0.1082
339.2543	0.1121
339.4642	0.1047
339.674	0.1054
339.8838	0.097
340.0936	0.1072
340.3034	0.1155
340.5132	0.108
340.7229	0.1218
340.9327	0.1126
341.1424	0.1084
341.3522	0.1118
341.5619	0.1181
341.7716	0.1192
341.9813	0.1131
342.1909	0.1193
342.4006	0.113
342.6102	0.1109
342.8199	0.1119
343.0295	0.1114
343.2391	0.1161
343.4487	0.1213
343.6583	0.1164
343.8679	0.1156
344.0774	0.1199
344.287	0.1215
344.4965	0.1148
344.706	0.1187
344.9155	0.1185
345.125	0.1265
345.3345	0.1304
345.544	0.111
345.7534	0.1232
345.9629	0.126
346.1723	0.1222
346.3817	0.1271
346.5911	0.1311
346.8005	0.1231
347.0099	0.1118
347.2193	0.1325
347.4286	0.1314
347.638	0.1298
347.8473	0.1294
348.0566	0.1262
348.2659	0.116
348.4752	0.134
348.6845	0.1272
348.8937	0.1338
349.103	0.1242
349.3122	0.1353
349.5214	0.1338
349.7306	0.1325
349.9398	0.1365
350.149	0.1323
350.3582	0.1315
350.5674	0.1382
350.7765	0.136
350.9856	0.1345
351.1948	0.1431
351.4039	0.1417
351.613	0.1316
351.822	0.145
352.0311	0.1312
352.2402	0.1414
352.4492	0.1364
352.6582	0.1381
352.8672	0.1419
353.0762	0.1466
353.2852	0.1501
353.4942	0.1418
353.7032	0.1465
353.9121	0.1491
354.1211	0.1481
354.33	0.1419
354.5389	0.1506
354.7478	0.1442
354.9567	0.1468
355.1655	0.1537
355.3744	0.1543
355.5833	0.143
355.7921	0.1503
356.0009	0.1526
356.2097	0.1538
356.4185	0.1529
356.6273	0.1529
356.8361	0.1536
357.0448	0.1514
357.2536	0.1513
357.4623	0.1483
357.671	0.1577
357.8797	0.1616
358.0884	0.1616
358.2971	0.1603
358.5057	0.1707
358.7144	0.159
358.923	0.1692
359.1316	0.1618
359.3402	0.1712
359.5488	0.168
359.7574	0.1686
359.966	0.172
360.1746	0.1772
360.3831	0.1811
360.5916	0.1769
360.8002	0.1803
361.0087	0.1818
361.2172	0.1734
361.4256	0.1782
361.6341	0.1802
361.8426	0.186
362.051	0.1759
362.2594	0.183
362.4678	0.1813
362.6762	0.1841
362.8846	0.1963
363.093	0.1855
363.3014	0.188
363.5097	0.1944
363.718	0.1967
363.9264	0.1811
364.1347	0.198
364.343	0.1853
364.5513	0.1823
364.7595	0.1869
364.9678	0.192
365.176	0.1914
365.3842	0.1912
365.5925	0.1935
365.8007	0.1872
366.0089	0.2037
366.217	0.2042
366.4252	0.2014
366.6333	0.1911
366.8415	0.1983
367.0496	0.2005
367.2577	0.2134
367.4658	0.2024
367.6739	0.2087
367.882	0.2043
368.09	0.2098
368.2981	0.2132
368.5061	0.2023
368.7141	0.2117
368.9221	0.208
369.1301	0.2131
369.3381	0.216
369.5461	0.2171
369.754	0.2214
369.962	0.2197
370.1699	0.2155
370.3778	0.2222
370.5857	0.2225
370.7936	0.2098
371.0015	0.2231
371.2093	0.2107
371.4172	0.22
371.625	0.2228
371.8328	0.2298
372.0406	0.2267
372.2484	0.2298
372.4562	0.2243
372.664	0.2234
372.8717	0.2232
373.0795	0.2149
373.2872	0.2239
373.4949	0.2235
373.7026	0.23
373.9103	0.2219
374.118	0.2352
374.3256	0.2288
374.5333	0.2261
374.7409	0.232
374.9485	0.2249
375.1561	0.2241
375.3637	0.2287
375.5713	0.2425
375.7789	0.2247
375.9864	0.2315
376.194	0.2393
376.4015	0.2396
376.609	0.2387
376.8165	0.2304
377.024	0.2313
377.2315	0.2449
377.4389	0.239
377.6464	0.242
377.8538	0.2367
378.0612	0.2382
378.2686	0.2376
378.476	0.227
378.6834	0.2475
378.8908	0.2561
379.0981	0.2462
379.3055	0.2448
379.5128	0.2366
379.7201	0.2505
379.9274	0.2648
380.1347	0.2458
380.342	0.2641
380.5492	0.2583
380.7565	0.2474
380.9637	0.2528
381.1709	0.2539
381.3781	0.2568
381.5853	0.2565
381.7925	0.2627
381.9997	0.2665
382.2068	0.2515
382.4139	0.2521
382.6211	0.2545
382.8282	0.2578
383.0353	0.2451
383.2424	0.2579
383.4494	0.2714
383.6565	0.2596
383.8635	0.2637
384.0706	0.2653
384.2776	0.2609
384.4846	0.2635
384.6916	0.2611
384.8986	0.2633
385.1055	0.2715
385.3125	0.2614
385.5194	0.2662
385.7263	0.2686
385.9333	0.2676
386.1402	0.2627
386.347	0.2681
386.5539	0.2653
386.7608	0.2568
386.9676	0.2683
387.1744	0.2597
387.3813	0.2579
387.5881	0.2617
387.7948	0.2571
388.0016	0.2584
388.2084	0.2709
388.4151	0.2633
388.6219	0.2641
388.8286	0.2584
389.0353	0.2597
389.242	0.259
389.4487	0.2478
389.6553	0.2676
389.862	0.2369
390.0686	0.2485
390.2753	0.2572
390.4819	0.2447
390.6885	0.2472
390.8951	0.2547
391.1016	0.2446
391.3082	0.25
391.5147	0.2499
391.7213	0.2389
391.9278	0.2427
392.1343	0.2492
392.3408	0.2328
392.5473	0.2469
392.7537	0.2445
392.9602	0.2277
393.1666	0.2391
393.373	0.2355
393.5794	0.2453
393.7858	0.2374
393.9922	0.221
394.1986	0.2381
394.4049	0.2385
394.6113	0.2272
394.8176	0.2243
395.0239	0.2296
395.2302	0.2213
395.4365	0.2326
395.6428	0.2323
395.8491	0.2181
396.0553	0.2376
396.2615	0.2237
396.4678	0.2319
396.674	0.2326
396.8802	0.2319
397.0863	0.227
397.2925	0.2254
397.4987	0.2186
397.7048	0.2161
397.9109	0.2223
398.117	0.2215
398.3231	0.2239
398.5292	0.2141
398.7353	0.2124
398.9413	0.2117
399.1474	0.2224
399.3534	0.2172
399.5594	0.2253
399.7654	0.2217
399.9714	0.2112
400.1774	0.2167
400.3833	0.2189
400.5893	0.2162
400.7952	0.2129
401.0011	0.2191
401.207	0.2183
401.4129	0.2147
401.6188	0.2094
401.8247	0.2108
402.0305	0.225
402.2364	0.2172
402.4422	0.2222
402.648	0.2307
402.8538	0.2288
403.0596	0.2043
403.2654	0.2177
403.4711	0.2134
403.6768	0.2133
403.8826	0.2122
404.0883	0.2224
404.294	0.2126
404.4997	0.2281
404.7054	0.2178
404.911	0.2204
405.1167	0.224
405.3223	0.2191
405.5279	0.2031
405.7335	0.2225
405.9391	0.2166
406.1447	0.216
406.3502	0.2175
406.5558	0.2215
406.7613	0.2116
406.9668	0.2139
407.1724	0.2071
407.3778	0.2195
407.5833	0.2063
407.7888	0.2287
407.9942	0.2202
408.1997	0.2261
408.4051	0.2084
408.6105	0.2203
408.8159	0.2313
409.0213	0.2079
409.2267	0.2142
409.432	0.2156
409.6374	0.2208
409.8427	0.231
410.048	0.2221
410.2533	0.217
410.4586	0.2178
410.6639	0.2099
410.8691	0.2133
411.0744	0.2217
411.2796	0.2166
411.4848	0.2054
411.69	0.2197
411.8952	0.2169
412.1004	0.2097
412.3056	0.2226
412.5107	0.2331
412.7158	0.2033
412.921	0.2085
413.1261	0.1993
413.3312	0.2258
413.5362	0.2089
413.7413	0.2083
413.9464	0.2156
414.1514	0.2007
414.3564	0.2164
414.5614	0.2078
414.7664	0.2237
414.9714	0.2126
415.1764	0.2075
415.3813	0.2077
415.5863	0.2187
415.7912	0.2176
415.9961	0.2259
416.201	0.2198
416.4059	0.214
416.6108	0.2094
416.8156	0.2009
417.0205	0.2129
417.2253	0.2036
417.4301	0.2207
417.6349	0.2203
417.8397	0.2066
418.0445	0.2077
418.2492	0.197
418.454	0.2105
418.6587	0.2013
418.8634	0.2041
419.0681	0.2066
419.2728	0.2171
419.4775	0.1938
419.6822	0.2022
419.8868	0.199
420.0915	0.1941
420.2961	0.1958
420.5007	0.1969
420.7053	0.194
420.9099	0.1924
421.1144	0.1997
421.319	0.2063
421.5235	0.2016
421.728	0.193
421.9325	0.1873
422.137	0.1876
422.3415	0.1959
422.546	0.1978
422.7504	0.2002
422.9549	0.1964
423.1593	0.1979
423.3637	0.1849
423.5681	0.2019
423.7725	0.1882
423.9769	0.1878
424.1812	0.1864
424.3856	0.1891
424.5899	0.1863
424.7942	0.1784
424.9985	0.1872
425.2028	0.1797
425.4071	0.1815
425.6113	0.1898
425.8156	0.1747
426.0198	0.18
426.224	0.1652
426.4282	0.1738
426.6324	0.1803
426.8366	0.1818
427.0407	0.1689
427.2449	0.1738
427.449	0.1749
427.6531	0.1743
427.8572	0.1653
428.0613	0.1592
428.2654	0.1603
428.4694	0.1703
428.6735	0.1655
428.8775	0.1572
429.0815	0.1624
429.2855	0.1595
429.4895	0.152
429.6935	0.147
429.8975	0.1559
430.1014	0.1505
430.3053	0.1511
430.5093	0.1539
430.7132	0.1539
430.9171	0.1426
431.1209	0.1515
431.3248	0.1471
431.5286	0.1472
431.7325	0.1465
431.9363	0.1463
432.1401	0.1434
432.3439	0.1287
432.5477	0.1369
432.7514	0.1297
432.9552	0.129
433.1589	0.1307
433.3627	0.1369
433.5664	0.124
433.7701	0.1243
433.9737	0.1065
434.1774	0.1161
434.3811	0.1218
434.5847	0.1209
434.7883	0.119
434.9919	0.1174
435.1955	0.0982
435.3991	0.1142
435.6027	0.1153
435.8062	0.115
436.0098	0.1133
436.2133	0.105
436.4168	0.1015
436.6203	0.1041
436.8238	0.0992
437.0272	0.099
437.2307	0.1043
437.4341	0.1047
437.6375	0.098
437.841	0.0934
438.0443	0.095
438.2477	0.0829
438.4511	0.0996
438.6545	0.0801
438.8578	0.0911
439.0611	0.0847
439.2644	0.0927
439.4677	0.0776
439.671	0.0834
439.8743	0.0901
440.0775	0.0726
440.2808	0.069
440.484	0.0769
440.6872	0.068
440.8904	0.0657
441.0936	0.0761
441.2967	0.0737
441.4999	0.057
441.703	0.0686
441.9062	0.0692
442.1093	0.0565
442.3124	0.0671
442.5155	0.0648
442.7185	0.0498
442.9216	0.0584
443.1246	0.0576
443.3276	0.0584
443.5307	0.0558
443.7337	0.0547
443.9366	0.0599
444.1396	0.0535
444.3426	0.0454
444.5455	0.046
444.7484	0.0439
444.9513	0.0455
445.1542	0.0545
445.3571	0.0449
445.56	0.0499
445.7628	0.0421
445.9657	0.0515
446.1685	0.0433
446.3713	0.0366
446.5741	0.0499
446.7769	0.0358
446.9797	0.0338
447.1824	0.0365
447.3852	0.0378
447.5879	0.0361
447.7906	0.045
447.9933	0.0315
448.196	0.0469
448.3986	0.029
448.6013	0.0357
448.8039	0.0337
449.0066	0.0338
449.2092	0.0181
449.4118	0.0289
449.6143	0.0199
449.8169	0.0189
450.0195	0.0223
450.222	0.0042
450.4245	0.0132
450.627	0.0253
450.8295	0.0219
451.032	0.0267
451.2345	0.016
451.4369	0.0214
451.6394	0.0173
451.8418	0.0141
452.0442	0.0195
452.2466	0.0193
452.449	0.016
452.6513	0.0255
452.8537	0.0273
453.056	0.0081
453.2583	0.0126
453.4607	0.0199
453.663	0.0216
453.8652	0.0108
454.0675	0.0148
454.2697	0.0066
454.472	0.0125
454.6742	0.0118
454.8764	0.0148
455.0786	0.0268
455.2808	0.0129
455.4829	0.0052
455.6851	0.0041
455.8872	0.004
456.0893	0.0056
456.2915	-0.0044
456.4935	0.0086
456.6956	0.0169
456.8977	0.0109
457.0997	0.0069
457.3018	0.0067
457.5038	0.0085
457.7058	0.0043
457.9078	0.0046
458.1098	0.0018
458.3117	0.0042
458.5137	0.0068
458.7156	0.0167
458.9175	0.0047
459.1194	0.0125
459.3213	0.0087
459.5232	0.0024
459.725	-0.0019
459.9269	0.0051
460.1287	0.0047
460.3305	0.0006
460.5323	0.0115
460.7341	0.0015
460.9359	-0.001
461.1376	-0.0082
461.3394	0.0019
461.5411	0.0037
461.7428	-0.0038
461.9445	0.005
462.1462	-0.0028
462.3479	0.0114
462.5495	0.0066
462.7512	-0.0035
462.9528	-0.0001
463.1544	-0.0025
463.356	-0.0023
463.5576	-0.0004
463.7592	-0.008
463.9607	-0.001
464.1623	0.0063
464.3638	0.0083
464.5653	-0.0027
464.7668	0.0079
464.9683	0.0108
465.1697	-0.0019
465.3712	0.0004
465.5726	0.0004
465.7741	-0.0045
465.9755	-0.0015
466.1769	-0.0189
466.3782	-0.0083
466.5796	-0.0075
466.7809	-0.0055
466.9823	-0.0009
467.1836	-0.0057
467.3849	0.0108
467.5862	-0.0057
467.7875	-0.0106
467.9887	0.0061
468.19	-0.0039
468.3912	-0.0072
468.5924	-0.0057
468.7936	-0.0138
468.9948	0.0111
469.196	-0.0013
469.3972	0.0011
469.5983	0.015
469.7994	0.0015
470.0006	-0.0072
470.2017	-0.0011
470.4027	-0.002
470.6038	0.0029
470.8049	-0.0076
471.0059	0.0003
471.2069	-0.0011
471.408	-0.0021
471.6089	-0.0145
471.8099	-0.0121
472.0109	-0.0064
472.2119	-0.0139
472.4128	-0.0049
472.6137	-0.0093
472.8146	-0.0155
473.0155	-0.0041
473.2164	-0.022
473.4173	-0.0141
473.6181	-0.0047
473.819	-0.0118
474.0198	0.0001
474.2206	0
474.4214	0.0038
474.6222	-0.0063
474.8229	-0.0085
475.0237	-0.0064
475.2244	-0.0063
475.4251	-0.0036
475.6258	0.0058
475.8265	-0.0068
476.0272	-0.0056
476.2278	-0.0021
476.4285	-0.0003
476.6291	-0.0059
476.8297	-0.0138
477.0303	-0.0101
477.2309	-0.0024
477.4315	-0.0057
477.632	-0.019
477.8326	-0.0023
478.0331	-0.0044
478.2336	-0.0033
478.4341	-0.0134
478.6346	-0.0011
478.8351	-0.0081
479.0355	-0.0085
479.236	-0.0116
479.4364	0.0022
479.6368	0.0068
479.8372	-0.0004
480.0376	-0.0101
480.2379	-0.002
480.4383	-0.0032
480.6386	-0.0195
480.8389	-0.0103
481.0392	-0.0071
481.2395	-0.0145
481.4398	-0.0056
481.6401	-0.0083
481.8403	-0.0024
482.0405	-0.0129
482.2408	-0.0004
482.441	-0.003
482.6411	0.0014
482.8413	-0.0044
483.0415	-0.0092
483.2416	-0.0074
483.4417	-0.0057
483.6419	-0.0038
483.8419	-0.0054
484.042	-0.0085
484.2421	-0.0014
484.4422	-0.0094
484.6422	-0.0063
484.8422	-0.0122
485.0422	-0.0044
485.2422	-0.0044
485.4422	-0.0034
485.6422	-0.0058
485.8421	-0.0037
486.042	-0.0029
486.242	-0.0077
486.4419	-0.0045
486.6417	-0.0054
486.8416	0.0014
487.0415	-0.0046
487.2413	-0.0067
487.4411	0.0044
487.641	-0.0071
487.8408	-0.0034
488.0405	-0.0166
488.2403	-0.005
488.4401	-0.0126
488.6398	-0.0056
488.8395	-0.0085
489.0392	0.001
489.2389	-0.0066
489.4386	-0.0026
489.6383	-0.0031
489.8379	-0.0093
490.0376	-0.0007
490.2372	-0.0061
490.4368	-0.0125
490.6364	-0.0041
490.836	-0.0045
491.0355	-0.0064
491.2351	-0.0135
491.4346	-0.0045
491.6341	-0.0109
491.8336	-0.0034
492.0331	-0.0164
492.2326	-0.0057
492.432	-0.0003
492.6315	-0.0052
492.8309	-0.0086
493.0303	-0.0065
493.2297	-0.0051
493.4291	-0.0127
493.6284	0.002
493.8278	-0.0047
494.0271	-0.0056
494.2264	-0.008
494.4257	-0.0007
494.625	-0.0059
494.8243	-0.0062
495.0236	-0.0148
495.2228	-0.0125
495.422	-0.0058
495.6213	-0.0143
495.8205	0.0009
496.0196	-0.0116
496.2188	0.0004
496.418	-0.0005
496.6171	-0.0059
496.8162	-0.0086
497.0153	0.0008
497.2144	0.0018
497.4135	-0.0047
497.6126	-0.0074
497.8116	0.001
498.0107	-0.004
498.2097	-0.0035
498.4087	-0.0087
498.6077	-0.0057
498.8067	-0.0133
499.0056	-0.0016
499.2046	-0.0024
499.4035	-0.0083
499.6024	-0.0065
499.8013	-0.0033
500.0002	-0.0076
500.199	0.0013
500.3979	0.0015
500.5967	-0.0131
500.7956	-0.0118
500.9944	-0.0082
501.1932	-0.0042
501.3919	-0.008
501.5907	-0.0098
501.7895	-0.0052
501.9882	-0.0088
502.1869	-0.0119
502.3856	-0.0014
502.5843	-0.0098
502.783	-0.0138
502.9816	-0.0134
503.1803	-0.0045
503.3789	-0.0086
503.5775	-0.0055
503.7761	-0.0069
503.9747	-0.01
504.1732	0.0003
504.3718	-0.0077
504.5703	-0.0109
504.7689	-0.0021
504.9674	-0.0014
505.1658	-0.0059
505.3643	-0.0058
505.5628	0.0047
505.7612	-0.0127
505.9597	-0.0073
506.1581	-0.0135
506.3565	-0.0068
506.5549	-0.003
506.7532	-0.0133
506.9516	-0.0071
507.1499	-0.0032
507.3482	-0.0028
507.5465	-0.0066
507.7448	-0.0086
507.9431	-0.0085
508.1414	-0.005
508.3396	0.0003
508.5379	-0.0119
508.7361	0.0055
508.9343	-0.0037
509.1325	-0.0054
509.3306	-0.0081
509.5288	-0.0029
509.7269	-0.0114
509.9251	-0.0061
510.1232	-0.0025
510.3213	-0.0117
510.5193	0
510.7174	-0.0034
510.9154	-0.0043
511.1135	-0.0094
511.3115	-0.0054
511.5095	-0.0078
511.7075	-0.0084
511.9055	-0.0067
512.1034	-0.0049
512.3014	-0.0054
512.4993	-0.0073
512.6972	0.0002
512.8951	-0.0059
513.093	-0.0093
513.2908	-0.0035
513.4887	-0.0029
513.6865	-0.0082
513.8844	-0.0039
514.0822	-0.0045
514.2799	-0.0095
514.4777	-0.0047
514.6755	-0.0009
514.8732	-0.0075
515.0709	-0.0076
515.2687	-0.0103
515.4664	-0.0036
515.664	-0.0046
515.8617	-0.0109
516.0594	-0.0117
516.257	-0.0007
516.4546	-0.0142
516.6522	-0.006
516.8498	-0.0102
517.0474	0.0007
517.2449	-0.0087
517.4425	-0.0104
517.64	-0.004
517.8375	-0.01
518.035	-0.0083
518.2325	-0.0062
518.43	-0.0056
518.6274	-0.0034
518.8249	-0.0063
519.0223	-0.0061
519.2197	-0.0013
519.4171	-0.0026
519.6145	-0.0021
519.8118	-0.0128
520.0092	-0.0026
520.2065	-0.0161
520.4038	-0.008
520.6011	-0.0059
520.7984	-0.0111
520.9956	-0.0053
521.1929	-0.0057
521.3901	-0.0071
521.5874	-0.0023
521.7846	0.0008
521.9818	-0.0085
522.1789	-0.0022
522.3761	-0.0099
522.5732	-0.0039
522.7704	-0.0099
522.9675	-0.0033
523.1646	-0.001
523.3617	0.0004
523.5587	-0.011
523.7558	-0.0009
523.9528	-0.0043
524.1498	-0.0061
524.3468	-0.0084
524.5438	-0.0071
524.7408	-0.0134
524.9378	-0.0082
525.1347	0.0001
525.3316	-0.0028
525.5285	-0.0056
525.7254	-0.0099
525.9223	-0.0019
526.1192	-0.008
526.316	-0.0004
526.5129	-0.006
526.7097	-0.0066
526.9065	-0.0065
527.1033	-0.0082
527.3	-0.006
527.4968	-0.0147
527.6935	-0.0044
527.8903	0.0007
528.087	-0.0119
528.2837	-0.0017
528.4804	-0.0056
528.677	-0.0035
528.8737	-0.0166
529.0703	-0.0026
529.2669	0.0015
529.4635	-0.0066
529.6601	0.0011
529.8567	-0.0032
530.0532	-0.001
530.2498	-0.0045
530.4463	-0.003
530.6428	-0.0017
530.8393	-0.0013
531.0358	-0.0111
531.2322	-0.0031
531.4287	-0.0094
531.6251	-0.0037
531.8215	-0.0008
532.0179	-0.0086
532.2143	-0.0038
532.4107	0.0023
532.607	-0.0099
532.8034	-0.0088
532.9997	0.0005
533.196	-0.0069
533.3923	0.0001
533.5886	-0.0034
533.7848	0.0025
533.9811	-0.0048
534.1773	-0.0131
534.3735	-0.0017
534.5697	-0.0052
534.7659	-0.0038
534.9621	-0.0026
535.1582	-0.0064
535.3544	-0.0094
535.5505	-0
535.7466	-0.0056
535.9427	-0.0028
536.1387	0.0006
536.3348	0.0012
536.5308	-0.0032
536.7269	-0.0011
536.9229	-0.0031
537.1189	-0.0089
537.3148	0.0013
537.5108	0.002
537.7068	-0.0072
537.9027	-0.0014
538.0986	0.0049
538.2945	-0.0037
538.4904	-0.003
538.6863	-0.0083
538.8821	-0.0002
539.078	-0.0087
539.2738	-0.0149
539.4696	-0.005
539.6654	-0.0011
539.8611	-0.0062
540.0569	-0.0022
540.2526	-0.0043
540.4484	0.0036
540.6441	-0.0036
540.8398	-0.0072
541.0355	-0.0028
541.2311	-0.0023
541.4268	0.0038
541.6224	-0.0003
541.818	-0.0035
542.0136	-0.0029
542.2092	-0.0015
542.4048	-0.0081
542.6003	-0.0041
542.7959	-0.0015
542.9914	-0.0056
543.1869	-0.0042
543.3824	-0.007
543.5779	-0.0115
543.7734	-0.0111
543.9688	-0.0151
544.1642	-0.0033
544.3596	0.0008
544.555	-0.0049
544.7504	-0.0085
544.9458	-0.0097
545.1411	0.0012
545.3365	-0.0037
545.5318	0.0026
545.7271	0.0038
545.9224	0.0024
546.1177	-0.0086
546.3129	-0.0016
546.5081	-0.0001
546.7034	-0.0058
546.8986	-0.0035
547.0938	-0.0005
547.289	-0.0033
547.4841	-0.0067
547.6793	-0.0124
547.8744	0.0029
548.0695	-0.008
548.2646	-0.0068
548.4597	-0.0031
548.6548	-0.0012
548.8498	-0.0061
549.0448	0.0036
549.2399	-0.004
549.4349	-0.0052
549.6298	-0.0054
549.8248	-0.0042
550.0198	-0.0043
550.2147	-0.0018
550.4096	-0.0093
550.6045	-0.0048
550.7994	0.0009
550.9943	-0.0056
551.1892	-0.0037
551.384	-0.0131
551.5788	-0.0058
551.7737	0.002
551.9685	-0.0018
552.1632	-0.0042
552.358	-0.01
552.5528	-0.0102
552.7475	-0.0112
552.9422	-0.0105
553.1369	0.0003
553.3316	0.0001
553.5263	-0.0036
553.7209	-0.0053
553.9156	-0.0024
554.1102	-0.009
554.3048	-0.0067
554.4994	-0.0034
554.694	0.0012
554.8885	-0.0034
555.0831	-0.0044
555.2776	0.002
555.4721	-0.0097
555.6666	-0.0036
555.8611	-0.004
556.0555	-0.0073
556.25	-0.0014
556.4444	-0.0076
556.6388	-0.0115
556.8332	-0.0035
557.0276	-0.005
557.222	-0.0068
557.4163	0.0017
557.6107	-0.0093
557.805	-0.0006
557.9993	-0.0032
558.1936	-0.0075
558.3879	0.0014
558.5821	-0.0036
558.7764	-0.0127
558.9706	-0.006
559.1648	-0.006
559.359	-0.0123
559.5532	-0.0069
559.7473	-0.003
559.9415	-0.0072
560.1356	-0.005
560.3297	-0.0103
560.5238	-0.0095
560.7179	-0.0048
560.9119	0.0021
561.106	-0.0014
561.3	0.0009
561.494	-0.0055
561.688	-0.0049
561.882	-0.0062
562.076	-0.0074
562.2699	-0.0039
562.4639	-0.0073
562.6578	-0.0074
562.8517	-0.0064
563.0456	0.0012
563.2395	0.0004
563.4333	-0.0025
563.6272	-0.0084
563.821	0.0008
564.0148	0.0031
564.2086	-0.0055
564.4024	-0.0044
564.5961	-0.0014
564.7899	0.0008
564.9836	0.0033
565.1773	-0.0078
565.371	-0.0009
565.5647	0.005
565.7584	0.0014
565.952	0.0027
566.1456	0.0008
566.3393	-0.0075
566.5329	-0.0009
566.7264	-0.0002
566.92	0.0029
567.1136	-0.0078
567.3071	0.001
567.5006	-0.0013
567.6941	-0.0012
567.8876	-0.0044
568.0811	-0.001
568.2745	-0.0057
568.468	-0.0048
568.6614	-0.0079
568.8548	-0.006
569.0482	-0.0033
569.2416	-0.0014
569.4349	-0.0016
569.6283	-0.0076
569.8216	-0.0057
570.0149	-0.0068
570.2082	-0.0003
570.4015	-0.0042
570.5947	-0.0073
570.788	-0.0057
570.9812	-0.0067
571.1744	-0.0092
571.3676	-0.0067
571.5608	-0.0043
571.754	-0.0083
571.9471	-0.0057
572.1402	-0.003
572.3333	-0.0042
572.5264	0.003
572.7195	0.0026
572.9126	-0.0029
573.1057	-0.005
573.2987	0.0026
573.4917	-0.0089
573.6847	-0.0021
573.8777	-0.0049
574.0707	-0.0028
574.2636	-0.0059
574.4566	-0.0012
574.6495	-0.0026
574.8424	-0.0029
575.0353	-0.0004
575.2281	-0
575.421	-0.0064
575.6138	0.001
575.8067	-0.0034
575.9995	-0.0011
576.1923	-0.0015
576.385	-0.0054
576.5778	-0.0033
576.7706	-0.0015
576.9633	-0.0025
577.156	-0.0009
577.3487	-0.0028
577.5414	-0.0006
577.734	0.0017
577.9267	0.005
578.1193	-0.0035
578.3119	-0.0043
578.5045	-0.0056
578.6971	0.0017
578.8897	-0.0063
579.0822	-0.0044
579.2747	0.004
579.4673	-0.0043
579.6598	-0.0021
579.8522	-0.0004
580.0447	-0.0044
580.2372	0.0005
580.4296	0.0003
580.622	0.0011
580.8144	-0.0063
581.0068	-0.0013
581.1992	0.0036
581.3915	0.0004
581.5839	-0.0047
581.7762	-0.0066
581.9685	-0.0023
582.1608	-0.0045
582.353	0.0048
582.5453	-0.005
582.7375	0.0032
582.9298	-0.0065
583.122	0.0041
583.3142	-0.0025
583.5063	-0.0026
583.6985	-0.0054
583.8906	-0.0013
584.0827	-0.0048
584.2749	-0.0064
584.4669	-0.0061
584.659	-0.0084
584.8511	-0.0053
585.0431	-0.0027
585.2352	-0.0051
585.4272	-0.0048
585.6192	-0.0073
585.8111	-0.0049
586.0031	-0
586.195	-0.0045
586.387	-0.0013
586.5789	-0.0039
586.7708	-0.0102
586.9627	-0.0034
587.1545	-0.007
587.3464	-0.0071
587.5382	-0.0069
587.73	-0.0076
587.9218	-0.0033
588.1136	-0.0055
588.3053	-0.0024
588.4971	-0.0078
588.6888	-0.0074
588.8805	-0.004
589.0722	0.0042
589.2639	0.0011
589.4556	-0.0002
589.6472	-0.0024
589.8389	-0.0021
590.0305	-0.0031
590.2221	-0.0026
590.4137	-0.0035
590.6052	-0.0038
590.7968	-0.0071
590.9883	-0.0016
591.1798	-0.0069
591.3713	0.0013
591.5628	-0.0063
591.7543	0.0006
591.9458	-0.0034
592.1372	-0.0035
592.3286	-0.0037
592.52	-0.0046
592.7114	0.0032
592.9028	-0.0039
593.0941	0.0006
593.2855	-0.0015
593.4768	-0.0012
593.6681	-0.0005
593.8594	-0.0012
594.0506	-0.0011
594.2419	0.0019
594.4331	-0.0044
594.6244	-0.0058
594.8156	-0.0046
595.0067	-0.0015
595.1979	-0.0035
595.3891	-0.0037
595.5802	-0.0051
595.7713	-0.0033
595.9624	0.0072
596.1535	0.0065
596.3446	-0.0035
596.5357	-0.0064
596.7267	-0.0031
596.9177	0.0008
597.1087	-0.0034
597.2997	0.0001
597.4907	0.0003
597.6817	-0.0062
597.8726	-0.0048
598.0635	-0.0029
598.2544	-0.0032
598.4453	-0.0065
598.6362	-0.0028
598.827	-0.0052
599.0179	-0.0058
599.2087	-0.01
599.3995	-0.0052
599.5903	-0.0002
599.7811	-0.0047
599.9718	0.003
600.1626	0.0002
600.3533	-0.0034
600.544	-0.004
600.7347	0.0011
600.9254	-0.0004
601.116	-0.0065
601.3067	-0.004
601.4973	-0.0104
601.6879	0.0022
601.8785	-0.0057
602.0691	-0.004
602.2596	-0.006
602.4502	-0.006
602.6407	0.0004
602.8312	-0.0025
603.0217	-0.002
603.2122	-0.0002
603.4027	0.0001
603.5931	-0.0067
603.7835	-0.0031
603.9739	-0.0073
604.1643	-0.0043
604.3547	-0.0033
604.5451	-0.0016
604.7354	-0.0027
604.9257	-0.0023
605.116	-0.0029
605.3063	0.0001
605.4966	-0.002
605.6869	-0.0049
605.8771	-0.001
606.0673	-0.0031
606.2575	-0.0054
606.4477	-0.0051
606.6379	-0.0077
606.8281	-0.0095
607.0182	-0.0087
607.2083	-0.0045
607.3985	-0.0113
607.5885	-0.0024
607.7786	-0.003
607.9687	-0.0016
608.1587	-0.0047
608.3488	-0.0057
608.5388	0.0018
608.7288	-0.0064
608.9187	-0.0051
609.1087	-0.005
609.2986	-0.0044
609.4886	-0.0008
609.6785	-0.001
609.8684	-0.0012
610.0582	-0.0027
610.2481	-0.0013
610.4379	0.0014
610.6278	-0.0029
610.8176	0.0005
611.0074	-0.0033
611.1971	0.0014
611.3869	-0.0033
611.5766	-0.0027
611.7664	0.002
611.9561	-0.0003
612.1458	0.0065
612.3354	-0.0048
612.5251	-0.0063
612.7147	-0.0024
612.9044	-0.0033
613.094	0.0013
613.2836	-0.0026
613.4731	-0.0042
613.6627	-0.0047
613.8522	0.0009
614.0417	-0.0023
614.2313	-0.007
614.4207	-0.0036
614.6102	-0.0004
614.7997	-0.0012
614.9891	-0.0041
615.1785	-0.0016
615.3679	-0.0026
615.5573	-0.0002
615.7467	-0.0017
615.9361	-0.0015
616.1254	-0.003
616.3147	-0.0059
616.504	-0.0021
616.6933	-0.0018
616.8826	-0.005
617.0718	-0.0039
617.2611	0.0024
617.4503	0.0014
617.6395	-0.0055
617.8287	0.0004
618.0179	0.0004
618.207	-0.0021
618.3961	-0.0077
618.5853	-0.0061
618.7744	-0.0007
618.9634	0.0028
619.1525	-0.0055
619.3416	-0.0078
619.5306	0.0024
619.7196	-0.0005
619.9086	0.0002
620.0976	-0.0008
620.2866	0.0013
620.4755	-0.0014
620.6645	-0.0022
620.8534	0.0005
621.0423	-0.0077
621.2312	-0.0047
621.42	-0.0016
621.6089	-0.0006
621.7977	-0.0029
621.9865	-0.0009
622.1753	0.0003
622.3641	0.0028
622.5529	-0.0057
622.7416	-0.0053
622.9303	0.0019
623.1191	-0.0056
623.3078	0.0001
623.4964	-0.0024
623.6851	0.0004
623.8737	0.001
624.0624	0.0017
624.251	-0.0004
624.4396	-0.0011
624.6282	-0.0018
624.8167	0.0003
625.0053	-0.0011
625.1938	-0.0031
625.3823	-0.0023
625.5708	0.0026
625.7593	-0.0022
625.9477	-0.0056
626.1362	-0.0031
626.3246	-0.0035
626.513	-0.0044
626.7014	-0.0047
626.8898	-0.0023
627.0781	-0.004
627.2665	-0.0034
627.4548	-0.0088
627.6431	-0.0057
627.8314	-0.0034
628.0197	-0.0018
628.2079	-0.0019
628.3962	0.0026
628.5844	0.0013
628.7726	0.001
628.9608	0.0016
629.1489	0.0046
629.3371	0.0058
629.5252	0.0026
629.7134	0.0036
629.9015	-0.0023
630.0895	-0.0018
630.2776	0.002
630.4657	-0.0032
630.6537	-0.0002
630.8417	-0.0034
631.0297	-0.0036
631.2177	0.0058
631.4057	0.0059
631.5936	-0.0043
631.7815	-0.004
631.9695	-0.0026
632.1574	-0.0043
632.3452	-0.0054
632.5331	-0.0008
632.7209	-0.0079
632.9088	-0.0019
633.0966	-0.0042
633.2844	-0.0049
633.4722	0.0022
633.6599	-0.0016
633.8477	-0.0062
634.0354	-0.0096
634.2231	-0.0047
634.4108	-0.0004
634.5985	0.0002
634.7861	-0.007
634.9738	-0.0087
635.1614	-0.0046
635.349	-0.0022
635.5366	-0.0054
635.7242	-0.0015
635.9117	-0.0001
636.0993	-0.0078
636.2868	-0.0012
636.4743	-0.0023
636.6618	-0.0089
636.8492	-0.0048
637.0367	0.0008
637.2241	-0.0051
637.4115	-0.0056
637.5989	0.0022
637.7863	0.0001
637.9737	-0.008
638.161	-0.0028
638.3484	-0.0007
638.5357	0
638.723	-0.0011
638.9103	-0.0019
639.0975	0.0032
639.2848	0.002
639.472	0.0038
639.6592	0.0056
639.8464	-0.0024
640.0336	-0.0003
640.2208	-0.0022
640.4079	-0.0027
640.595	-0.0014
640.7821	-0.005
640.9692	0.0026
641.1563	-0.0009
641.3434	0.0037
641.5304	-0.0004
641.7174	0.001
641.9044	0.0033
642.0914	-0.0005
642.2784	0.0048
642.4653	0.0045
642.6523	-0.0031
642.8392	0.0039
643.0261	0.0061
643.213	0.0008
643.3999	-0.0019
643.5867	-0.0033
643.7735	-0.0011
643.9604	0.0003
644.1472	-0.0006
644.3339	-0.0028
644.5207	-0.0064
644.7075	-0.0073
644.8942	-0.0005
645.0809	0.0014
645.2676	-0.0074
645.4543	0.0038
645.6409	0.0002
645.8276	0.0002
646.0142	-0.0045
646.2008	-0.0076
646.3874	-0.0069
646.574	-0.0046
646.7605	-0.0028
646.9471	-0.0098
647.1336	-0.0032
647.3201	-0.0028
647.5066	-0.0011
647.6931	0.0011
647.8795	-0.0022
648.0659	-0.0024
648.2524	-0.002
648.4388	-0.004
648.6252	0.0007
648.8115	-0.0108
648.9979	-0.0059
649.1842	-0.008
649.3705	-0.0054
649.5568	-0.0001
649.7431	-0.003
649.9294	-0.0028
650.1156	-0.0047
650.3018	-0.0046
650.488	-0.0062
650.6742	-0.0038
650.8604	-0.0004
651.0466	0.0005
651.2327	-0.0015
651.4188	0.0032
651.6049	0.0003
651.791	0.001
651.9771	-0.0028
652.1632	0.0002
652.3492	0.0053
652.5352	-0.0012
652.7212	-0.0009
652.9072	0.0051
653.0932	0.0046
653.2791	-0.0001
653.465	-0.0001
653.651	-0.0038
653.8369	-0.0028
654.0227	-0.0006
654.2086	-0.0012
654.3944	-0.0053
654.5803	-0.0048
654.7661	-0.0065
654.9519	-0.0002
655.1377	-0.0024
655.3234	-0.0001
655.5092	-0.0001
655.6949	-0.0001
655.8806	-0.0001
656.0663	-0.0001
656.2519	-0.0001
656.4376	-0.0032
656.6232	-0.0059
656.8088	-0.0044
656.9945	-0.0037
657.18	0.0011
657.3656	-0.0024
657.5511	-0.0051
657.7367	-0.0044
657.9222	-0.0003
658.1077	0.0022
658.2932	-0.0004
658.4786	-0.0031
658.6641	-0.0043
658.8495	-0.0047
659.0349	-0.0031
659.2203	-0.0032
659.4057	-0.0059
659.591	-0.0026
659.7764	-0.0022
659.9617	-0.0074
660.147	0.002
660.3323	-0.0005
660.5176	-0.0071
660.7028	-0.0051
660.888	-0.0028
661.0733	0.0041
661.2585	-0.0077
661.4436	-0.0021
661.6288	-0.009
661.8139	0.0016
661.9991	-0.0017
662.1842	0.0038
662.3693	0.0009
662.5544	0.0009
662.7394	0.0003
662.9245	0.0017
663.1095	0.0032
663.2945	-0.0027
663.4795	-0.001
663.6644	-0.0081
663.8494	-0.0052
664.0343	-0.0059
664.2193	-0.0033
664.4042	-0.012
664.589	-0.0007
664.7739	-0.0038
664.9587	-0.0035
665.1436	0.0017
665.3284	-0.0027
665.5132	0.0014
665.698	0.0012
665.8827	0.0002
666.0675	-0.0068
666.2522	-0.0072
666.4369	-0.0117
666.6216	-0.011
666.8063	-0.0051
666.9909	-0.0103
667.1756	-0.0027
667.3602	-0.0071
667.5448	-0.0103
667.7294	-0.0023
667.9139	-0.0055
668.0985	-0.0074
668.283	-0.0045
668.4675	-0.0126
668.652	-0.0087
668.8365	-0.0096
669.0209	-0.0083
669.2054	-0.0011
669.3898	-0.0102
669.5742	-0.0099
669.7586	-0.0035
669.943	-0.0054
670.1273	-0.0095
670.3117	-0.0042
670.496	-0.0024
670.6803	0.0001
670.8646	-0.0045
671.0488	0.0004
671.2331	-0.0015
671.4173	0.0012
671.6015	0.003
671.7857	-0.006
671.9699	-0.0065
672.1541	-0.003
672.3382	-0.0082
672.5223	-0.0092
672.7064	-0.0115
672.8905	-0.0114
673.0746	-0.0112
673.2587	-0.0116
673.4427	-0.0098
673.6267	-0.0119
673.8107	-0.0113
673.9947	-0.0087
674.1787	-0.0053
674.3626	-0.0109
674.5465	-0.0052
674.7304	0.0005
674.9143	-0.0025
675.0982	0.0022
675.2821	-0.0017
675.4659	-0.0022
675.6497	0.0028
675.8335	-0.0022
676.0173	-0.007
676.2011	-0.0033
676.3849	-0.0077
676.5686	-0.0017
676.7523	0.0004
676.936	-0.0008
677.1197	-0.0011
677.3034	-0.0107
677.487	-0.001
677.6706	-0.007
677.8542	-0.0042
678.0378	-0.0033
678.2214	-0.0041
678.405	-0.004
678.5885	-0.0094
678.772	-0.0046
678.9555	-0.002
679.139	-0.0061
679.3225	-0.0061
679.5059	-0.0064
679.6894	-0.0045
679.8728	-0.0057
680.0562	0.0007
680.2395	-0.0018
680.4229	-0.0007
680.6062	0.001
680.7896	-0.0004
680.9729	-0.005
681.1562	-0.0016
681.3394	0.0007
681.5227	-0.0072
681.7059	-0.0037
681.8891	-0.0072
682.0723	-0.0072
682.2555	-0.005
682.4387	0.0014
682.6218	-0.0079
682.805	-0.0032
682.9881	-0.0039
683.1712	0.0015
683.3542	0.0027
683.5373	-0.0081
683.7203	-0.0008
683.9034	-0.0009
684.0864	-0.0065
684.2694	-0.0047
684.4523	-0.0043
684.6353	-0.0017
684.8182	0.001
685.0011	-0.0042
685.184	-0.0014
685.3669	-0.0037
685.5498	-0.0002
685.7326	-0.0013
685.9154	-0.0049
686.0982	-0.004
686.281	-0.0082
686.4638	-0.0031
686.6465	-0.0077
686.8293	-0.0027
687.012	-0.0034
687.1947	-0.0031
687.3774	-0.0007
687.56	-0.0076
687.7427	-0.0042
687.9253	-0.0038
688.1079	0.0007
688.2905	-0.0043
688.4731	-0.0051
688.6556	-0.0045
688.8382	-0.001
689.0207	0.0001
689.2032	-0.0019
689.3857	0.0037
689.5681	-0.001
689.7506	0.0014
689.933	0.0027
690.1154	-0.001
690.2978	-0
690.4802	-0.0021
690.6626	0.0096
690.8449	0.0033
691.0272	0.0034
691.2095	0.0012
691.3918	0.001
691.5741	-0.0005
691.7563	0.0023
691.9386	-0.0034
692.1208	-0.0074
692.303	-0.0073
692.4852	0.0028
692.6673	-0.0004
692.8495	-0.0073
693.0316	0.0009
693.2137	-0.0072
693.3958	-0.0009
693.5778	-0.0019
693.7599	-0.0083
693.9419	-0.0104
694.1239	-0.0011
694.3059	-0.0082
694.4879	-0.0056
694.6699	-0.0093
694.8518	-0.0025
695.0337	-0.0057
695.2157	-0.004
695.3975	-0.0097
695.5794	-0.0015
695.7613	-0.0071
695.9431	-0.0023
696.1249	-0.0051
696.3067	-0.0062
696.4885	0.0008
696.6703	-0.0056
696.852	-0.0091
697.0337	0.0008
697.2154	-0.0047
697.3971	-0.0059
697.5788	-0.002
697.7605	-0.0063
697.9421	-0.0047
698.1237	-0.0069
698.3053	-0.0023
698.4869	0.0008
698.6685	-0.0073
698.85	-0.0069
699.0315	-0.0022
699.213	-0.0003
699.3945	0.0057
699.576	0.0063
699.7575	-0.0007
699.9389	-0.0035
700.1203	-0.0067
700.3017	-0.0054
700.4831	-0.0009
700.6645	-0.0081
700.8458	-0.0045
701.0271	-0.001
701.2084	-0.0114
701.3897	-0.005
701.571	0.0009
701.7523	-0.0033
701.9335	0.0074
702.1147	0.0065
702.2959	0.0005
702.4771	-0.0009
702.6583	-0.0018
702.8394	0.0005
703.0205	-0.0008
703.2016	0.0002
703.3827	0.0046
703.5638	-0.0069
703.7449	-0.0087
703.9259	0.0019
704.1069	-0.0015
704.2879	-0.0004
704.4689	-0.0062
704.6499	-0.0066
704.8308	-0.0005
705.0117	0.0018
705.1927	-0.0026
705.3735	0.009
705.5544	0
705.7353	-0.0005
705.9161	0.0021
706.0969	0.0071
706.2777	-0.0017
706.4585	-0.0047
706.6393	-0.0027
706.82	-0.0018
707.0007	-0.0056
707.1815	-0.0035
707.3621	-0.0013
707.5428	-0.0022
707.7235	-0.004
707.9041	0.0003
708.0847	-0.0002
708.2653	-0.0028
708.4459	-0.0007
708.6265	-0.0086
708.807	0.0012
708.9875	0.0002
709.168	-0.0051
709.3485	-0.0054
709.529	-0.0027
709.7095	-0.0061
709.8899	-0.0131
710.0703	0.0005
710.2507	-0.0054
710.4311	-0.002
710.6115	0.0013
710.7918	-0.0029
710.9721	-0.0002
711.1524	-0.0018
711.3327	-0.0013
711.513	-0.0023
711.6932	-0.0063
711.8735	0.0012
712.0537	-0.0005
712.2339	-0.006
712.4141	-0.0038
712.5942	0.0038
712.7744	0.0032
712.9545	0.0056
713.1346	-0.0062
713.3147	0.0087
713.4947	0.0032
713.6748	-0.006
713.8548	-0.003
714.0348	0.0038
714.2148	-0.0048
714.3948	-0.0059
714.5748	-0.0123
714.7547	-0.0084
714.9346	-0.0028
715.1145	-0.0055
715.2944	0.0006
715.4743	-0.0052
715.6541	-0.0082
715.834	-0.0021
716.0138	0.0004
716.1936	0.0003
716.3733	-0.0063
716.5531	-0.0045
716.7328	-0.0027
716.9126	-0.0037
717.0923	-0.0028
717.2719	-0.0055
717.4516	-0.0013
717.6312	0.0041
717.8109	0.0016
717.9905	-0.0056
718.1701	-0.0014
718.3496	-0.0051
718.5292	-0.004
718.7087	-0.0026
718.8882	-0.0055
719.0677	-0.002
719.2472	-0.0009
719.4267	-0.0068
719.6061	-0.0039
719.7856	-0.0029
719.965	-0.0102
720.1443	-0.0025
720.3237	-0.0069
720.5031	-0.0076
720.6824	-0.0035
720.8617	-0.0093
721.041	-0.0038
721.2203	-0.0047
721.3995	-0.0036
721.5788	-0.0099
721.758	-0.0015
721.9372	-0.0002
722.1164	-0.0099
722.2956	-0.012
722.4747	-0.0032
722.6538	-0.0047
722.8329	-0.0041
723.012	-0.0009
723.1911	-0.0006
723.3702	-0.0013
723.5492	-0.0034
723.7282	-0.0029
723.9072	-0.0037
724.0862	-0.0028
724.2652	-0.0015
724.4441	-0.0079
724.623	-0.0007
724.8019	-0.0014
724.9808	0.0005
725.1597	0.0014
725.3385	0.0062
725.5174	0.0008
725.6962	-0.0071
725.875	-0.0015
726.0538	0.007
726.2325	-0.002
726.4112	-0.0006
726.59	-0.0015
726.7687	0.0016
726.9474	0.001
727.126	-0.0024
727.3047	0.0013
727.4833	-0.0008
727.6619	-0.0086
727.8405	-0.0039
728.0191	-0.0046
728.1976	-0.0066
728.3762	-0.006
728.5547	-0.0092
728.7332	-0.0033
728.9116	-0.0079
729.0901	-0.0128
729.2686	-0.0071
729.447	-0.0138
729.6254	-0.0087
729.8038	-0.0102
729.9821	-0.0027
730.1605	-0.0018
730.3388	0.0003
730.5171	-0.0013
730.6954	0.0002
730.8737	0.0016
731.0519	0.002
731.2302	0.0033
731.4084	0.0028
731.5866	0.0044
731.7648	0.0026
731.9429	-0.0008
732.1211	0.0013
732.2992	-0.0014
732.4773	0.0051
732.6554	-0.0052
732.8335	-0.0079
733.0115	-0.0047
733.1896	-0.0028
733.3676	-0.0077
733.5456	0.001
733.7235	-0.0004
733.9015	-0.0004
734.0794	0.0012
734.2574	-0.0043
734.4353	-0.0047
734.6131	0.0053
734.791	-0.0035
734.9689	-0.0033
735.1467	-0.0011
735.3245	0.0016
735.5023	-0.0062
735.68	-0.0001
735.8578	-0.0069
736.0355	0.006
736.2132	0.001
736.3909	0.0044
736.5686	0.0023
736.7463	-0.0045
736.9239	-0.0028
737.1015	-0.0064
737.2791	-0.01
737.4567	-0.0098
737.6343	-0.0026
737.8118	-0.0006
737.9894	-0.0062
738.1669	-0.0026
738.3444	-0.004
738.5218	-0.0024
738.6993	-0.0023
738.8767	0.0004
739.0541	-0.0104
739.2315	-0.005
739.4089	-0.0006
739.5863	-0.0051
739.7636	-0.0053
739.9409	-0.0047
740.1182	-0.0009
740.2955	-0.0034
740.4728	-0.0031
740.65	0.0002
740.8272	0.0035
741.0044	0.0011
741.1816	0.0035
741.3588	0.0051
741.5359	-0.002
741.7131	0
741.8902	0.0008
742.0673	0.0057
742.2444	-0.0029
742.4214	-0.006
742.5985	-0.0077
742.7755	-0.0006
742.9525	-0.0002
743.1295	-0.0063
743.3064	-0.0078
743.4834	-0.0028
743.6603	-0.0029
743.8372	0.001
744.0141	-0.0041
744.191	0.0002
744.3678	-0.0064
744.5446	0.0011
744.7215	-0.0091
744.8982	-0.0005
745.075	0.0011
745.2518	-0.0008
745.4285	-0.0029
745.6052	0.001
745.7819	0.0032
745.9586	0.001
746.1353	-0.0027
746.3119	-0.0015
746.4885	-0.0066
746.6651	0.0015
746.8417	-0.0066
747.0183	0.0009
747.1948	-0.0109
747.3714	-0.0056
747.5479	-0.0002
747.7244	0.0015
747.9008	-0.0003
748.0773	0.004
748.2537	0.0073
748.4301	-0.0009
748.6065	0.0018
748.7829	0.0062
748.9593	0.005
749.1356	-0.0084
749.3119	0.0008
749.4882	0.0016
749.6645	-0.0029
749.8408	0.0002
750.017	-0.0046
750.1933	-0.004
750.3695	-0.0028
750.5457	-0.0072
750.7218	-0.0085
750.898	-0.0035
751.0741	-0.0077
751.2502	-0.0033
751.4263	-0.0086
751.6024	-0.0074
751.7784	0.0037
751.9545	-0.0004
752.1305	-0.0004
752.3065	-0.0034
752.4825	-0.0053
752.6584	-0.0005
752.8344	-0.003
753.0103	-0.0048
753.1862	0.0045
753.3621	-0.0026
753.5379	-0.0044
753.7138	-0.002
753.8896	-0.0102
754.0654	-0.005
754.2412	-0.0151
754.417	-0.0034
754.5927	-0.0011
754.7685	-0.0077
754.9442	-0.0098
755.1199	-0.008
755.2956	-0.0025
755.4712	-0.0024
755.6469	-0.0084
755.8225	-0.0116
755.9981	-0.0076
756.1736	-0.0044
756.3492	-0.0005
756.5248	-0.0018
756.7003	-0.01
756.8758	-0.0088
757.0513	-0.0031
757.2267	-0.0107
757.4022	-0.0059
757.5776	-0.0137
757.753	-0.0089
757.9284	-0.0071
758.1038	-0.0113
758.2791	-0.0106
758.4545	-0.0102
758.6298	-0.0094
758.8051	-0.0061
758.9803	-0.0087
759.1556	-0.0061
759.3308	0.0005
759.506	-0.009
759.6812	-0.0077
759.8564	-0.0095
760.0316	-0.0142
760.2067	-0.0049
760.3819	-0.0069
760.557	-0.012
760.732	-0.0049
760.9071	-0.0083
761.0821	-0.016
761.2572	-0.01
761.4322	-0.0117
761.6072	-0.0068
761.7821	-0.0148
761.9571	-0.0127
762.132	-0.0101
762.3069	-0.0056
762.4818	-0.0047
762.6567	-0.0014
762.8316	-0.0004
763.0064	0.0004
763.1812	-0.0041
763.356	-0.0024
763.5308	-0.0023
763.7055	0.0053
763.8803	-0.0033
764.055	-0.0036
764.2297	-0.0013
764.4044	0.0068
764.579	-0.003
764.7537	-0.0003
764.9283	-0.0029
765.1029	0.0019
765.2775	0.0009
765.4521	0.0071
765.6266	0.0048
765.8011	0.0071
765.9756	0.0033
766.1501	0.013
766.3246	-0.0058
766.4991	-0.0027
766.6735	-0.0065
766.8479	-0.0079
767.0223	-0.0016
767.1967	-0.0043
767.371	-0.0069
767.5454	-0.0095
767.7197	-0.0045
767.894	-0.001
768.0683	-0.0029
768.2425	-0.0008
768.4168	-0.0091
768.591	0.0029
768.7652	-0.0013
768.9394	0.0091
769.1135	0.0048
769.2877	-0.0014
769.4618	0.0087
769.6359	0.0006
769.81	-0.0008
769.984	-0.0057
770.1581	0.0013
770.3321	0.0047
770.5061	0.0076
770.6801	0.0043
770.8541	0.0003
771.028	0.0007
771.202	0.0007
771.3759	-0.0064
771.5498	-0.0024
771.7236	0.0013
771.8975	-0.0004
772.0713	0.0101
772.2451	0.0049
772.4189	0.0001
772.5927	-0.0027
772.7665	0.0005
772.9402	0.0001
773.1139	0.0001
773.2876	-0.0004
773.4613	-0.002
773.635	0.0077
773.8086	0.0038
773.9822	0.0023
774.1558	0.0034
774.3294	0.0082
774.503	0.0034
774.6765	-0.0083
774.8501	0.0049
775.0236	-0.0086
775.1971	-0.0032
775.3705	-0.0011
775.544	0.0012
775.7174	-0.0053
775.8908	-0.0037
776.0642	-0.0069
776.2376	-0.0037
776.4109	-0.0088
776.5843	0.0052
776.7576	0.0056
776.9309	0.0017
777.1041	-0.0034
777.2774	0.0063
777.4506	-0.0021
777.6238	-0.0014
777.797	0.0004
777.9702	-0.002
778.1434	-0.0014
778.3165	-0.0053
778.4896	-0.0092
778.6627	0.0016
778.8358	-0.0077
779.0089	-0.0075
779.1819	-0.001
779.3549	-0.0046
779.5279	0.0001
779.7009	-0.0085
779.8739	-0.0005
780.0468	-0.0086
780.2197	-0.0007
780.3926	-0.0037
780.5655	-0.0045
780.7384	-0.0031
780.9112	-0.0009
781.0841	-0.0029
781.2569	0.0003
781.4297	-0.0065
781.6024	-0.0016
781.7752	0.0002
781.9479	-0.0027
782.1206	0.0036
782.2933	-0.0054
782.466	-0.0046
782.6386	-0.0031
782.8113	-0.0165
782.9839	-0.0116
783.1565	-0.0085
783.329	-0.0096
783.5016	-0.0029
783.6741	-0.0071
783.8466	-0.0067
784.0191	-0.0117
784.1916	0.0022
784.3641	-0.0043
784.5365	-0.0017
784.7089	0.0053
784.8813	0.0033
785.0537	0.0063
785.2261	0.0013
785.3984	0.0003
785.5707	-0.0022
785.743	0.0041
785.9153	0.0034
786.0876	0.0014
786.2598	0.0042
786.432	0.0013
786.6042	0.0046
786.7764	0.0048
786.9486	-0.0018
787.1207	-0.0076
787.2928	-0.0017
787.4649	-0.0035
787.637	-0.0077
787.8091	0.0032
787.9811	0.0109
788.1532	-0.0044
788.3252	-0.0038
788.4972	-0.0046
788.6691	-0.006
788.8411	-0.003
789.013	-0.0003
789.1849	-0.0003
789.3568	-0.0107
789.5287	-0.005
789.7005	-0.0017
789.8723	-0.0029
790.0442	-0.0135
790.2159	-0.0018
790.3877	-0.0056
790.5595	-0.0067
790.7312	0.0097
790.9029	-0.0106
791.0746	-0.0063
791.2463	-0.0063
791.4179	-0.0051
791.5896	0
791.7612	-0.0067
791.9328	-0.0033
792.1044	-0.0031
792.2759	0.0052
792.4474	-0.0144
792.619	-0.0054
792.7905	-0.0169
792.9619	-0.0088
793.1334	-0.0079
793.3048	-0.0067
793.4762	-0.0111
793.6476	-0.0169
793.819	-0.0133
793.9904	-0.0158
794.1617	-0.0088
794.333	-0.0107
794.5043	-0.0096
794.6756	-0.0009
794.8469	-0.0019
795.0181	-0.0063
795.1893	-0.0074
795.3605	-0.011
795.5317	-0.0066
795.7029	-0.0063
795.874	-0.0083
796.0452	-0.0068
796.2163	-0.007
796.3873	-0.0049
796.5584	-0.0165
796.7294	-0.0115
796.9005	-0.0156
797.0715	-0.0139
797.2425	-0.0172
797.4134	-0.0219
797.5844	-0.0156
797.7553	-0.0055
797.9262	-0.0088
798.0971	-0.0179
798.2679	-0.0106
798.4388	-0.0112
798.6096	-0.0058
798.7804	-0.0033
798.9512	-0.01
799.122	-0.0111
799.2927	-0.0141
799.4635	-0.0034
799.6342	-0.008
799.8049	-0.013
799.9755	-0.0121
800.1462	-0.019
800.3168	-0.0102
800.4874	-0.0173
800.658	-0.0164
800.8286	-0.0174
800.9991	-0.0146
801.1696	-0.0163
801.3402	-0.0196
801.5106	-0.0207
801.6811	-0.0204
801.8516	-0.013
802.022	-0.0246
802.1924	-0.0311
802.3628	-0.007
802.5332	-0.0187
802.7035	-0.008
802.8739	-0.0119
803.0442	-0.0164
803.2145	-0.0208
803.3847	-0.0251
803.555	-0.0194
803.7252	-0.0094
803.8954	-0.009
804.0656	0.0002
804.2358	-0.0163
804.4059	-0.0083
804.5761	-0.004
804.7462	-0.0022
804.9163	-0.0109
805.0864	-0.0143
805.2564	-0.0147
805.4264	-0.0138
805.5965	-0.0113
805.7665	-0.0113
805.9364	-0.0086
806.1064	-0.0054
806.2763	-0.0145
806.4462	-0.0109
806.6161	-0.0062
806.786	-0.0091
806.9559	-0.0036
807.1257	-0.0145
807.2955	-0.0097
807.4653	-0.002
807.6351	-0.0053
807.8048	-0.0011
807.9746	-0.0128
808.1443	0.0016
808.314	-0.0051
808.4837	0.0062
808.6533	-0.0012
808.8229	-0.0062
808.9926	0.0033
809.1622	0.0001
809.3317	0.0082
809.5013	0.0058
809.6708	0.0037
809.8403	-0.0003
810.0098	-0.0041
810.1793	-0.0112
810.3488	0.0005
810.5182	-0.0113
810.6876	0.0022
810.857	-0.0048
811.0264	-0.0138
811.1958	0.0008
811.3651	-0.0097
811.5344	-0.0047
811.7037	-0.0104
811.873	-0.0055
812.0422	-0.0133
812.2115	-0.0095
812.3807	0.0044
812.5499	-0.0081
812.7191	-0.0049
812.8882	0.0036
813.0574	-0.0075
813.2265	0.0003
813.3956	-0.0047
813.5646	-0.0067
813.7337	0.0001
813.9027	-0.009
814.0718	-0.0071
814.2407	0.0113
814.4097	-0.0044
814.5787	0.0078
814.7476	-0.0059
814.9165	0.0067
815.0854	-0.0128
815.2543	0.0064
815.4232	-0.0083
815.592	-0.0024
815.7608	-0.0065
815.9296	-0.0003
816.0984	0.0031
816.2671	-0.0008
816.4359	-0.0096
816.6046	0.0042
816.7733	-0.0076
816.942	0.0046
817.1106	0.0039
817.2793	0.0027
817.4479	-0.0092
817.6165	-0.007
817.785	-0.0118
817.9536	-0.0047
818.1221	-0.0076
818.2906	0.003
818.4591	-0.0216
818.6276	0.0058
818.7961	-0.0017
818.9645	-0.0136
819.1329	-0.0067
819.3013	-0.0042
819.4697	-0.002
819.638	-0.0056
819.8064	-0.0026
819.9747	0.0049
820.143	-0.0037
820.3113	0.0068
820.4795	0.0059
820.6477	0.0007
820.816	-0.0063
820.9842	-0.0011
821.1523	-0.0228
821.3205	-0.0162
821.4886	0.0058
821.6567	-0.0072
821.8248	-0.013
821.9929	-0.0058
822.1609	-0.0105
822.329	-0.0091
822.497	-0.0019
822.665	-0.0079
822.833	-0.027
823.0009	-0.0155
823.1688	-0.0001
823.3367	-0.0167
823.5046	-0.0137
823.6725	-0.0142
823.8404	-0.0046
824.0082	-0.0153
824.176	-0.002
824.3438	-0.01
824.5116	0.0029
824.6793	-0.0091
824.847	-0.0004
825.0147	0.0015
825.1824	-0.026
825.3501	-0.015
825.5177	-0.0018
825.6854	-0.0021
825.853	-0.0052
826.0206	0.001
826.1881	0.0004
826.3557	0.0039
826.5232	0.0002
826.6907	-0.0026
826.8582	0.0081
827.0257	-0.0076
827.1931	-0.002
827.3605	-0.0009
827.528	0.0157
827.6953	-0.0031
827.8627	-0.0053
828.03	-0.006
828.1974	-0.0047
828.3647	0.0086
828.532	-0.0001
828.6992	-0.0137
828.8665	-0.0157
829.0337	-0.0076
829.2009	-0.0134
829.3681	-0.0212
829.5352	0.0033
829.7024	0.0075
829.8695	-0.0287
830.0366	-0.0183
830.2037	-0.0156
830.3707	-0.0184
830.5378	-0.0067
830.7048	-0.0137
830.8718	-0.0176
831.0388	-0.032
831.2057	-0.0225
831.3727	-0.0271
831.5396	-0.0097
831.7065	-0.004
831.8734	0.0135
832.0402	-0.0257
832.2071	0.0055
832.3739	0.0062
832.5407	-0.0047
832.7075	-0.0217
832.8742	0.0214
833.041	0.0105
833.2077	-0.0154
833.3744	0.0135
833.541	0.005
833.7077	-0.0153
833.8743	0.008
834.0409	0.0146
834.2075	0.0084
834.3741	-0.0027
834.5407	-0.0016
834.7072	0.015
834.8737	-0.0181
835.0402	-0.0294
835.2067	-0.0264
835.3731	-0.0152
835.5395	-0.0075
835.706	-0.0341
835.8723	-0.0178
836.0387	-0.0195
836.2051	-0.0203
836.3714	0.0144
836.5377	-0.0055
836.704	-0.0011
836.8703	-0.025
837.0365	0.0148
837.2027	-0.0214
837.3689	-0.0202
837.5351	-0.0137
837.7013	-0.0204
837.8674	0.0131
838.0335	0.0043
838.1997	-0.012
838.3657	-0.0009
838.5318	0.0083
838.6978	-0.0112
838.8639	-0.0007
839.0299	-0.0153
839.1958	0.0076
839.3618	0.0107
839.5277	0.0065
839.6937	0.0058
839.8596	-0.016
840.0254	-0.0148
840.1913	0.0095
840.3571	-0.0013
840.523	0.0042
840.6888	0.0061
840.8545	-0.0166
841.0203	-0.0098
841.186	-0.015
841.3517	-0.0221
841.5174	0.0084
841.6831	-0.0233
841.8488	0.023
842.0144	0.0339
842.18	0.0026
842.3456	-0.0194
842.5112	0.0147
842.6767	-0.0214
842.8422	0.0034
843.0077	-0.0213
843.1732	-0.0102
843.3387	-0.0131
843.5042	0.0212
843.6696	0.0036
843.835	0.0066
844.0004	-0.0085
844.1657	-0.0073
844.3311	0.0269
844.4964	0.0036
844.6617	-0.0059
844.827	-0.0139
844.9923	0.0038
845.1575	0.0038
845.3227	-0.0061
845.4879	-0.0002
845.6531	0.0137
845.8183	-0.034
845.9834	-0.028
846.1485	0.0198
846.3136	-0.0418
846.4787	-0.0193
846.6438	0.0006
846.8088	-0.007
846.9738	0.0112
847.1388	-0.0117
847.3038	0.0282
847.4687	0.015
847.6337	-0.0033
847.7986	0.0429
847.9635	0.0046
848.1284	-0.0494
848.2932	0.0127
848.458	0.0373
848.6228	0.0073
848.7876	-0.0455
848.9524	0.0066
849.1172	-0.0258
849.2819	0.0196
849.4466	-0.0088
849.6113	-0.0134
849.7759	-0.0072
849.9406	0.0095
850.1052	0.0227
850.2698	-0.0065
850.4344	0.0035
850.599	-0.0487
850.7635	0.0432
850.928	0.0189
851.0925	0.0543
851.257	-0.0267
851.4215	0.0051
851.5859	0.0143
851.7503	-0.0079
851.9147	-0.0036
852.0791	-0.017
852.2434	-0.0069
852.4078	-0.0143
852.5721	-0.0102
852.7364	-0.0455
852.9007	0.041
853.0649	-0.0236
853.2291	-0.0195
853.3934	-0.0197
853.5575	0.0033
853.7217	-0.0351
853.8859	-0.0011
854.05	0.013
854.2141	-0.0425
854.3782	0.0032
854.5423	-0.0349
854.7063	-0.01
854.8703	-0.0029
855.0343	0.0119
855.1983	0.005
855.3623	-0.0069
855.5262	0.0719
855.6901	0.0213
855.854	-0.002
856.0179	0.0643
856.1818	0.0184
856.3456	-0.0005
856.5094	-0.0098
856.6732	-0.034
856.837	-0.0649
857.0008	0.0015
857.1645	0.0324
857.3282	-0.0183
857.4919	-0.0758
857.6556	0.0363
857.8192	-0.0102
857.9828	0.0434
858.1465	0.0166
858.31	-0.034
858.4736	-0.0986
858.6372	-0.0096
858.8007	-0.0476
858.9642	-0.0486
859.1277	0.0234
859.2911	0.06
859.4546	0.0085
859.618	-0.0275
859.7814	0.0375
859.9448	-0.0366
860.1081	-0.0654
860.2715	0.0404
860.4348	-0.0867
860.5981	-0.0025
860.7614	-0.0343
860.9246	-0.0129
861.0879	-0.1405
861.2511	-0.0083
861.4143	0.0153
861.5774	-0.0399
861.7406	0.0582
861.9037	-0.1595
862.0668	-0.0481
862.2299	0.0029
862.393	-0.072
862.556	0.0603
862.7191	0.0154
862.8821	-0.0074
863.0451	-0.0302
863.208	-0.0383
863.371	0.0734
863.5339	-0.0584
863.6968	-0.0548
863.8597	0.0224
864.0225	-0.1507
864.1854	0.0352
864.3482	-0.0022
864.511	0.0757
864.6737	-0.0874
864.8365	-0.0204
864.9992	-0.1048
865.1619	-0.0127
865.3246	-0.1689
865.4873	0.1399
865.65	-0.1054
865.8126	-0.0366
865.9752	-0.0414
866.1378	-0.077
866.3004	-0.0216
866.4629	-0.1464
866.6254	0.0496
866.7879	-0.008
866.9504	0.0202
867.1129	-0.0869
867.2753	-0.0103
867.4377	-0.0788
867.6001	-0.2944
867.7625	0.026
867.9249	-0.0814
868.0872	-0.1886
868.2495	-0.0754
868.4118	0.049
868.5741	-0.1088
868.7363	0.2046
868.8986	-0.0983
869.0608	-0.2162
869.223	-0.1122
869.3851	-0.1131
869.5473	-0.2223
869.7094	-0.2756
869.8715	0.052
870.0336	-0.2586
870.1957	-0.0209
870.3577	0.0962
870.5197	-0.3535
870.6817	-0.1364
870.8437	-0.1997
871.0057	-0.2068
871.1676	-0.0684
871.3295	-0.2181
871.4914	-0.0732
871.6533	0.0392
871.8151	-0.0443
871.977	0.2119
872.1388	-0.0761
872.3006	-0.2877
872.4623	-0.1255
872.6241	-0.1515
872.7858	0.0368
872.9475	0.0344
873.1092	-0.0932
873.2709	0.0222
873.4325	-0.3309
873.5941	-0.1018
873.7557	-0.1209
873.9173	-0.2893
874.0789	-0.1286
874.2404	0.027
874.4019	-0.3575
874.5634	-0.0583
874.7249	-0.2879
874.8863	-0.1171
875.0478	0.0305
875.2092	-0.4492
875.3706	0.0042
875.5319	-0.2273
875.6933	-0.3363
875.8546	-0.1642
876.0159	-0.1183
876.1772	-0.2409
876.3385	-0
876.4997	-0.2342
876.6609	-0.0198
876.8221	-0.1238
876.9833	-0.534
877.1445	-0.13
877.3056	-0.2388
877.4667	-0.9531
877.6278	0.1565
877.7889	0.0992
877.9499	-0.4173
878.111	0.9528
878.272	-0.0821
878.433	0.1266
878.5939	-0.0501
878.7549	-0.4261
878.9158	-0.178
879.0767	0.1
879.2376	0.0679
879.3984	-0.0835
879.5593	-0.2947
879.7201	1.416
879.8809	-0.0424
880.0417	-0.0899
880.2024	-0.2377
880.3632	-0.4025
880.5239	-0
880.6846	-0.4851
880.8452	0.4989
881.0059	-0.5046
881.1665	-0
881.3271	-0.0864
881.4877	0.07
881.6483	-0
881.8088	-0.1467
881.9693	-0.1923
882.1298	-0.1923
882.2903	-0.1923
