Data from MonoPyChalIsomerACN10uM450nmA_Absorbance_13-11-13-492.txt Node
Date: Tue Jul 09 13:11:13 BST 2024
User: LASERRRRR
Spectrometer: FLMT03099
Trigger mode: 0
Integration Time (sec): 2.000000E-1
Scans to average: 1
Electric dark correction enabled: true
Nonlinearity correction enabled: false
Boxcar width: 0
XAxis mode: Wavelengths
Number of Pixels in Spectrum: 3648
>>>>>Begin Spectral Data<<<<<
179.3399	-0.1092
179.5586	-0.1092
179.7771	-0.1092
179.9957	-0
180.2143	-0.3386
180.4329	-0.0117
180.6514	-0
180.8699	-0
181.0885	-0.2742
181.307	-0
181.5255	-0.1124
181.744	-0
181.9625	-0
182.181	-0
182.3994	-0
182.6179	-0.2477
182.8363	-0
183.0547	0.1895
183.2732	0.1671
183.4916	-0.0016
183.71	0.1306
183.9284	0.1057
184.1467	0.029
184.3651	0.0515
184.5835	0.1767
184.8018	0.1024
185.0201	0.1304
185.2385	0.0411
185.4568	0.0696
185.6751	0.0468
185.8934	-0.0234
186.1117	0.0617
186.3299	0.0148
186.5482	0.0186
186.7664	0.0922
186.9847	0.2219
187.2029	0.0999
187.4211	0.0672
187.6393	0.0238
187.8575	0.059
188.0757	0.1096
188.2939	0.0556
188.512	0.0131
188.7302	0.1052
188.9483	0.1545
189.1665	0.207
189.3846	0.3245
189.6027	0.1961
189.8208	0.1731
190.0389	0.1716
190.257	0.2789
190.475	0.2546
190.6931	0.0469
190.9111	0.2348
191.1292	0.2448
191.3472	0.3542
191.5652	0.4298
191.7832	0.4305
192.0012	0.369
192.2192	0.3985
192.4371	0.4414
192.6551	0.4098
192.873	0.4487
193.091	0.4881
193.3089	0.6889
193.5268	0.4791
193.7447	0.5967
193.9626	0.556
194.1805	0.5674
194.3984	0.6096
194.6162	0.6339
194.8341	0.5585
195.0519	0.6201
195.2697	0.6349
195.4875	0.5357
195.7054	0.7026
195.9231	0.6509
196.1409	0.5664
196.3587	0.6945
196.5765	0.654
196.7942	0.7623
197.012	0.5919
197.2297	0.761
197.4474	0.769
197.6651	0.672
197.8828	0.831
198.1005	0.7876
198.3182	0.7328
198.5358	0.6531
198.7535	0.8445
198.9711	0.7672
199.1888	0.7789
199.4064	0.8281
199.624	0.7407
199.8416	0.8543
200.0592	0.7641
200.2767	0.762
200.4943	0.852
200.7119	0.9071
200.9294	0.8458
201.1469	0.9395
201.3645	0.8485
201.582	0.9044
201.7995	0.7391
202.017	0.9856
202.2344	0.8248
202.4519	0.8993
202.6694	0.9771
202.8868	0.9488
203.1042	1.1059
203.3217	0.8999
203.5391	1.0051
203.7565	0.9377
203.9739	0.8069
204.1913	0.8192
204.4086	0.8807
204.626	1.0065
204.8433	0.9603
205.0607	0.9649
205.278	0.9447
205.4953	1.0722
205.7126	0.9291
205.9299	0.9924
206.1472	1.0044
206.3644	1.0009
206.5817	1.0096
206.7989	1.0694
207.0162	1.0774
207.2334	0.9787
207.4506	1.0193
207.6678	1.0781
207.885	1.1209
208.1022	1.0185
208.3194	1.1916
208.5365	0.9893
208.7537	1.0665
208.9708	1.0664
209.1879	1.0813
209.405	1.048
209.6222	1.0512
209.8392	1.16
210.0563	0.9768
210.2734	1.0841
210.4905	1.1262
210.7075	1.0225
210.9245	1.0529
211.1416	1.1801
211.3586	1.0417
211.5756	1.1097
211.7926	1.0019
212.0096	1.0231
212.2265	1.0362
212.4435	1.0654
212.6604	1.0549
212.8774	0.9903
213.0943	1.0316
213.3112	1.0512
213.5281	1.0167
213.745	0.9967
213.9619	1.0304
214.1788	1.0126
214.3956	1.0051
214.6125	0.9006
214.8293	0.8494
215.0461	0.9122
215.2629	0.8964
215.4798	0.863
215.6965	0.825
215.9133	0.866
216.1301	0.8174
216.3469	0.8489
216.5636	0.8016
216.7803	0.7682
216.9971	0.764
217.2138	0.7248
217.4305	0.7342
217.6472	0.6757
217.8639	0.6493
218.0805	0.6336
218.2972	0.5579
218.5138	0.538
218.7305	0.5344
218.9471	0.4846
219.1637	0.4536
219.3803	0.4391
219.5969	0.398
219.8135	0.3635
220.0301	0.3639
220.2466	0.3655
220.4632	0.3436
220.6797	0.3323
220.8962	0.3168
221.1127	0.3094
221.3292	0.3098
221.5457	0.287
221.7622	0.2927
221.9787	0.2925
222.1951	0.2732
222.4116	0.2878
222.628	0.273
222.8444	0.2704
223.0608	0.2744
223.2772	0.275
223.4936	0.2805
223.71	0.2684
223.9264	0.2881
224.1427	0.2724
224.3591	0.2791
224.5754	0.2756
224.7917	0.2771
225.008	0.2785
225.2243	0.2966
225.4406	0.2837
225.6569	0.2904
225.8732	0.2975
226.0894	0.2793
226.3057	0.2935
226.5219	0.2979
226.7381	0.2939
226.9543	0.2852
227.1705	0.3016
227.3867	0.3089
227.6029	0.2869
227.8191	0.2997
228.0352	0.3039
228.2513	0.3133
228.4675	0.3029
228.6836	0.3286
228.8997	0.3135
229.1158	0.308
229.3319	0.3285
229.548	0.3314
229.764	0.3376
229.9801	0.3293
230.1961	0.3312
230.4121	0.3403
230.6282	0.3447
230.8442	0.3494
231.0602	0.3489
231.2761	0.3439
231.4921	0.3595
231.7081	0.3613
231.924	0.3651
232.14	0.3634
232.3559	0.3747
232.5718	0.3543
232.7877	0.361
233.0036	0.3603
233.2195	0.3766
233.4353	0.3851
233.6512	0.3784
233.867	0.3695
234.0829	0.3899
234.2987	0.3849
234.5145	0.3782
234.7303	0.3979
234.9461	0.4032
235.1619	0.3882
235.3776	0.3784
235.5934	0.4082
235.8091	0.3983
236.0249	0.396
236.2406	0.3986
236.4563	0.391
236.672	0.3998
236.8877	0.411
237.1034	0.3993
237.319	0.4125
237.5347	0.4115
237.7503	0.4151
237.966	0.4131
238.1816	0.4105
238.3972	0.4131
238.6128	0.4194
238.8284	0.4165
239.0439	0.42
239.2595	0.4295
239.475	0.4182
239.6906	0.4225
239.9061	0.4175
240.1216	0.4223
240.3371	0.4132
240.5526	0.4262
240.7681	0.419
240.9836	0.4058
241.199	0.4148
241.4145	0.4055
241.6299	0.4062
241.8453	0.3961
242.0607	0.3922
242.2761	0.3878
242.4915	0.3863
242.7069	0.375
242.9223	0.3549
243.1376	0.3575
243.353	0.3405
243.5683	0.3483
243.7836	0.3482
243.9989	0.3339
244.2142	0.3302
244.4295	0.3284
244.6448	0.3215
244.86	0.3187
245.0753	0.2957
245.2905	0.2859
245.5057	0.2973
245.721	0.2916
245.9362	0.2769
246.1514	0.2805
246.3665	0.2873
246.5817	0.2642
246.7969	0.2708
247.012	0.2673
247.2271	0.2542
247.4423	0.2579
247.6574	0.2527
247.8725	0.2524
248.0876	0.2469
248.3026	0.2445
248.5177	0.2407
248.7328	0.233
248.9478	0.2405
249.1628	0.2304
249.3779	0.222
249.5929	0.2244
249.8079	0.2262
250.0228	0.2244
250.2378	0.228
250.4528	0.2108
250.6677	0.2174
250.8827	0.2139
251.0976	0.2152
251.3125	0.2131
251.5274	0.2053
251.7423	0.2101
251.9572	0.2013
252.172	0.2082
252.3869	0.1999
252.6017	0.2067
252.8166	0.2097
253.0314	0.2049
253.2462	0.2163
253.461	0.2129
253.6758	0.1951
253.8906	0.201
254.1053	0.2011
254.3201	0.2044
254.5348	0.2059
254.7496	0.2023
254.9643	0.2005
255.179	0.199
255.3937	0.2032
255.6083	0.2004
255.823	0.1978
256.0377	0.1922
256.2523	0.1984
256.467	0.2007
256.6816	0.1968
256.8962	0.1969
257.1108	0.1953
257.3254	0.2052
257.54	0.1956
257.7545	0.1975
257.9691	0.1978
258.1836	0.1909
258.3981	0.2059
258.6127	0.1986
258.8272	0.1918
259.0417	0.1917
259.2561	0.1936
259.4706	0.196
259.6851	0.1998
259.8995	0.1817
260.114	0.1885
260.3284	0.2018
260.5428	0.1988
260.7572	0.1951
260.9716	0.195
261.186	0.2053
261.4003	0.2054
261.6147	0.1929
261.829	0.1963
262.0433	0.1992
262.2577	0.2004
262.472	0.2015
262.6863	0.1854
262.9005	0.1923
263.1148	0.1944
263.3291	0.1866
263.5433	0.1913
263.7576	0.1885
263.9718	0.1849
264.186	0.1857
264.4002	0.1826
264.6144	0.1914
264.8286	0.1752
265.0427	0.1779
265.2569	0.1749
265.471	0.1757
265.6851	0.1766
265.8993	0.1709
266.1134	0.1742
266.3275	0.1814
266.5415	0.1758
266.7556	0.1872
266.9697	0.1754
267.1837	0.1744
267.3978	0.1819
267.6118	0.1821
267.8258	0.183
268.0398	0.1895
268.2538	0.1901
268.4677	0.1895
268.6817	0.1978
268.8957	0.1787
269.1096	0.1878
269.3235	0.1762
269.5374	0.1758
269.7514	0.1553
269.9652	0.1594
270.1791	0.1519
270.393	0.1443
270.6068	0.1463
270.8207	0.1426
271.0345	0.1511
271.2483	0.15
271.4622	0.1478
271.676	0.1414
271.8897	0.1375
272.1035	0.1355
272.3173	0.141
272.531	0.1403
272.7448	0.1405
272.9585	0.1408
273.1722	0.1319
273.3859	0.1343
273.5996	0.1264
273.8133	0.134
274.0269	0.136
274.2406	0.1362
274.4542	0.1383
274.6679	0.1335
274.8815	0.1387
275.0951	0.1419
275.3087	0.1327
275.5223	0.1225
275.7358	0.1315
275.9494	0.14
276.1629	0.1338
276.3765	0.1308
276.59	0.1385
276.8035	0.1368
277.017	0.1275
277.2305	0.139
277.444	0.132
277.6574	0.135
277.8709	0.1405
278.0843	0.1479
278.2978	0.1433
278.5112	0.1391
278.7246	0.1321
278.938	0.1419
279.1513	0.147
279.3647	0.1475
279.5781	0.1301
279.7914	0.1368
280.0047	0.1377
280.2181	0.1409
280.4314	0.1413
280.6447	0.1459
280.8579	0.1456
281.0712	0.1453
281.2845	0.1452
281.4977	0.146
281.711	0.1522
281.9242	0.1442
282.1374	0.1405
282.3506	0.1415
282.5638	0.1483
282.7769	0.1495
282.9901	0.1511
283.2033	0.1485
283.4164	0.148
283.6295	0.1528
283.8426	0.1553
284.0557	0.1501
284.2688	0.1512
284.4819	0.1444
284.695	0.1595
284.908	0.1513
285.1211	0.1568
285.3341	0.1512
285.5471	0.1606
285.7601	0.1477
285.9731	0.16
286.1861	0.164
286.3991	0.1562
286.612	0.1621
286.825	0.1587
287.0379	0.1537
287.2508	0.1541
287.4637	0.1645
287.6766	0.1539
287.8895	0.1658
288.1024	0.1632
288.3152	0.1647
288.5281	0.1568
288.7409	0.1662
288.9538	0.1628
289.1666	0.167
289.3794	0.1599
289.5922	0.1672
289.8049	0.1605
290.0177	0.1622
290.2304	0.1584
290.4432	0.1683
290.6559	0.1694
290.8686	0.1634
291.0813	0.1706
291.294	0.1655
291.5067	0.162
291.7194	0.1712
291.932	0.1695
292.1447	0.1712
292.3573	0.1671
292.5699	0.173
292.7825	0.1686
292.9951	0.1717
293.2077	0.1617
293.4203	0.163
293.6328	0.1732
293.8454	0.1598
294.0579	0.1739
294.2704	0.1686
294.4829	0.1704
294.6954	0.1691
294.9079	0.1705
295.1204	0.1678
295.3328	0.1661
295.5453	0.1625
295.7577	0.1666
295.9701	0.1677
296.1825	0.1742
296.3949	0.1651
296.6073	0.1693
296.8197	0.1642
297.0321	0.1704
297.2444	0.1691
297.4567	0.1652
297.6691	0.1765
297.8814	0.1615
298.0937	0.1672
298.306	0.1681
298.5182	0.1632
298.7305	0.1631
298.9428	0.1607
299.155	0.1628
299.3672	0.1641
299.5794	0.1688
299.7916	0.1669
300.0038	0.1622
300.216	0.1702
300.4282	0.1655
300.6403	0.1586
300.8525	0.1694
301.0646	0.1682
301.2767	0.1604
301.4888	0.1536
301.7009	0.1671
301.913	0.1659
302.125	0.1647
302.3371	0.1657
302.5491	0.1645
302.7612	0.165
302.9732	0.1724
303.1852	0.1637
303.3972	0.1664
303.6092	0.1591
303.8211	0.1645
304.0331	0.1588
304.245	0.1604
304.457	0.1682
304.6689	0.1683
304.8808	0.1633
305.0927	0.1569
305.3046	0.1571
305.5164	0.155
305.7283	0.1571
305.9401	0.154
306.152	0.1558
306.3638	0.1664
306.5756	0.1478
306.7874	0.1495
306.9992	0.146
307.2109	0.1395
307.4227	0.1457
307.6344	0.1416
307.8462	0.1375
308.0579	0.1347
308.2696	0.1271
308.4813	0.1374
308.693	0.1348
308.9046	0.1254
309.1163	0.1279
309.328	0.1294
309.5396	0.1256
309.7512	0.1186
309.9628	0.1175
310.1744	0.1208
310.386	0.1101
310.5976	0.114
310.8091	0.1153
311.0207	0.1165
311.2322	0.1145
311.4437	0.1223
311.6552	0.1183
311.8667	0.1096
312.0782	0.1119
312.2897	0.105
312.5012	0.1076
312.7126	0.1003
312.924	0.0976
313.1355	0.0965
313.3469	0.103
313.5583	0.1033
313.7696	0.1002
313.981	0.098
314.1924	0.0934
314.4037	0.0952
314.6151	0.0906
314.8264	0.0948
315.0377	0.0955
315.249	0.0997
315.4603	0.0956
315.6716	0.0979
315.8828	0.0978
316.0941	0.1026
316.3053	0.093
316.5165	0.0904
316.7277	0.0895
316.9389	0.0904
317.1501	0.0937
317.3613	0.0947
317.5724	0.0871
317.7836	0.0859
317.9947	0.0938
318.2058	0.09
318.417	0.0817
318.6281	0.0921
318.8391	0.0814
319.0502	0.0899
319.2613	0.0933
319.4723	0.0866
319.6834	0.091
319.8944	0.0894
320.1054	0.0873
320.3164	0.0912
320.5274	0.0973
320.7383	0.0838
320.9493	0.0903
321.1602	0.0939
321.3712	0.0972
321.5821	0.0976
321.793	0.0828
322.0039	0.0861
322.2148	0.0909
322.4257	0.0875
322.6365	0.0829
322.8474	0.0931
323.0582	0.0998
323.269	0.0951
323.4798	0.0914
323.6906	0.0961
323.9014	0.0918
324.1122	0.09
324.3229	0.1006
324.5337	0.0875
324.7444	0.0837
324.9551	0.0994
325.1658	0.0965
325.3765	0.0909
325.5872	0.0913
325.7979	0.0902
326.0085	0.0963
326.2192	0.0944
326.4298	0.0998
326.6404	0.0941
326.851	0.0882
327.0616	0.0912
327.2722	0.0985
327.4828	0.0959
327.6933	0.0952
327.9039	0.0981
328.1144	0.0975
328.3249	0.0991
328.5354	0.0989
328.7459	0.0953
328.9564	0.094
329.1669	0.1001
329.3773	0.098
329.5878	0.0988
329.7982	0.1039
330.0086	0.1004
330.219	0.0992
330.4294	0.089
330.6398	0.0883
330.8502	0.0959
331.0605	0.0972
331.2708	0.0962
331.4812	0.1002
331.6915	0.1014
331.9018	0.0917
332.1121	0.098
332.3224	0.0968
332.5326	0.0928
332.7429	0.0999
332.9531	0.098
333.1633	0.1062
333.3735	0.0977
333.5837	0.0961
333.7939	0.1072
334.0041	0.104
334.2143	0.1014
334.4244	0.099
334.6346	0.0997
334.8447	0.1041
335.0548	0.0991
335.2649	0.0896
335.475	0.1036
335.685	0.0987
335.8951	0.0981
336.1051	0.098
336.3152	0.098
336.5252	0.0953
336.7352	0.0957
336.9452	0.0985
337.1552	0.097
337.3652	0.0998
337.5751	0.0978
337.7851	0.1052
337.995	0.097
338.2049	0.1025
338.4148	0.1017
338.6247	0.1011
338.8346	0.1002
339.0445	0.1003
339.2543	0.1002
339.4642	0.1034
339.674	0.1005
339.8838	0.1039
340.0936	0.109
340.3034	0.1116
340.5132	0.1023
340.7229	0.1113
340.9327	0.1088
341.1424	0.1125
341.3522	0.107
341.5619	0.1117
341.7716	0.119
341.9813	0.1105
342.1909	0.1133
342.4006	0.1047
342.6102	0.1129
342.8199	0.1163
343.0295	0.1011
343.2391	0.1096
343.4487	0.1197
343.6583	0.117
343.8679	0.1193
344.0774	0.1173
344.287	0.1198
344.4965	0.1097
344.706	0.1219
344.9155	0.1261
345.125	0.1201
345.3345	0.1268
345.544	0.1131
345.7534	0.1207
345.9629	0.1263
346.1723	0.1318
346.3817	0.1256
346.5911	0.1333
346.8005	0.1266
347.0099	0.1133
347.2193	0.1261
347.4286	0.1359
347.638	0.1334
347.8473	0.1259
348.0566	0.1298
348.2659	0.1241
348.4752	0.1331
348.6845	0.1301
348.8937	0.1338
349.103	0.1312
349.3122	0.1329
349.5214	0.1285
349.7306	0.1326
349.9398	0.1329
350.149	0.1329
350.3582	0.1316
350.5674	0.131
350.7765	0.1308
350.9856	0.1342
351.1948	0.1365
351.4039	0.1375
351.613	0.1296
351.822	0.1365
352.0311	0.1397
352.2402	0.1395
352.4492	0.1367
352.6582	0.135
352.8672	0.1461
353.0762	0.1455
353.2852	0.1518
353.4942	0.1503
353.7032	0.1428
353.9121	0.1532
354.1211	0.1493
354.33	0.1403
354.5389	0.1494
354.7478	0.1414
354.9567	0.1402
355.1655	0.1553
355.3744	0.1595
355.5833	0.1475
355.7921	0.1519
356.0009	0.1498
356.2097	0.1471
356.4185	0.1418
356.6273	0.1621
356.8361	0.1431
357.0448	0.1476
357.2536	0.1564
357.4623	0.1652
357.671	0.1642
357.8797	0.1622
358.0884	0.1635
358.2971	0.1608
358.5057	0.164
358.7144	0.1652
358.923	0.1721
359.1316	0.1606
359.3402	0.1732
359.5488	0.1621
359.7574	0.1679
359.966	0.177
360.1746	0.177
360.3831	0.1779
360.5916	0.184
360.8002	0.184
361.0087	0.1738
361.2172	0.175
361.4256	0.1797
361.6341	0.1841
361.8426	0.1892
362.051	0.1736
362.2594	0.1844
362.4678	0.1798
362.6762	0.1832
362.8846	0.1833
363.093	0.1835
363.3014	0.1877
363.5097	0.1842
363.718	0.1971
363.9264	0.1878
364.1347	0.1984
364.343	0.1934
364.5513	0.1992
364.7595	0.1926
364.9678	0.2012
365.176	0.2011
365.3842	0.1995
365.5925	0.1978
365.8007	0.1951
366.0089	0.2094
366.217	0.1984
366.4252	0.2041
366.6333	0.2027
366.8415	0.2097
367.0496	0.2138
367.2577	0.2116
367.4658	0.2164
367.6739	0.2206
367.882	0.2093
368.09	0.2098
368.2981	0.2201
368.5061	0.2059
368.7141	0.2151
368.9221	0.2165
369.1301	0.2269
369.3381	0.2222
369.5461	0.2244
369.754	0.2158
369.962	0.2175
370.1699	0.2203
370.3778	0.2244
370.5857	0.2229
370.7936	0.2143
371.0015	0.2315
371.2093	0.2187
371.4172	0.2251
371.625	0.2232
371.8328	0.2287
372.0406	0.235
372.2484	0.227
372.4562	0.2436
372.664	0.2235
372.8717	0.2376
373.0795	0.2305
373.2872	0.2485
373.4949	0.2274
373.7026	0.2383
373.9103	0.2309
374.118	0.2435
374.3256	0.2429
374.5333	0.236
374.7409	0.2376
374.9485	0.2324
375.1561	0.2459
375.3637	0.2366
375.5713	0.2425
375.7789	0.233
375.9864	0.2475
376.194	0.2477
376.4015	0.257
376.609	0.2553
376.8165	0.2398
377.024	0.2393
377.2315	0.2482
377.4389	0.2484
377.6464	0.2445
377.8538	0.2489
378.0612	0.2506
378.2686	0.2519
378.476	0.2448
378.6834	0.2517
378.8908	0.2679
379.0981	0.2626
379.3055	0.2606
379.5128	0.2445
379.7201	0.2523
379.9274	0.2586
380.1347	0.2659
380.342	0.2578
380.5492	0.2594
380.7565	0.2729
380.9637	0.2686
381.1709	0.2704
381.3781	0.253
381.5853	0.2647
381.7925	0.2633
381.9997	0.2667
382.2068	0.2679
382.4139	0.2669
382.6211	0.2739
382.8282	0.2722
383.0353	0.2649
383.2424	0.2656
383.4494	0.2739
383.6565	0.2729
383.8635	0.2785
384.0706	0.2689
384.2776	0.2849
384.4846	0.2731
384.6916	0.2662
384.8986	0.2648
385.1055	0.2888
385.3125	0.289
385.5194	0.2828
385.7263	0.2831
385.9333	0.2743
386.1402	0.2731
386.347	0.2679
386.5539	0.2806
386.7608	0.2638
386.9676	0.2752
387.1744	0.2666
387.3813	0.2762
387.5881	0.2727
387.7948	0.2809
388.0016	0.2766
388.2084	0.2865
388.4151	0.2675
388.6219	0.2674
388.8286	0.2867
389.0353	0.2615
389.242	0.2713
389.4487	0.2662
389.6553	0.2652
389.862	0.2514
390.0686	0.2548
390.2753	0.2625
390.4819	0.2597
390.6885	0.2599
390.8951	0.275
391.1016	0.2618
391.3082	0.2615
391.5147	0.2717
391.7213	0.256
391.9278	0.254
392.1343	0.2625
392.3408	0.2571
392.5473	0.2446
392.7537	0.2636
392.9602	0.2453
393.1666	0.2524
393.373	0.2458
393.5794	0.2502
393.7858	0.2413
393.9922	0.2395
394.1986	0.2527
394.4049	0.26
394.6113	0.2423
394.8176	0.2372
395.0239	0.2353
395.2302	0.2373
395.4365	0.2382
395.6428	0.242
395.8491	0.2276
396.0553	0.2351
396.2615	0.2364
396.4678	0.2426
396.674	0.2351
396.8802	0.2339
397.0863	0.2412
397.2925	0.2335
397.4987	0.2307
397.7048	0.2216
397.9109	0.2365
398.117	0.2226
398.3231	0.2381
398.5292	0.2331
398.7353	0.2331
398.9413	0.2317
399.1474	0.2327
399.3534	0.221
399.5594	0.2223
399.7654	0.2269
399.9714	0.2383
400.1774	0.2481
400.3833	0.2319
400.5893	0.2214
400.7952	0.2184
401.0011	0.2361
401.207	0.2317
401.4129	0.2158
401.6188	0.2207
401.8247	0.2268
402.0305	0.2266
402.2364	0.2415
402.4422	0.2295
402.648	0.2375
402.8538	0.2225
403.0596	0.2249
403.2654	0.2277
403.4711	0.2289
403.6768	0.2453
403.8826	0.2299
404.0883	0.2233
404.294	0.2254
404.4997	0.2251
404.7054	0.2162
404.911	0.2312
405.1167	0.2265
405.3223	0.2328
405.5279	0.2261
405.7335	0.2248
405.9391	0.2285
406.1447	0.2247
406.3502	0.2269
406.5558	0.2312
406.7613	0.2216
406.9668	0.2388
407.1724	0.2277
407.3778	0.2411
407.5833	0.2182
407.7888	0.2557
407.9942	0.2353
408.1997	0.2417
408.4051	0.2364
408.6105	0.2392
408.8159	0.2492
409.0213	0.2262
409.2267	0.2287
409.432	0.2288
409.6374	0.2401
409.8427	0.2368
410.048	0.2266
410.2533	0.2217
410.4586	0.2289
410.6639	0.2273
410.8691	0.2263
411.0744	0.2281
411.2796	0.24
411.4848	0.2207
411.69	0.2317
411.8952	0.2247
412.1004	0.2242
412.3056	0.2368
412.5107	0.232
412.7158	0.2248
412.921	0.234
413.1261	0.2282
413.3312	0.2349
413.5362	0.2328
413.7413	0.2232
413.9464	0.2205
414.1514	0.2178
414.3564	0.2276
414.5614	0.2225
414.7664	0.2292
414.9714	0.226
415.1764	0.2272
415.3813	0.2303
415.5863	0.2334
415.7912	0.228
415.9961	0.228
416.201	0.2414
416.4059	0.2202
416.6108	0.228
416.8156	0.2071
417.0205	0.2224
417.2253	0.229
417.4301	0.2257
417.6349	0.2188
417.8397	0.2198
418.0445	0.2283
418.2492	0.2135
418.454	0.2146
418.6587	0.2191
418.8634	0.2143
419.0681	0.2146
419.2728	0.2211
419.4775	0.213
419.6822	0.2184
419.8868	0.2168
420.0915	0.2102
420.2961	0.2199
420.5007	0.217
420.7053	0.2162
420.9099	0.2012
421.1144	0.2044
421.319	0.1938
421.5235	0.2126
421.728	0.2011
421.9325	0.2011
422.137	0.2092
422.3415	0.2051
422.546	0.2073
422.7504	0.2082
422.9549	0.2181
423.1593	0.2067
423.3637	0.2071
423.5681	0.2081
423.7725	0.2018
423.9769	0.1961
424.1812	0.1953
424.3856	0.1957
424.5899	0.2032
424.7942	0.1956
424.9985	0.198
425.2028	0.1855
425.4071	0.1868
425.6113	0.1959
425.8156	0.1917
426.0198	0.2038
426.224	0.1786
426.4282	0.1839
426.6324	0.1945
426.8366	0.1849
427.0407	0.1808
427.2449	0.1919
427.449	0.1848
427.6531	0.1802
427.8572	0.1652
428.0613	0.1734
428.2654	0.1653
428.4694	0.189
428.6735	0.1764
428.8775	0.172
429.0815	0.1774
429.2855	0.1723
429.4895	0.1702
429.6935	0.1605
429.8975	0.1683
430.1014	0.16
430.3053	0.1522
430.5093	0.1641
430.7132	0.1684
430.9171	0.1527
431.1209	0.164
431.3248	0.1509
431.5286	0.1565
431.7325	0.1435
431.9363	0.1428
432.1401	0.1582
432.3439	0.1433
432.5477	0.1365
432.7514	0.1399
432.9552	0.1391
433.1589	0.1318
433.3627	0.1314
433.5664	0.1335
433.7701	0.1253
433.9737	0.121
434.1774	0.132
434.3811	0.1236
434.5847	0.1357
434.7883	0.1391
434.9919	0.1287
435.1955	0.1194
435.3991	0.1261
435.6027	0.1153
435.8062	0.1154
436.0098	0.1175
436.2133	0.1023
436.4168	0.1162
436.6203	0.1212
436.8238	0.0987
437.0272	0.1041
437.2307	0.1037
437.4341	0.1024
437.6375	0.1019
437.841	0.0925
438.0443	0.0982
438.2477	0.0892
438.4511	0.1048
438.6545	0.0903
438.8578	0.0932
439.0611	0.0899
439.2644	0.0985
439.4677	0.0948
439.671	0.0825
439.8743	0.0884
440.0775	0.0803
440.2808	0.0657
440.484	0.0859
440.6872	0.0802
440.8904	0.0707
441.0936	0.076
441.2967	0.0735
441.4999	0.0741
441.703	0.071
441.9062	0.0758
442.1093	0.0713
442.3124	0.0736
442.5155	0.066
442.7185	0.0575
442.9216	0.0592
443.1246	0.0714
443.3276	0.0659
443.5307	0.0508
443.7337	0.0662
443.9366	0.0618
444.1396	0.0487
444.3426	0.0581
444.5455	0.0527
444.7484	0.0544
444.9513	0.0594
445.1542	0.0639
445.3571	0.0507
445.56	0.0482
445.7628	0.0409
445.9657	0.0554
446.1685	0.0479
446.3713	0.0485
446.5741	0.0467
446.7769	0.0462
446.9797	0.0338
447.1824	0.0473
447.3852	0.0383
447.5879	0.0389
447.7906	0.0355
447.9933	0.029
448.196	0.0407
448.3986	0.04
448.6013	0.0381
448.8039	0.0405
449.0066	0.0411
449.2092	0.0372
449.4118	0.0272
449.6143	0.025
449.8169	0.0193
450.0195	0.0183
450.222	0.0247
450.4245	0.02
450.627	0.0248
450.8295	0.0206
451.032	0.0189
451.2345	0.0213
451.4369	0.0278
451.6394	0.0219
451.8418	0.02
452.0442	0.0222
452.2466	0.0352
452.449	0.0263
452.6513	0.0259
452.8537	0.0277
453.056	0.0186
453.2583	0.0163
453.4607	0.0213
453.663	0.0238
453.8652	0.0159
454.0675	0.0198
454.2697	0.0235
454.472	0.0247
454.6742	0.018
454.8764	0.0205
455.0786	0.0205
455.2808	0.0129
455.4829	0.0197
455.6851	0.0039
455.8872	0.007
456.0893	0.008
456.2915	0.0038
456.4935	0.0109
456.6956	0.0194
456.8977	0.0056
457.0997	0.0032
457.3018	0.0127
457.5038	0.0094
457.7058	0.0033
457.9078	0.0071
458.1098	0.0098
458.3117	0.0012
458.5137	0.0046
458.7156	0.0117
458.9175	0.0012
459.1194	0.0117
459.3213	0.0036
459.5232	-0.0057
459.725	0.0001
459.9269	0.0036
460.1287	0.0106
460.3305	0.0043
460.5323	0.011
460.7341	0.0018
460.9359	0.0015
461.1376	0.0023
461.3394	-0.0001
461.5411	0.0159
461.7428	0.0022
461.9445	0.0062
462.1462	-0.0058
462.3479	-0.0018
462.5495	0.0114
462.7512	0.0067
462.9528	0.002
463.1544	0.001
463.356	0.0071
463.5576	-0.0008
463.7592	0.0025
463.9607	0.0029
464.1623	0.0028
464.3638	0.0033
464.5653	0.0103
464.7668	-0.0013
464.9683	0.021
465.1697	0.0031
465.3712	0.0047
465.5726	0.0033
465.7741	-0.0032
465.9755	-0.0027
466.1769	-0.0121
466.3782	0.0029
466.5796	-0.009
466.7809	0.0018
466.9823	-0.0063
467.1836	-0.0006
467.3849	0.002
467.5862	-0.0025
467.7875	-0.0089
467.9887	0.0054
468.19	-0.0046
468.3912	-0.0026
468.5924	0.0024
468.7936	-0.0092
468.9948	0.008
469.196	0.002
469.3972	-0.0075
469.5983	-0.0007
469.7994	0.0003
470.0006	-0.0095
470.2017	0.0033
470.4027	-0.0021
470.6038	-0.007
470.8049	0.0016
471.0059	0.002
471.2069	0.0077
471.408	-0.0015
471.6089	-0.01
471.8099	-0.0055
472.0109	0.0017
472.2119	-0.0112
472.4128	0.0021
472.6137	-0.0012
472.8146	-0.0048
473.0155	-0.012
473.2164	-0.0146
473.4173	-0.0057
473.6181	-0.0038
473.819	0.0032
474.0198	-0.0081
474.2206	-0.0043
474.4214	0.0014
474.6222	0.0011
474.8229	-0.0103
475.0237	0.0025
475.2244	0.0048
475.4251	-0.0057
475.6258	-0.0064
475.8265	0.0008
476.0272	-0.0121
476.2278	-0.0022
476.4285	-0.0012
476.6291	-0.0033
476.8297	-0.0083
477.0303	-0.0127
477.2309	0.013
477.4315	-0.0009
477.632	-0.0152
477.8326	-0.0056
478.0331	-0.0044
478.2336	-0.0014
478.4341	-0.011
478.6346	-0.0009
478.8351	-0.007
479.0355	-0.0036
479.236	-0.0092
479.4364	-0.0029
479.6368	0.0045
479.8372	-0.0073
480.0376	-0.0065
480.2379	-0.0037
480.4383	-0.0071
480.6386	-0.0129
480.8389	-0.0112
481.0392	-0.004
481.2395	-0.0035
481.4398	-0.0017
481.6401	-0.0147
481.8403	0.0002
482.0405	-0.0138
482.2408	0.0047
482.441	-0.0009
482.6411	0.0022
482.8413	-0
483.0415	-0.0076
483.2416	-0.0069
483.4417	-0.004
483.6419	-0.0052
483.8419	-0.0037
484.042	0.0019
484.2421	-0.0052
484.4422	-0.0081
484.6422	-0.0081
484.8422	-0.0067
485.0422	-0.006
485.2422	0.0011
485.4422	-0.0054
485.6422	-0.0073
485.8421	-0.003
486.042	0.004
486.242	-0.0057
486.4419	-0.0068
486.6417	-0.0025
486.8416	-0.001
487.0415	-0.005
487.2413	-0.003
487.4411	0.0003
487.641	-0.0001
487.8408	-0.0092
488.0405	-0.0099
488.2403	-0.0037
488.4401	-0.0122
488.6398	-0.0073
488.8395	-0.0114
489.0392	-0.0048
489.2389	-0.0084
489.4386	-0.013
489.6383	0.0023
489.8379	-0.0143
490.0376	-0.0053
490.2372	-0.006
490.4368	-0.0101
490.6364	-0.0076
490.836	-0.0103
491.0355	-0.0059
491.2351	-0.0092
491.4346	-0.0077
491.6341	-0.0072
491.8336	-0.0055
492.0331	-0.0121
492.2326	-0.0065
492.432	0.0008
492.6315	-0.0083
492.8309	-0.0054
493.0303	-0.0013
493.2297	-0.0068
493.4291	-0.0097
493.6284	-0.0006
493.8278	-0.0014
494.0271	-0.0044
494.2264	-0.0024
494.4257	-0.0032
494.625	-0.009
494.8243	0.0019
495.0236	-0.0129
495.2228	-0.0093
495.422	-0.0001
495.6213	-0.0113
495.8205	-0.0035
496.0196	-0.003
496.2188	-0.0064
496.418	-0.0002
496.6171	-0.0018
496.8162	-0.0009
497.0153	0.0036
497.2144	-0.0043
497.4135	-0.0052
497.6126	-0.0079
497.8116	-0.0006
498.0107	-0.0061
498.2097	-0.0015
498.4087	-0.0102
498.6077	-0.0014
498.8067	-0.0048
499.0056	-0.0036
499.2046	-0.0033
499.4035	-0.0013
499.6024	-0.0057
499.8013	0.0018
500.0002	-0.0069
500.199	-0.0029
500.3979	0.0019
500.5967	-0.0084
500.7956	-0.0108
500.9944	-0.0056
501.1932	-0.0056
501.3919	-0.0107
501.5907	-0.006
501.7895	-0.0022
501.9882	-0.0099
502.1869	-0.0062
502.3856	-0.0033
502.5843	-0.0072
502.783	-0.0094
502.9816	-0.0121
503.1803	-0.0024
503.3789	0.0027
503.5775	-0.0052
503.7761	-0.0068
503.9747	-0.008
504.1732	-0.0093
504.3718	-0.0001
504.5703	-0.0025
504.7689	-0.0031
504.9674	-0.0054
505.1658	-0.0108
505.3643	-0.0011
505.5628	0.0128
505.7612	-0.0116
505.9597	-0.0052
506.1581	-0.0011
506.3565	-0.0051
506.5549	-0.0059
506.7532	-0.004
506.9516	-0.0017
507.1499	-0.0064
507.3482	-0.0056
507.5465	-0.0047
507.7448	-0.0073
507.9431	-0.0088
508.1414	-0.0028
508.3396	-0.001
508.5379	0.0008
508.7361	-0.0007
508.9343	-0.0077
509.1325	-0.0002
509.3306	-0.0043
509.5288	-0.0014
509.7269	-0.0103
509.9251	-0.0095
510.1232	-0.0048
510.3213	-0.0047
510.5193	-0.0031
510.7174	0.0002
510.9154	-0.0083
511.1135	-0.0057
511.3115	-0.0127
511.5095	-0.0061
511.7075	0.006
511.9055	-0.0023
512.1034	-0.0074
512.3014	-0.0112
512.4993	-0.0122
512.6972	-0.0049
512.8951	-0.0151
513.093	-0.0101
513.2908	-0.0043
513.4887	0
513.6865	-0.0067
513.8844	-0.0004
514.0822	-0.0065
514.2799	-0.0093
514.4777	-0.0039
514.6755	-0.0035
514.8732	-0.0106
515.0709	-0.0043
515.2687	-0.0076
515.4664	-0.0055
515.664	-0.0105
515.8617	-0.0118
516.0594	-0.0075
516.257	-0.0023
516.4546	-0.0136
516.6522	-0.0005
516.8498	-0.0089
517.0474	0.0002
517.2449	-0.0083
517.4425	-0.0001
517.64	-0.0061
517.8375	-0.0029
518.035	-0.0052
518.2325	-0.0094
518.43	-0.0011
518.6274	-0.0116
518.8249	-0.0077
519.0223	-0.0115
519.2197	-0.0057
519.4171	-0.004
519.6145	-0.0092
519.8118	-0.0037
520.0092	-0.0029
520.2065	-0.0076
520.4038	-0.0073
520.6011	-0.0104
520.7984	-0.0089
520.9956	-0.0074
521.1929	-0.0099
521.3901	-0.0074
521.5874	-0.0078
521.7846	-0.0037
521.9818	-0.0107
522.1789	-0.0033
522.3761	-0.0064
522.5732	-0.006
522.7704	-0.0052
522.9675	-0.0018
523.1646	-0.0061
523.3617	-0.0026
523.5587	-0.0047
523.7558	0.0044
523.9528	-0.0056
524.1498	-0.0063
524.3468	-0.0002
524.5438	-0.0065
524.7408	-0.0102
524.9378	-0.0167
525.1347	-0.005
525.3316	0.0003
525.5285	-0.0033
525.7254	-0.0106
525.9223	-0.0062
526.1192	-0.0076
526.316	-0.0071
526.5129	-0.0044
526.7097	-0.0116
526.9065	-0.0024
527.1033	-0.0053
527.3	0.0029
527.4968	-0.0098
527.6935	-0.0055
527.8903	0.0031
528.087	-0.0137
528.2837	-0.0046
528.4804	-0.0075
528.677	-0.0031
528.8737	-0.0084
529.0703	-0.0031
529.2669	0.0027
529.4635	-0.0062
529.6601	-0.0071
529.8567	-0.0062
530.0532	-0.0014
530.2498	-0.0035
530.4463	-0.0042
530.6428	0.0059
530.8393	0.0003
531.0358	-0.0089
531.2322	-0.0064
531.4287	-0.0078
531.6251	-0.0076
531.8215	0.0021
532.0179	-0.002
532.2143	-0.0002
532.4107	-0.0015
532.607	-0.0088
532.8034	-0.0067
532.9997	-0.0001
533.196	-0.0091
533.3923	-0.0006
533.5886	0.0061
533.7848	-0.0021
533.9811	-0.0045
534.1773	-0.0065
534.3735	0.0051
534.5697	-0.0024
534.7659	-0.0052
534.9621	-0.0014
535.1582	-0.0021
535.3544	-0.0099
535.5505	-0.0018
535.7466	-0.0036
535.9427	-0.0055
536.1387	0.0012
536.3348	0.0028
536.5308	-0.0087
536.7269	0
536.9229	-0.0005
537.1189	-0.0059
537.3148	0.0002
537.5108	-0.0024
537.7068	-0.0048
537.9027	-0.0021
538.0986	-0.0029
538.2945	-0.0091
538.4904	-0.0022
538.6863	-0.0085
538.8821	-0.0051
539.078	-0.0125
539.2738	-0.0069
539.4696	-0.0116
539.6654	-0.0004
539.8611	-0.0038
540.0569	-0.0054
540.2526	-0.004
540.4484	0.0048
540.6441	-0.001
540.8398	-0.0069
541.0355	0.0004
541.2311	0.0007
541.4268	0.0038
541.6224	-0.0014
541.818	-0.0027
542.0136	-0.0051
542.2092	-0.0011
542.4048	-0.0074
542.6003	-0.0007
542.7959	-0.0024
542.9914	-0.0048
543.1869	-0.0049
543.3824	-0.0092
543.5779	-0.0091
543.7734	-0.0088
543.9688	-0.0067
544.1642	-0.0089
544.3596	-0.0041
544.555	-0.0044
544.7504	-0.005
544.9458	0.0023
545.1411	0.0075
545.3365	-0.0074
545.5318	-0.0001
545.7271	0.001
545.9224	-0.0016
546.1177	-0.0093
546.3129	0.0032
546.5081	-0.0069
546.7034	-0.0076
546.8986	-0.0056
547.0938	0.001
547.289	-0.0005
547.4841	-0.0108
547.6793	-0.0085
547.8744	-0.0018
548.0695	-0.0053
548.2646	-0.0089
548.4597	-0.0007
548.6548	0.0019
548.8498	-0.0067
549.0448	-0.0004
549.2399	-0.0032
549.4349	0.0005
549.6298	-0.0068
549.8248	-0.0016
550.0198	-0.0065
550.2147	-0.0001
550.4096	-0.0038
550.6045	-0.0077
550.7994	-0.0014
550.9943	0.003
551.1892	-0.0087
551.384	-0.0101
551.5788	-0.0024
551.7737	0.0028
551.9685	-0.0094
552.1632	-0.0013
552.358	-0.01
552.5528	-0.0005
552.7475	-0.0095
552.9422	-0.0018
553.1369	-0.0047
553.3316	-0.0061
553.5263	-0.0043
553.7209	-0.0004
553.9156	-0.0054
554.1102	-0.0078
554.3048	-0.0085
554.4994	-0.0024
554.694	0.0027
554.8885	-0.0066
555.0831	0.0004
555.2776	0.0009
555.4721	-0.0043
555.6666	-0.0072
555.8611	-0
556.0555	-0.0087
556.25	-0.0022
556.4444	-0.0123
556.6388	-0.0064
556.8332	-0.0045
557.0276	-0.002
557.222	-0.0057
557.4163	0.0019
557.6107	-0.0022
557.805	-0.0028
557.9993	0.0025
558.1936	-0.0016
558.3879	0.0005
558.5821	-0.0045
558.7764	-0.0095
558.9706	-0.0018
559.1648	-0.0079
559.359	-0.0131
559.5532	-0.0022
559.7473	-0.0062
559.9415	-0.0024
560.1356	-0.0037
560.3297	-0.0089
560.5238	-0.0074
560.7179	0.0017
560.9119	0.006
561.106	-0.0011
561.3	-0.0003
561.494	-0.007
561.688	-0.0006
561.882	-0.0043
562.076	-0.0102
562.2699	-0.0058
562.4639	-0.007
562.6578	-0.0064
562.8517	-0.0013
563.0456	-0.0026
563.2395	-0.0066
563.4333	-0.0001
563.6272	-0.0037
563.821	-0.0085
564.0148	0.0019
564.2086	-0.0024
564.4024	-0.0028
564.5961	-0.0069
564.7899	-0.0039
564.9836	0.0011
565.1773	-0.0018
565.371	-0.0012
565.5647	-0.0057
565.7584	0.0013
565.952	0.0017
566.1456	0.0012
566.3393	0.0015
566.5329	-0.0028
566.7264	0.0016
566.92	-0.0006
567.1136	-0.0007
567.3071	0.0016
567.5006	0.0044
567.6941	-0.0017
567.8876	-0.0042
568.0811	-0.0032
568.2745	-0.0078
568.468	-0.006
568.6614	-0.0045
568.8548	-0.0053
569.0482	-0.0043
569.2416	-0.0033
569.4349	-0.0029
569.6283	-0.0113
569.8216	-0.0089
570.0149	-0.0067
570.2082	-0.004
570.4015	-0.0017
570.5947	-0.0029
570.788	-0.0064
570.9812	-0.0056
571.1744	-0.0072
571.3676	-0.002
571.5608	-0.0025
571.754	-0.0057
571.9471	-0.0058
572.1402	-0.004
572.3333	-0.0006
572.5264	0.0001
572.7195	-0.0056
572.9126	0.0024
573.1057	-0.0059
573.2987	0.0013
573.4917	-0.0048
573.6847	-0.0007
573.8777	-0.0039
574.0707	0.0019
574.2636	-0.0029
574.4566	-0.001
574.6495	-0.0023
574.8424	-0.0029
575.0353	-0.0011
575.2281	-0.0003
575.421	-0.0084
575.6138	-0.0069
575.8067	-0.0018
575.9995	0.0024
576.1923	-0.0029
576.385	-0.0054
576.5778	-0.0012
576.7706	-0.001
576.9633	-0.0017
577.156	0.0012
577.3487	0.0036
577.5414	-0.0024
577.734	0.0037
577.9267	0.0016
578.1193	-0.0046
578.3119	-0.0035
578.5045	-0.0049
578.6971	0.0057
578.8897	-0.0047
579.0822	-0.0022
579.2747	0.0015
579.4673	-0.0026
579.6598	-0.0034
579.8522	-0.0012
580.0447	-0.004
580.2372	0.0008
580.4296	0.0005
580.622	-0.0001
580.8144	-0.0071
581.0068	-0.0048
581.1992	0.0008
581.3915	-0.0021
581.5839	-0.0028
581.7762	-0.0029
581.9685	-0.0008
582.1608	-0.0034
582.353	0.0022
582.5453	-0.0038
582.7375	-0.0009
582.9298	-0.0027
583.122	0.0028
583.3142	-0.0002
583.5063	-0.0023
583.6985	-0.0044
583.8906	-0.0039
584.0827	-0.0045
584.2749	-0.0066
584.4669	-0.0039
584.659	-0.0029
584.8511	-0.0044
585.0431	-0.0058
585.2352	-0.0051
585.4272	-0.0069
585.6192	-0.0011
585.8111	-0.0031
586.0031	-0.0017
586.195	-0.005
586.387	-0.0004
586.5789	-0.0006
586.7708	-0.0075
586.9627	-0.0035
587.1545	-0.0031
587.3464	-0.01
587.5382	-0.0007
587.73	-0.0034
587.9218	-0.0014
588.1136	0.0007
588.3053	-0.0075
588.4971	-0.0047
588.6888	-0.0035
588.8805	-0.0018
589.0722	0.0032
589.2639	-0.0008
589.4556	-0.0013
589.6472	-0.0033
589.8389	-0.0018
590.0305	-0.0075
590.2221	0.0004
590.4137	-0.006
590.6052	-0.0012
590.7968	-0.0113
590.9883	-0.0022
591.1798	-0.0099
591.3713	-0.0013
591.5628	-0.0051
591.7543	-0.0015
591.9458	-0.0035
592.1372	-0.0021
592.3286	-0.0051
592.52	-0.0024
592.7114	0.0009
592.9028	-0.0037
593.0941	0.0002
593.2855	0.0011
593.4768	0.0016
593.6681	-0.0017
593.8594	-0.0027
594.0506	0.0013
594.2419	0.004
594.4331	-0.0022
594.6244	-0.0033
594.8156	-0.0034
595.0067	-0.0035
595.1979	-0.0041
595.3891	-0.0039
595.5802	-0.0058
595.7713	-0.0022
595.9624	0.002
596.1535	0.0061
596.3446	-0.0052
596.5357	0.0014
596.7267	0.002
596.9177	0.004
597.1087	-0.0012
597.2997	0.0046
597.4907	-0.0024
597.6817	-0.0053
597.8726	-0.0018
598.0635	-0.0058
598.2544	-0.0051
598.4453	-0.0078
598.6362	-0.0053
598.827	-0.0033
599.0179	-0
599.2087	-0.0079
599.3995	-0.0059
599.5903	0.0022
599.7811	-0.0055
599.9718	-0.0014
600.1626	0.0002
600.3533	-0.003
600.544	-0.0045
600.7347	0.0016
600.9254	0.002
601.116	-0.0039
601.3067	-0.0044
601.4973	-0.0047
601.6879	-0.0018
601.8785	-0.0052
602.0691	-0.0044
602.2596	-0.0019
602.4502	-0.0035
602.6407	-0.0016
602.8312	-0.0013
603.0217	0.0004
603.2122	-0.0033
603.4027	0.0009
603.5931	-0.0058
603.7835	-0.0033
603.9739	-0.0011
604.1643	-0.0046
604.3547	-0.0016
604.5451	-0.0027
604.7354	0.0018
604.9257	-0.0035
605.116	-0.0033
605.3063	-0.0016
605.4966	-0.004
605.6869	-0.0028
605.8771	-0.0012
606.0673	0.0002
606.2575	0.0018
606.4477	-0.0057
606.6379	-0.0091
606.8281	-0.0054
607.0182	-0.0075
607.2083	-0.0011
607.3985	-0.0086
607.5885	0.0018
607.7786	-0.0046
607.9687	0.0011
608.1587	-0.0044
608.3488	-0.0033
608.5388	-0.0004
608.7288	-0.0042
608.9187	-0.0009
609.1087	-0.0035
609.2986	-0.0051
609.4886	-0.0018
609.6785	-0.0005
609.8684	-0.0061
610.0582	-0.0012
610.2481	-0.0005
610.4379	-0.0004
610.6278	0.0008
610.8176	0.0005
611.0074	-0.0009
611.1971	0.0016
611.3869	-0.0043
611.5766	0.0046
611.7664	0.0024
611.9561	-0.0004
612.1458	0.0022
612.3354	-0.0068
612.5251	-0.012
612.7147	-0.0046
612.9044	-0.0057
613.094	-0.0023
613.2836	0.0034
613.4731	-0.0083
613.6627	-0.0052
613.8522	-0.0007
614.0417	-0.0054
614.2313	-0.004
614.4207	-0.0001
614.6102	0.0058
614.7997	-0.0071
614.9891	-0.0058
615.1785	-0.0054
615.3679	0.0053
615.5573	0.0019
615.7467	-0.0027
615.9361	-0.0022
616.1254	-0.0034
616.3147	-0.0018
616.504	0.0005
616.6933	0.0016
616.8826	-0.0053
617.0718	-0.0051
617.2611	0.0023
617.4503	0
617.6395	-0.0075
617.8287	0.0002
618.0179	0.0024
618.207	-0.0016
618.3961	0.0006
618.5853	-0.0067
618.7744	-0.0042
618.9634	0.0008
619.1525	-0.0061
619.3416	-0.0076
619.5306	-0.0001
619.7196	-0.0019
619.9086	-0.0027
620.0976	-0.0017
620.2866	0.0022
620.4755	-0.0039
620.6645	-0.0034
620.8534	0.0005
621.0423	-0.0075
621.2312	-0.0026
621.42	0.0011
621.6089	-0.0041
621.7977	-0.0049
621.9865	-0.0002
622.1753	0.0006
622.3641	-0.0008
622.5529	-0.0022
622.7416	-0.0027
622.9303	0.0006
623.1191	-0.0043
623.3078	-0.0008
623.4964	-0.001
623.6851	0.0049
623.8737	0.0014
624.0624	0.0038
624.251	0.0041
624.4396	0.0017
624.6282	-0.0009
624.8167	-0.0006
625.0053	-0.001
625.1938	0.0037
625.3823	-0.0024
625.5708	-0.004
625.7593	-0.0033
625.9477	-0.008
626.1362	-0.0014
626.3246	-0.0036
626.513	-0.0062
626.7014	-0.0016
626.8898	-0.0003
627.0781	-0.0049
627.2665	-0.001
627.4548	-0.0127
627.6431	-0.0062
627.8314	-0.0038
628.0197	-0.0051
628.2079	-0.0036
628.3962	0.0042
628.5844	0.002
628.7726	0.002
628.9608	-0.0012
629.1489	0.0037
629.3371	0.0016
629.5252	0.0019
629.7134	0.0011
629.9015	-0.0011
630.0895	0.0016
630.2776	-0.0024
630.4657	-0.0006
630.6537	-0
630.8417	-0.0014
631.0297	-0
631.2177	-0.0001
631.4057	0.0067
631.5936	0.0003
631.7815	-0.0037
631.9695	-0.0023
632.1574	-0.0054
632.3452	-0.0006
632.5331	-0.0006
632.7209	-0.0083
632.9088	-0.0054
633.0966	-0.0035
633.2844	-0.0024
633.4722	0.0025
633.6599	0.0006
633.8477	-0.001
634.0354	-0.0053
634.2231	-0.0062
634.4108	-0.0013
634.5985	-0.0001
634.7861	-0.0047
634.9738	-0.0035
635.1614	-0.0069
635.349	0.0002
635.5366	-0.0041
635.7242	0.0016
635.9117	0.003
636.0993	-0.0018
636.2868	-0.0023
636.4743	0.0037
636.6618	-0.0102
636.8492	-0.0008
637.0367	0.0006
637.2241	-0.0012
637.4115	-0.0054
637.5989	0.0045
637.7863	-0.0004
637.9737	-0.0019
638.161	-0.0018
638.3484	-0.0031
638.5357	-0.0036
638.723	-0.0022
638.9103	0.0058
639.0975	0.0031
639.2848	-0.0016
639.472	0.0023
639.6592	0.0047
639.8464	-0.0035
640.0336	-0.0076
640.2208	0.0015
640.4079	-0.003
640.595	0.0065
640.7821	0.0011
640.9692	0.0051
641.1563	0.0012
641.3434	0.0011
641.5304	0.0016
641.7174	0.0006
641.9044	0.0004
642.0914	0.0019
642.2784	0.0038
642.4653	0.0051
642.6523	-0.003
642.8392	0.0085
643.0261	0.0106
643.213	0.0006
643.3999	-0.0029
643.5867	-0.0041
643.7735	0.0017
643.9604	-0.0002
644.1472	0.0004
644.3339	-0.0026
644.5207	-0.003
644.7075	-0.0034
644.8942	-0.0053
645.0809	0.0005
645.2676	-0.003
645.4543	0.0054
645.6409	-0.001
645.8276	-0.0033
646.0142	0.0012
646.2008	-0.001
646.3874	-0.0017
646.574	-0.0023
646.7605	0.0018
646.9471	-0.0071
647.1336	-0.0022
647.3201	-0.0042
647.5066	0.0025
647.6931	-0.0011
647.8795	-0.0026
648.0659	-0.0005
648.2524	-0.0047
648.4388	-0.0035
648.6252	-0.0039
648.8115	-0.0096
648.9979	-0.003
649.1842	-0.0103
649.3705	-0.0023
649.5568	-0.0032
649.7431	-0.0016
649.9294	-0.0033
650.1156	-0.0056
650.3018	-0.01
650.488	-0.0036
650.6742	-0.0068
650.8604	0.0017
651.0466	0.0004
651.2327	0.0015
651.4188	-0
651.6049	0.0035
651.791	-0.0032
651.9771	0.0012
652.1632	0.0048
652.3492	0.005
652.5352	-0.001
652.7212	-0.0017
652.9072	0.0054
653.0932	-0.0016
653.2791	-0.0022
653.465	-0.0026
653.651	0.0032
653.8369	0.0019
654.0227	0.0029
654.2086	-0.0016
654.3944	-0.0067
654.5803	-0.0058
654.7661	-0.0028
654.9519	-0.0034
655.1377	-0.0016
655.3234	0.0001
655.5092	0.0001
655.6949	0.0001
655.8806	0.0001
656.0663	0.0001
656.2519	0.0001
656.4376	-0.004
656.6232	-0.0028
656.8088	-0.0071
656.9945	-0.0015
657.18	-0.0013
657.3656	-0.0016
657.5511	-0.0027
657.7367	-0.0025
657.9222	0.0009
658.1077	-0.0029
658.2932	-0.0015
658.4786	-0.0008
658.6641	-0.0011
658.8495	-0.0063
659.0349	-0.0025
659.2203	-0.009
659.4057	-0.0024
659.591	0.0016
659.7764	-0.0041
659.9617	-0.0061
660.147	-0.0055
660.3323	-0.0017
660.5176	-0.0069
660.7028	-0.0062
660.888	-0.0039
661.0733	-0.0044
661.2585	-0.0085
661.4436	0.0012
661.6288	-0.0086
661.8139	0.0055
661.9991	0.0018
662.1842	-0.0003
662.3693	-0.0026
662.5544	-0.001
662.7394	-0.0043
662.9245	0.002
663.1095	0.0008
663.2945	0.0001
663.4795	-0.0017
663.6644	-0.0072
663.8494	-0.0056
664.0343	0.0002
664.2193	-0.0025
664.4042	-0.008
664.589	-0.0015
664.7739	-0.0032
664.9587	0.0054
665.1436	0.0021
665.3284	-0.0015
665.5132	-0.0023
665.698	-0.0011
665.8827	0.003
666.0675	-0.0037
666.2522	-0.0063
666.4369	-0.0057
666.6216	-0.0107
666.8063	-0.0071
666.9909	-0.0111
667.1756	-0.0057
667.3602	-0.0099
667.5448	-0.0076
667.7294	0.0004
667.9139	-0.0038
668.0985	-0.0141
668.283	-0.0095
668.4675	-0.015
668.652	-0.0124
668.8365	-0.0072
669.0209	-0.0069
669.2054	-0.0031
669.3898	-0.0038
669.5742	-0.0073
669.7586	-0.001
669.943	-0.0034
670.1273	-0.0072
670.3117	-0.0027
670.496	0.0001
670.6803	-0.0043
670.8646	-0.0063
671.0488	-0.0055
671.2331	-0.0068
671.4173	0.0001
671.6015	0.0006
671.7857	-0.0072
671.9699	-0.0038
672.1541	-0.0032
672.3382	-0.008
672.5223	-0.0042
672.7064	-0.005
672.8905	-0.0112
673.0746	-0.0111
673.2587	-0.0138
673.4427	-0.0126
673.6267	-0.011
673.8107	-0.01
673.9947	-0.0118
674.1787	-0.0138
674.3626	-0.0097
674.5465	-0.0063
674.7304	-0.0019
674.9143	0.001
675.0982	-0.0002
675.2821	-0.0029
675.4659	-0.006
675.6497	0.0004
675.8335	-0.0048
676.0173	-0.0081
676.2011	-0.0085
676.3849	-0.0042
676.5686	-0.0011
676.7523	0.0007
676.936	-0.0023
677.1197	-0.0009
677.3034	-0.0063
677.487	-0.0043
677.6706	-0.0035
677.8542	-0.0028
678.0378	-0.0018
678.2214	-0.0075
678.405	-0.0037
678.5885	-0.0095
678.772	-0.005
678.9555	-0.0017
679.139	-0.0052
679.3225	-0.0063
679.5059	-0.0055
679.6894	-0.0025
679.8728	-0.0043
680.0562	0.0004
680.2395	-0.0034
680.4229	0.0017
680.6062	0.0021
680.7896	0.0012
680.9729	-0.0052
681.1562	0.0011
681.3394	0.0003
681.5227	0.0008
681.7059	-0.006
681.8891	-0.0027
682.0723	-0.0035
682.2555	-0.0057
682.4387	-0.0064
682.6218	-0.0061
682.805	-0.0027
682.9881	-0.007
683.1712	0.0046
683.3542	0.0005
683.5373	-0.0062
683.7203	-0.0054
683.9034	-0.0019
684.0864	-0.0043
684.2694	-0.0016
684.4523	-0.0015
684.6353	-0.0021
684.8182	-0.0014
685.0011	-0.0007
685.184	-0.0013
685.3669	-0.0052
685.5498	-0.0046
685.7326	-0.0001
685.9154	-0.0005
686.0982	0.0001
686.281	-0.0055
686.4638	-0.0057
686.6465	-0.0036
686.8293	-0.0059
687.012	-0.0001
687.1947	-0.0066
687.3774	-0.0042
687.56	-0.008
687.7427	-0.0014
687.9253	0.0001
688.1079	0.0053
688.2905	-0.0006
688.4731	-0.0039
688.6556	-0.0033
688.8382	-0.0025
689.0207	0.0039
689.2032	-0.0013
689.3857	0.0034
689.5681	-0.0023
689.7506	0.0009
689.933	0.0002
690.1154	0.0007
690.2978	-0.0014
690.4802	0.0024
690.6626	0.0053
690.8449	0.0072
691.0272	0.0052
691.2095	0.0042
691.3918	-0.0016
691.5741	-0.0017
691.7563	0.0008
691.9386	-0.0012
692.1208	-0.0073
692.303	-0.0057
692.4852	0.0027
692.6673	-0.0004
692.8495	-0.0092
693.0316	-0.0072
693.2137	-0.0062
693.3958	-0.0058
693.5778	-0.0016
693.7599	-0.005
693.9419	-0.0113
694.1239	-0.0049
694.3059	-0.012
694.4879	0.0009
694.6699	-0.0083
694.8518	-0.0079
695.0337	0.0002
695.2157	-0.0028
695.3975	-0.0062
695.5794	-0.0051
695.7613	-0.011
695.9431	-0.0081
696.1249	-0.0063
696.3067	0.0011
696.4885	-0.0015
696.6703	-0.0024
696.852	-0.0039
697.0337	0.0015
697.2154	-0.0019
697.3971	-0.0099
697.5788	-0.003
697.7605	-0.0047
697.9421	-0.0069
698.1237	-0.0017
698.3053	0.0024
698.4869	-0.0019
698.6685	-0.0078
698.85	-0.0078
699.0315	0
699.213	0.0016
699.3945	0.0024
699.576	0.0072
699.7575	0.0002
699.9389	0.0013
700.1203	-0.0018
700.3017	-0.0026
700.4831	-0.0047
700.6645	-0.003
700.8458	-0.0031
701.0271	0.001
701.2084	-0.0059
701.3897	-0.0018
701.571	0.0008
701.7523	0.0018
701.9335	0.0055
702.1147	0.0091
702.2959	-0.0049
702.4771	-0.003
702.6583	-0.0006
702.8394	-0.0013
703.0205	0.0033
703.2016	-0.0031
703.3827	0.0048
703.5638	-0.0074
703.7449	-0.0056
703.9259	-0.0023
704.1069	0.0039
704.2879	-0.0007
704.4689	-0.0062
704.6499	-0.0063
704.8308	-0.0012
705.0117	0.0007
705.1927	-0.0006
705.3735	0.0038
705.5544	-0.0018
705.7353	0.0058
705.9161	0.006
706.0969	0.0049
706.2777	0.0004
706.4585	-0.0049
706.6393	-0.0047
706.82	-0.0022
707.0007	-0.0015
707.1815	0.001
707.3621	-0.0057
707.5428	-0.003
707.7235	-0.0008
707.9041	-0.0008
708.0847	0.0033
708.2653	-0.0014
708.4459	0.0013
708.6265	-0.0022
708.807	0
708.9875	0.0013
709.168	-0.004
709.3485	0.0008
709.529	-0.0067
709.7095	-0.0029
709.8899	-0.0118
710.0703	-0.0031
710.2507	-0.0026
710.4311	0.0015
710.6115	0.0014
710.7918	-0.0004
710.9721	0.0031
711.1524	-0.002
711.3327	0.0015
711.513	-0.0005
711.6932	-0.0058
711.8735	0.0022
712.0537	-0.0055
712.2339	0.002
712.4141	0.0018
712.5942	0.0034
712.7744	0.0054
712.9545	0.0013
713.1346	0.0014
713.3147	0.0054
713.4947	0.006
713.6748	-0.0003
713.8548	-0.0083
714.0348	-0.0043
714.2148	-0.0058
714.3948	-0.0051
714.5748	-0.008
714.7547	-0.0119
714.9346	0.0017
715.1145	-0.0044
715.2944	-0.0011
715.4743	-0.0039
715.6541	-0.0027
715.834	0.0011
716.0138	0.0004
716.1936	-0.0023
716.3733	-0.0052
716.5531	-0.008
716.7328	-0.0018
716.9126	-0.001
717.0923	0.001
717.2719	-0.0059
717.4516	-0.0027
717.6312	0.0061
717.8109	-0.0029
717.9905	-0.0043
718.1701	-0.0003
718.3496	0.0028
718.5292	-0.0045
718.7087	-0.0037
718.8882	-0.0044
719.0677	-0.005
719.2472	-0.0005
719.4267	-0.0084
719.6061	-0.0057
719.7856	-0.0022
719.965	-0.0133
720.1443	-0.0033
720.3237	-0.0056
720.5031	-0.0065
720.6824	-0.007
720.8617	-0.002
721.041	0.0036
721.2203	-0.0105
721.3995	-0.0022
721.5788	-0.0078
721.758	0.0012
721.9372	-0.0039
722.1164	-0.0024
722.2956	-0.0086
722.4747	-0.008
722.6538	-0.0067
722.8329	-0.0018
723.012	-0.0019
723.1911	-0.0023
723.3702	0.0038
723.5492	-0.0005
723.7282	-0.0032
723.9072	-0.0054
724.0862	-0.0001
724.2652	0.0052
724.4441	-0.009
724.623	-0.0006
724.8019	0.0005
724.9808	-0.0012
725.1597	0.0003
725.3385	0.0061
725.5174	0.001
725.6962	-0.0087
725.875	0.0051
726.0538	0.0052
726.2325	-0.0029
726.4112	-0.0009
726.59	0.0036
726.7687	-0.0019
726.9474	-0.0041
727.126	-0.0009
727.3047	0.0013
727.4833	-0.0006
727.6619	-0.0076
727.8405	-0.0039
728.0191	0.0021
728.1976	-0.0079
728.3762	-0.0018
728.5547	-0.0066
728.7332	-0.0066
728.9116	-0.0084
729.0901	-0.0082
729.2686	-0.0086
729.447	-0.0043
729.6254	-0.0109
729.8038	-0.0012
729.9821	0.0025
730.1605	-0.0023
730.3388	-0.0023
730.5171	-0.0014
730.6954	-0.0031
730.8737	-0.0035
731.0519	0.0025
731.2302	0.0005
731.4084	0.0102
731.5866	0.0029
731.7648	0.0002
731.9429	0.0032
732.1211	0.0052
732.2992	0.0065
732.4773	-0.002
732.6554	-0.0008
732.8335	-0.0088
733.0115	-0.007
733.1896	-0.0138
733.3676	-0.0043
733.5456	-0.0041
733.7235	0.0003
733.9015	0.0035
734.0794	0.0045
734.2574	-0.0055
734.4353	-0.001
734.6131	0
734.791	-0.0055
734.9689	-0.0037
735.1467	-0.0048
735.3245	-0.0053
735.5023	-0.008
735.68	-0.0005
735.8578	0.0027
736.0355	0.0115
736.2132	0.0015
736.3909	0.0009
736.5686	-0.0031
736.7463	0.0005
736.9239	-0.0041
737.1015	-0.004
737.2791	-0.0012
737.4567	-0.0107
737.6343	-0.0033
737.8118	-0.0058
737.9894	0.0028
738.1669	-0.0043
738.3444	0.0024
738.5218	0.0022
738.6993	0.0044
738.8767	0.0007
739.0541	-0.0091
739.2315	0.0002
739.4089	-0.0005
739.5863	-0.0071
739.7636	-0.0027
739.9409	-0.004
740.1182	0.0022
740.2955	-0.0012
740.4728	-0.0064
740.65	-0.0014
740.8272	-0
741.0044	-0.002
741.1816	0.0046
741.3588	0.0064
741.5359	0.0031
741.7131	-0.0009
741.8902	0.0043
742.0673	0.0048
742.2444	0
742.4214	-0.0068
742.5985	-0.0054
742.7755	-0.0014
742.9525	-0.0001
743.1295	-0.0064
743.3064	-0.0047
743.4834	0.0013
743.6603	-0.0019
743.8372	0.0028
744.0141	-0.0005
744.191	-0.0032
744.3678	-0.0066
744.5446	0.004
744.7215	-0.0034
744.8982	-0.0039
745.075	-0.001
745.2518	-0.0016
745.4285	-0.0044
745.6052	0.0003
745.7819	-0.0012
745.9586	0.0005
746.1353	0.0037
746.3119	0.0036
746.4885	-0.0039
746.6651	-0.003
746.8417	-0.0006
747.0183	-0.0074
747.1948	-0.0089
747.3714	-0.0083
747.5479	-0.0016
747.7244	0.0015
747.9008	-0.0021
748.0773	0.004
748.2537	-0.0002
748.4301	0.0019
748.6065	-0.0048
748.7829	0.002
748.9593	0.0049
749.1356	-0.0061
749.3119	-0.0017
749.4882	0.0066
749.6645	-0.0055
749.8408	0.0008
750.017	-0.0037
750.1933	-0.0014
750.3695	-0.0073
750.5457	-0.0022
750.7218	-0.0083
750.898	-0.0057
751.0741	-0.0113
751.2502	-0.0029
751.4263	-0.0042
751.6024	0.0012
751.7784	-0.0008
751.9545	-0.0042
752.1305	0.0019
752.3065	-0.0049
752.4825	-0.0019
752.6584	-0.0067
752.8344	-0.002
753.0103	-0.0009
753.1862	0.0065
753.3621	-0.0006
753.5379	-0.004
753.7138	0.0021
753.8896	-0.0103
754.0654	-0.005
754.2412	-0.011
754.417	-0.0084
754.5927	-0.0017
754.7685	-0.0147
754.9442	-0.007
755.1199	-0.0126
755.2956	-0.0033
755.4712	-0.006
755.6469	-0.0081
755.8225	-0.0115
755.9981	-0.006
756.1736	-0.0024
756.3492	-0.0071
756.5248	0.0041
756.7003	-0.0046
756.8758	-0.0118
757.0513	-0.0091
757.2267	-0.0119
757.4022	-0.0113
757.5776	-0.0104
757.753	-0.0091
757.9284	-0.0106
758.1038	-0.0046
758.2791	-0.0116
758.4545	-0.0083
758.6298	-0.0094
758.8051	-0.0119
758.9803	-0.0109
759.1556	-0.0109
759.3308	-0.0052
759.506	-0.0104
759.6812	-0.0031
759.8564	-0.0092
760.0316	-0.0139
760.2067	-0.0086
760.3819	-0.0032
760.557	-0.0067
760.732	-0.008
760.9071	-0.015
761.0821	-0.0152
761.2572	-0.0071
761.4322	-0.0096
761.6072	-0.005
761.7821	-0.0123
761.9571	-0.0069
762.132	-0.0079
762.3069	-0.0017
762.4818	-0.0056
762.6567	-0.0098
762.8316	-0.0031
763.0064	-0.001
763.1812	-0.0026
763.356	-0.003
763.5308	-0.0026
763.7055	0.0071
763.8803	-0.0031
764.055	-0.0018
764.2297	0.0011
764.4044	0.0009
764.579	-0.0004
764.7537	-0.0032
764.9283	-0.01
765.1029	0.0062
765.2775	0.0077
765.4521	0.0077
765.6266	0.0016
765.8011	0.0082
765.9756	-0.003
766.1501	0.0115
766.3246	-0.0004
766.4991	-0.0038
766.6735	-0.0068
766.8479	-0.0052
767.0223	0.0014
767.1967	-0.0018
767.371	-0.0065
767.5454	-0.0058
767.7197	-0.0009
767.894	0.0033
768.0683	0.0027
768.2425	0.0008
768.4168	-0.0083
768.591	0.0029
768.7652	-0.0042
768.9394	0.0047
769.1135	0.0061
769.2877	-0.0054
769.4618	0.0122
769.6359	0.0014
769.81	0.0029
769.984	-0.0063
770.1581	0.0001
770.3321	-0.0015
770.5061	-0.0023
770.6801	0.0064
770.8541	-0.0052
771.028	0.009
771.202	0.0004
771.3759	0.0022
771.5498	0.0048
771.7236	0.0047
771.8975	0.004
772.0713	0.0105
772.2451	0.002
772.4189	0.006
772.5927	-0.0014
772.7665	-0.0052
772.9402	0.0011
773.1139	0.0006
773.2876	-0.007
773.4613	0.0008
773.635	0.0033
773.8086	0.0084
773.9822	0.0057
774.1558	-0.0049
774.3294	0.0091
774.503	-0.0018
774.6765	-0.0001
774.8501	0.0073
775.0236	-0.0066
775.1971	-0.0036
775.3705	0.0029
775.544	-0
775.7174	0.0037
775.8908	-0.0081
776.0642	0.0007
776.2376	-0.0082
776.4109	-0.005
776.5843	0.007
776.7576	0.0037
776.9309	0.0009
777.1041	-0.0012
777.2774	-0.0019
777.4506	-0.0002
777.6238	-0.0034
777.797	-0.0024
777.9702	-0.0013
778.1434	-0.0038
778.3165	0.0031
778.4896	-0.0117
778.6627	-0.0032
778.8358	-0.0054
779.0089	-0.0019
779.1819	-0.0026
779.3549	-0.0029
779.5279	-0.0005
779.7009	-0.0045
779.8739	-0.0025
780.0468	-0.0047
780.2197	-0.0042
780.3926	-0.0045
780.5655	-0.0089
780.7384	-0.0017
780.9112	-0.0041
781.0841	0.004
781.2569	0.0008
781.4297	-0.001
781.6024	-0.0024
781.7752	-0.0069
781.9479	-0.0035
782.1206	0.0063
782.2933	-0.0129
782.466	-0.0053
782.6386	-0.002
782.8113	-0.0175
782.9839	-0.0091
783.1565	-0.0092
783.329	-0.0107
783.5016	-0.0021
783.6741	-0.0094
783.8466	-0.0063
784.0191	-0.0074
784.1916	0.0003
784.3641	-0.0047
784.5365	0.0043
784.7089	0.0033
784.8813	0.0117
785.0537	0.0109
785.2261	0.0018
785.3984	0.0012
785.5707	0.003
785.743	0.0038
785.9153	0.0018
786.0876	0.0019
786.2598	0.0072
786.432	0.0081
786.6042	-0.0015
786.7764	0.0068
786.9486	0.0027
787.1207	-0.0075
787.2928	-0.0003
787.4649	-0.0057
787.637	-0.0027
787.8091	-0.0015
787.9811	0.0106
788.1532	-0.001
788.3252	-0.0023
788.4972	0.0004
788.6691	0.0037
788.8411	0.0041
789.013	-0.0012
789.1849	0.0071
789.3568	-0.0128
789.5287	-0.0128
789.7005	0.0023
789.8723	-0.0088
790.0442	-0.0077
790.2159	-0.0007
790.3877	-0.0117
790.5595	0.0048
790.7312	0.0046
790.9029	-0.0054
791.0746	-0.0065
791.2463	-0.0007
791.4179	-0.0121
791.5896	-0.0031
791.7612	0.0001
791.9328	0.0059
792.1044	-0.0085
792.2759	0.0051
792.4474	-0.0001
792.619	-0.0085
792.7905	-0.0072
792.9619	-0.002
793.1334	-0.0019
793.3048	-0.0149
793.4762	-0.0072
793.6476	-0.0086
793.819	-0.0119
793.9904	-0.0087
794.1617	-0.0083
794.333	-0.0128
794.5043	-0.0054
794.6756	0.0018
794.8469	-0.0008
795.0181	-0.0053
795.1893	-0.0012
795.3605	-0.0081
795.5317	-0.0022
795.7029	-0.0006
795.874	-0.007
796.0452	-0.0084
796.2163	-0.0028
796.3873	-0.0069
796.5584	-0.0096
796.7294	-0.0105
796.9005	-0.0132
797.0715	-0.0065
797.2425	-0.0171
797.4134	-0.0106
797.5844	-0.0072
797.7553	-0.0047
797.9262	-0.0044
798.0971	-0.011
798.2679	-0.0109
798.4388	-0.0106
798.6096	-0.0139
798.7804	-0.0212
798.9512	-0.0181
799.122	-0.0072
799.2927	-0.0082
799.4635	-0.0022
799.6342	-0.0134
799.8049	-0.0096
799.9755	-0.0002
800.1462	-0.0231
800.3168	-0.0056
800.4874	-0.0134
800.658	-0.0124
800.8286	-0.0122
800.9991	-0.0112
801.1696	-0.0132
801.3402	-0.0152
801.5106	-0.0158
801.6811	-0.0256
801.8516	-0.0099
802.022	-0.0252
802.1924	-0.0265
802.3628	-0.0148
802.5332	-0.0149
802.7035	-0.0156
802.8739	-0.0074
803.0442	-0.0109
803.2145	-0.0118
803.3847	-0.0159
803.555	-0.018
803.7252	-0.0127
803.8954	-0.0104
804.0656	-0.0074
804.2358	-0.0055
804.4059	-0.013
804.5761	-0.0015
804.7462	-0.004
804.9163	-0.015
805.0864	-0.0149
805.2564	-0.01
805.4264	-0.0107
805.5965	-0.0159
805.7665	-0.0036
805.9364	0.0002
806.1064	-0.0061
806.2763	-0.0077
806.4462	-0.0066
806.6161	-0.0109
806.786	-0.0062
806.9559	-0.0101
807.1257	-0.0184
807.2955	-0.0117
807.4653	-0.002
807.6351	-0.0038
807.8048	-0.0003
807.9746	-0.0089
808.1443	0.0035
808.314	-0.0093
808.4837	0.0038
808.6533	0.009
808.8229	0.0021
808.9926	0.0114
809.1622	-0.0073
809.3317	0.0201
809.5013	-0.008
809.6708	0.0025
809.8403	-0.0046
810.0098	0.0131
810.1793	-0.0054
810.3488	0.0039
810.5182	-0.007
810.6876	0.0057
810.857	-0.0114
811.0264	-0.0069
811.1958	0.0032
811.3651	-0.0029
811.5344	0.0006
811.7037	-0.0097
811.873	-0.0047
812.0422	-0.004
812.2115	-0.0035
812.3807	-0.0106
812.5499	-0.0096
812.7191	-0.0157
812.8882	-0.0046
813.0574	-0.0134
813.2265	-0.0014
813.3956	0.0005
813.5646	-0.0127
813.7337	0.0025
813.9027	0.0111
814.0718	-0.0055
814.2407	0.0015
814.4097	-0.003
814.5787	0.0033
814.7476	-0.0117
814.9165	-0.0028
815.0854	-0.0119
815.2543	0.0088
815.4232	-0.0106
815.592	0.0091
815.7608	-0.015
815.9296	-0.001
816.0984	0.0114
816.2671	-0.0044
816.4359	-0.0001
816.6046	-0.0009
816.7733	-0.0017
816.942	0.0059
817.1106	-0.001
817.2793	-0.01
817.4479	0.0017
817.6165	-0.0044
817.785	0.0004
817.9536	-0.0008
818.1221	-0.0109
818.2906	-0.0073
818.4591	-0.0162
818.6276	0.0087
818.7961	-0.0121
818.9645	-0.0067
819.1329	-0.0041
819.3013	-0.0122
819.4697	-0.0132
819.638	0.0137
819.8064	-0.0034
819.9747	0.0162
820.143	-0.0062
820.3113	-0.0091
820.4795	0.0176
820.6477	-0.0088
820.816	-0.0033
820.9842	0.0008
821.1523	-0.0082
821.3205	-0.0144
821.4886	0.0044
821.6567	-0.0025
821.8248	-0.0114
821.9929	-0.0092
822.1609	-0.0015
822.329	-0.0072
822.497	-0.0079
822.665	-0.0105
822.833	-0.0242
823.0009	-0.0016
823.1688	-0.0196
823.3367	-0.0091
823.5046	-0.0108
823.6725	-0.0111
823.8404	-0.0121
824.0082	-0.0047
824.176	0.0026
824.3438	-0.0028
824.5116	0.0088
824.6793	0.0071
824.847	-0.017
825.0147	-0.0107
825.1824	-0.0315
825.3501	0.0036
825.5177	-0.0128
825.6854	0.0108
825.853	0.0016
826.0206	0.0123
826.1881	0.0026
826.3557	-0.0116
826.5232	-0.0022
826.6907	-0.0046
826.8582	-0.0094
827.0257	-0.006
827.1931	0.006
827.3605	-0.003
827.528	0.002
827.6953	-0.0004
827.8627	-0.0023
828.03	-0.021
828.1974	0.0049
828.3647	-0.0025
828.532	-0.0066
828.6992	-0.0028
828.8665	-0.0191
829.0337	0.0028
829.2009	-0.0162
829.3681	-0.0273
829.5352	-0.0023
829.7024	0.0018
829.8695	-0.0226
830.0366	-0.0241
830.2037	-0.0108
830.3707	-0.0143
830.5378	-0.0084
830.7048	-0.0003
830.8718	-0.0103
831.0388	0.0032
831.2057	-0.0161
831.3727	-0.0302
831.5396	0.0055
831.7065	0.009
831.8734	0.0063
832.0402	-0.0168
832.2071	0.0047
832.3739	0.0088
832.5407	-0.001
832.7075	-0.0101
832.8742	0.0075
833.041	0.0143
833.2077	-0.0339
833.3744	-0.0105
833.541	0.0098
833.7077	0.0073
833.8743	-0.0096
834.0409	0.0087
834.2075	0.0134
834.3741	-0.0071
834.5407	0.0046
834.7072	-0.008
834.8737	-0.0031
835.0402	-0.0201
835.2067	-0.0002
835.3731	-0.026
835.5395	-0.0141
835.706	-0.0231
835.8723	-0.0112
836.0387	-0.0242
836.2051	-0.0053
836.3714	0.0278
836.5377	0.0012
836.704	0.0064
836.8703	-0.0209
837.0365	0.0042
837.2027	-0.0077
837.3689	0.0011
837.5351	0.0054
837.7013	-0.0002
837.8674	0.0046
838.0335	0.0022
838.1997	-0.0098
838.3657	0.0063
838.5318	-0.0046
838.6978	-0.0149
838.8639	0.0108
839.0299	0.0009
839.1958	0.0212
839.3618	0.0101
839.5277	-0.0042
839.6937	-0.0207
839.8596	-0.0144
840.0254	0.0102
840.1913	0.0181
840.3571	0.013
840.523	0.0164
840.6888	-0.0023
840.8545	-0.007
841.0203	-0.0073
841.186	0.0224
841.3517	-0.0103
841.5174	-0.0066
841.6831	-0.0057
841.8488	0.0035
842.0144	0.0221
842.18	0.0022
842.3456	0.0144
842.5112	0.023
842.6767	0.0106
842.8422	0.0081
843.0077	-0.0006
843.1732	-0.0019
843.3387	-0.0181
843.5042	-0.0177
843.6696	0.007
843.835	-0.019
844.0004	0.0072
844.1657	0.0025
844.3311	0.0082
844.4964	-0.0095
844.6617	0.019
844.827	0.0138
844.9923	-0.0075
845.1575	0.0078
845.3227	0.0167
845.4879	-0.0102
845.6531	0.0193
845.8183	-0.0259
845.9834	-0.021
846.1485	-0.0053
846.3136	-0.046
846.4787	-0.0065
846.6438	-0.0106
846.8088	0.0207
846.9738	-0.0028
847.1388	0.0159
847.3038	0.0165
847.4687	0.0145
847.6337	0.0159
847.7986	0.03
847.9635	-0.0112
848.1284	-0.0379
848.2932	-0.0037
848.458	0.029
848.6228	0.0221
848.7876	-0.0319
848.9524	0.0432
849.1172	-0.0111
849.2819	0.05
849.4466	0.0078
849.6113	-0.0188
849.7759	0.0188
849.9406	-0.0285
850.1052	0.0296
850.2698	0.0128
850.4344	0.0431
850.599	-0.0117
850.7635	0.0279
850.928	-0.0069
851.0925	-0.0053
851.257	0.0041
851.4215	-0.0111
851.5859	0.035
851.7503	-0.0222
851.9147	0.0144
852.0791	-0.0121
852.2434	-0.013
852.4078	0.0259
852.5721	-0.018
852.7364	-0.0905
852.9007	0.0242
853.0649	0.0284
853.2291	0.0117
853.3934	-0.0046
853.5575	-0.0306
853.7217	-0.0038
853.8859	0.0195
854.05	0.0409
854.2141	-0.0306
854.3782	0.0282
854.5423	0.0027
854.7063	0.0125
854.8703	-0.0477
855.0343	-0.0038
855.1983	0.0086
855.3623	0.0144
855.5262	0.0404
855.6901	0.0133
855.854	0.01
856.0179	0.0468
856.1818	-0.008
856.3456	-0.0272
856.5094	-0.007
856.6732	0.0379
856.837	0.0509
857.0008	0.0737
857.1645	-0.0131
857.3282	0.0024
857.4919	-0.0121
857.6556	0.0479
857.8192	-0.0041
857.9828	0.0363
858.1465	0.0039
858.31	0.0139
858.4736	-0.0943
858.6372	0.031
858.8007	-0.0268
858.9642	-0.1054
859.1277	-0.0096
859.2911	0.0174
859.4546	0.0081
859.618	-0.0237
859.7814	0.0331
859.9448	-0.119
860.1081	-0.0415
860.2715	0.0953
860.4348	0.0369
860.5981	-0.0143
860.7614	0.0214
860.9246	-0.0031
861.0879	-0.0674
861.2511	-0.0248
861.4143	-0.1275
861.5774	-0.0728
861.7406	-0.0123
861.9037	-0.2192
862.0668	0.0558
862.2299	-0.0377
862.393	0.0538
862.556	0.0649
862.7191	-0.0288
862.8821	0.0027
863.0451	0.0281
863.208	-0.0454
863.371	0.1305
863.5339	0.027
863.6968	-0.1028
863.8597	0.039
864.0225	-0.2149
864.1854	-0.0155
864.3482	0.0327
864.511	0.0253
864.6737	0.0091
864.8365	0.0883
864.9992	-0.0728
865.1619	-0.0431
865.3246	-0.0298
865.4873	0.0508
865.65	0.0897
865.8126	-0.0113
865.9752	-0.1683
866.1378	-0.0837
866.3004	0.0575
866.4629	0.0847
866.6254	0.0459
866.7879	-0.0445
866.9504	-0.2059
867.1129	0.0364
867.2753	-0.0629
867.4377	-0.0247
867.6001	-0.2367
867.7625	0.1526
867.9249	-0.0823
868.0872	0.0604
868.2495	-0.1211
868.4118	0.1451
868.5741	-0.1358
868.7363	0.1432
868.8986	0.0526
869.0608	-0.0617
869.223	-0.0091
869.3851	0.1447
869.5473	0.1132
869.7094	-0.1469
869.8715	0.0507
870.0336	-0.083
870.1957	-0.1343
870.3577	0.1331
870.5197	-0.5263
870.6817	-0.2319
870.8437	-0.1771
871.0057	-0.3539
871.1676	0.0298
871.3295	-0.1992
871.4914	0.1556
871.6533	0.8821
871.8151	-0.0743
871.977	0.3805
872.1388	-0.0527
872.3006	0.0917
872.4623	0.159
872.6241	0.2636
872.7858	0.4914
872.9475	-0.2234
873.1092	0.0388
873.2709	0.1968
873.4325	-0.2695
873.5941	-0.2996
873.7557	0.0142
873.9173	0.0644
874.0789	-0.4046
874.2404	-0.0341
874.4019	-0.1633
874.5634	-0.0655
874.7249	-0.0397
874.8863	0.0679
875.0478	-0.2775
875.2092	-0.3349
875.3706	-0.2367
875.5319	-0.1662
875.6933	-0
875.8546	-0.3214
876.0159	0.3865
876.1772	-0.193
876.3385	-0
876.4997	-0.051
876.6609	0.5602
876.8221	0.0019
876.9833	-0
877.1445	0.1198
877.3056	0.3808
877.4667	-0.5448
877.6278	0.0782
877.7889	0.1495
877.9499	-0.5181
878.111	1.1161
878.272	0.6075
878.433	-0.086
878.5939	0.1894
878.7549	-0.1065
878.9158	-0.1347
879.0767	0.3083
879.2376	0.0482
879.3984	-0.3786
879.5593	1.382
879.7201	-0
879.8809	0.0726
880.0417	0.0303
880.2024	-0.2587
880.3632	0.0449
880.5239	-0
880.6846	-0.3652
880.8452	-0
881.0059	-0.4677
881.1665	-0
881.3271	-0.2371
881.4877	-0.0937
881.6483	-0
881.8088	-0.299
881.9693	0.0544
882.1298	0.0544
882.2903	0.0544
