Data from MonoPyChalIsomerACN10uM450nmA_Absorbance_13-11-20-692.txt Node
Date: Tue Jul 09 13:11:20 BST 2024
User: LASERRRRR
Spectrometer: FLMT03099
Trigger mode: 0
Integration Time (sec): 2.000000E-1
Scans to average: 1
Electric dark correction enabled: true
Nonlinearity correction enabled: false
Boxcar width: 0
XAxis mode: Wavelengths
Number of Pixels in Spectrum: 3648
>>>>>Begin Spectral Data<<<<<
179.3399	0.1918
179.5586	0.1918
179.7771	0.1918
179.9957	-0.1245
180.2143	-0
180.4329	0.4981
180.6514	-0
180.8699	-0
181.0885	-0
181.307	-0
181.5255	1.0551
181.744	-0
181.9625	-0.0656
182.181	0.2877
182.3994	-0
182.6179	-0.3803
182.8363	-0
183.0547	0.2581
183.2732	0.1699
183.4916	0.0626
183.71	0.1266
183.9284	0.033
184.1467	0.0182
184.3651	0.0817
184.5835	0.1137
184.8018	0.0643
185.0201	0.2195
185.2385	-0.062
185.4568	0.0456
185.6751	0.193
185.8934	-0.055
186.1117	0.0261
186.3299	-0.0064
186.5482	0.133
186.7664	0.2734
186.9847	0.1253
187.2029	0.0889
187.4211	0.0959
187.6393	-0.0354
187.8575	0.0518
188.0757	0.111
188.2939	0.1012
188.512	0.2146
188.7302	0.0744
188.9483	0.1605
189.1665	0.1478
189.3846	0.1316
189.6027	0.1626
189.8208	0.1327
190.0389	0.2471
190.257	0.2181
190.475	0.2773
190.6931	0.1435
190.9111	0.2719
191.1292	0.2476
191.3472	0.3685
191.5652	0.3621
191.7832	0.3374
192.0012	0.5177
192.2192	0.4137
192.4371	0.392
192.6551	0.5074
192.873	0.3728
193.091	0.3565
193.3089	0.6717
193.5268	0.6313
193.7447	0.4838
193.9626	0.4783
194.1805	0.5847
194.3984	0.5734
194.6162	0.6407
194.8341	0.534
195.0519	0.6863
195.2697	0.5199
195.4875	0.58
195.7054	0.6033
195.9231	0.7201
196.1409	0.5215
196.3587	0.7207
196.5765	0.6779
196.7942	0.6831
197.012	0.6569
197.2297	0.735
197.4474	0.7651
197.6651	0.7079
197.8828	0.7867
198.1005	0.7538
198.3182	0.7897
198.5358	0.7875
198.7535	0.7581
198.9711	0.9642
199.1888	0.6855
199.4064	0.8978
199.624	0.7539
199.8416	0.7972
200.0592	0.6952
200.2767	0.8172
200.4943	0.8242
200.7119	0.8707
200.9294	0.989
201.1469	0.9206
201.3645	0.9158
201.582	0.9221
201.7995	0.791
202.017	0.896
202.2344	0.8528
202.4519	0.8621
202.6694	0.8016
202.8868	0.8105
203.1042	0.9337
203.3217	0.8908
203.5391	0.9415
203.7565	0.9204
203.9739	0.814
204.1913	0.8245
204.4086	0.959
204.626	1.0029
204.8433	0.8738
205.0607	1.0011
205.278	0.8794
205.4953	1.0995
205.7126	1.0351
205.9299	1.0469
206.1472	0.9741
206.3644	1.0444
206.5817	0.9804
206.7989	1.0258
207.0162	1.1554
207.2334	0.9519
207.4506	0.9847
207.6678	1.0344
207.885	1.0571
208.1022	1.0012
208.3194	1.0333
208.5365	1.045
208.7537	1.0291
208.9708	1.0978
209.1879	1.0725
209.405	1.0381
209.6222	1.0937
209.8392	1.1702
210.0563	1.0136
210.2734	1.0921
210.4905	1.0982
210.7075	1.0904
210.9245	0.9895
211.1416	1.1898
211.3586	1.0454
211.5756	1.0944
211.7926	1.078
212.0096	1.0593
212.2265	0.9797
212.4435	1.0675
212.6604	1.0288
212.8774	1.0407
213.0943	1.0027
213.3112	0.9984
213.5281	1.0531
213.745	1.058
213.9619	0.9774
214.1788	0.9493
214.3956	0.9339
214.6125	0.9504
214.8293	0.8788
215.0461	0.883
215.2629	0.8996
215.4798	0.8691
215.6965	0.8119
215.9133	0.8314
216.1301	0.8156
216.3469	0.7911
216.5636	0.8399
216.7803	0.783
216.9971	0.7527
217.2138	0.721
217.4305	0.7069
217.6472	0.6698
217.8639	0.6693
218.0805	0.6177
218.2972	0.5874
218.5138	0.5338
218.7305	0.5342
218.9471	0.4932
219.1637	0.4485
219.3803	0.4027
219.5969	0.3965
219.8135	0.376
220.0301	0.3611
220.2466	0.3548
220.4632	0.3376
220.6797	0.3213
220.8962	0.3018
221.1127	0.3012
221.3292	0.3121
221.5457	0.2897
221.7622	0.2873
221.9787	0.2693
222.1951	0.281
222.4116	0.2778
222.628	0.2766
222.8444	0.2653
223.0608	0.2781
223.2772	0.2818
223.4936	0.2687
223.71	0.2679
223.9264	0.2939
224.1427	0.2639
224.3591	0.2757
224.5754	0.2738
224.7917	0.2627
225.008	0.273
225.2243	0.271
225.4406	0.2744
225.6569	0.2699
225.8732	0.3077
226.0894	0.2774
226.3057	0.2858
226.5219	0.2883
226.7381	0.2905
226.9543	0.2932
227.1705	0.2896
227.3867	0.2958
227.6029	0.3027
227.8191	0.3129
228.0352	0.293
228.2513	0.3027
228.4675	0.314
228.6836	0.3198
228.8997	0.311
229.1158	0.3162
229.3319	0.3127
229.548	0.3185
229.764	0.3203
229.9801	0.3276
230.1961	0.3331
230.4121	0.3403
230.6282	0.3338
230.8442	0.3316
231.0602	0.3552
231.2761	0.3461
231.4921	0.3656
231.7081	0.3662
231.924	0.3713
232.14	0.3709
232.3559	0.3624
232.5718	0.361
232.7877	0.3584
233.0036	0.3739
233.2195	0.3693
233.4353	0.3648
233.6512	0.3718
233.867	0.3787
234.0829	0.3779
234.2987	0.3767
234.5145	0.3736
234.7303	0.39
234.9461	0.3999
235.1619	0.3898
235.3776	0.3895
235.5934	0.3993
235.8091	0.3923
236.0249	0.3947
236.2406	0.3972
236.4563	0.3916
236.672	0.4013
236.8877	0.4014
237.1034	0.3987
237.319	0.4074
237.5347	0.4052
237.7503	0.4136
237.966	0.4218
238.1816	0.4144
238.3972	0.4159
238.6128	0.417
238.8284	0.4121
239.0439	0.4175
239.2595	0.4324
239.475	0.4267
239.6906	0.4195
239.9061	0.4084
240.1216	0.4197
240.3371	0.4173
240.5526	0.4316
240.7681	0.4038
240.9836	0.4122
241.199	0.4209
241.4145	0.3919
241.6299	0.3951
241.8453	0.3985
242.0607	0.3841
242.2761	0.4008
242.4915	0.3891
242.7069	0.3763
242.9223	0.3726
243.1376	0.3667
243.353	0.3503
243.5683	0.3596
243.7836	0.3413
243.9989	0.3317
244.2142	0.3227
244.4295	0.3252
244.6448	0.3239
244.86	0.316
245.0753	0.304
245.2905	0.3054
245.5057	0.3009
245.721	0.2966
245.9362	0.2799
246.1514	0.2905
246.3665	0.2893
246.5817	0.2712
246.7969	0.2733
247.012	0.2734
247.2271	0.2682
247.4423	0.2693
247.6574	0.2666
247.8725	0.2465
248.0876	0.2536
248.3026	0.2514
248.5177	0.2499
248.7328	0.2394
248.9478	0.24
249.1628	0.2395
249.3779	0.2321
249.5929	0.2207
249.8079	0.2291
250.0228	0.2224
250.2378	0.2223
250.4528	0.2166
250.6677	0.2179
250.8827	0.2135
251.0976	0.2131
251.3125	0.2195
251.5274	0.2044
251.7423	0.2147
251.9572	0.2096
252.172	0.214
252.3869	0.2068
252.6017	0.2123
252.8166	0.2118
253.0314	0.2001
253.2462	0.2117
253.461	0.2033
253.6758	0.1957
253.8906	0.2075
254.1053	0.207
254.3201	0.2047
254.5348	0.2072
254.7496	0.2087
254.9643	0.1992
255.179	0.199
255.3937	0.205
255.6083	0.2036
255.823	0.1957
256.0377	0.1995
256.2523	0.2006
256.467	0.1974
256.6816	0.194
256.8962	0.1935
257.1108	0.2003
257.3254	0.1995
257.54	0.1914
257.7545	0.1931
257.9691	0.1914
258.1836	0.1958
258.3981	0.1973
258.6127	0.2017
258.8272	0.1977
259.0417	0.1963
259.2561	0.1956
259.4706	0.187
259.6851	0.1942
259.8995	0.1947
260.114	0.1933
260.3284	0.1997
260.5428	0.1928
260.7572	0.2027
260.9716	0.1941
261.186	0.2048
261.4003	0.2085
261.6147	0.2053
261.829	0.2035
262.0433	0.1977
262.2577	0.1959
262.472	0.2026
262.6863	0.1921
262.9005	0.191
263.1148	0.1881
263.3291	0.1847
263.5433	0.1914
263.7576	0.1916
263.9718	0.1879
264.186	0.185
264.4002	0.1825
264.6144	0.1828
264.8286	0.182
265.0427	0.188
265.2569	0.1778
265.471	0.1755
265.6851	0.1722
265.8993	0.1824
266.1134	0.1808
266.3275	0.1785
266.5415	0.1729
266.7556	0.175
266.9697	0.1867
267.1837	0.1829
267.3978	0.1868
267.6118	0.191
267.8258	0.1944
268.0398	0.1895
268.2538	0.1883
268.4677	0.1962
268.6817	0.1924
268.8957	0.1888
269.1096	0.1854
269.3235	0.1852
269.5374	0.1768
269.7514	0.1697
269.9652	0.1771
270.1791	0.1485
270.393	0.1583
270.6068	0.1522
270.8207	0.1499
271.0345	0.1556
271.2483	0.1548
271.4622	0.1469
271.676	0.1434
271.8897	0.1433
272.1035	0.1355
272.3173	0.1451
272.531	0.1407
272.7448	0.1375
272.9585	0.1404
273.1722	0.1424
273.3859	0.1427
273.5996	0.1356
273.8133	0.146
274.0269	0.1386
274.2406	0.1395
274.4542	0.1422
274.6679	0.1297
274.8815	0.1388
275.0951	0.1467
275.3087	0.1368
275.5223	0.1344
275.7358	0.1374
275.9494	0.149
276.1629	0.1419
276.3765	0.1382
276.59	0.1425
276.8035	0.1432
277.017	0.1418
277.2305	0.146
277.444	0.141
277.6574	0.1478
277.8709	0.1505
278.0843	0.1467
278.2978	0.1441
278.5112	0.1466
278.7246	0.1459
278.938	0.1416
279.1513	0.1461
279.3647	0.1517
279.5781	0.1408
279.7914	0.147
280.0047	0.1476
280.2181	0.146
280.4314	0.1499
280.6447	0.1475
280.8579	0.1417
281.0712	0.1441
281.2845	0.151
281.4977	0.1531
281.711	0.1502
281.9242	0.1514
282.1374	0.1509
282.3506	0.1433
282.5638	0.1556
282.7769	0.1561
282.9901	0.1507
283.2033	0.1543
283.4164	0.1596
283.6295	0.1569
283.8426	0.1567
284.0557	0.1536
284.2688	0.1591
284.4819	0.1441
284.695	0.1564
284.908	0.156
285.1211	0.1595
285.3341	0.1461
285.5471	0.16
285.7601	0.1506
285.9731	0.1523
286.1861	0.1693
286.3991	0.164
286.612	0.1613
286.825	0.1636
287.0379	0.1542
287.2508	0.1529
287.4637	0.1573
287.6766	0.1519
287.8895	0.1595
288.1024	0.1665
288.3152	0.1589
288.5281	0.159
288.7409	0.1579
288.9538	0.1561
289.1666	0.1643
289.3794	0.1629
289.5922	0.1592
289.8049	0.1643
290.0177	0.1659
290.2304	0.158
290.4432	0.1556
290.6559	0.1624
290.8686	0.1566
291.0813	0.1644
291.294	0.1668
291.5067	0.1667
291.7194	0.1623
291.932	0.1639
292.1447	0.1579
292.3573	0.1627
292.5699	0.1757
292.7825	0.1632
292.9951	0.1666
293.2077	0.1498
293.4203	0.1605
293.6328	0.1714
293.8454	0.1565
294.0579	0.1588
294.2704	0.167
294.4829	0.1638
294.6954	0.1546
294.9079	0.163
295.1204	0.1654
295.3328	0.1612
295.5453	0.1577
295.7577	0.1582
295.9701	0.1602
296.1825	0.1607
296.3949	0.1525
296.6073	0.1628
296.8197	0.1616
297.0321	0.1615
297.2444	0.1537
297.4567	0.1542
297.6691	0.1651
297.8814	0.1598
298.0937	0.169
298.306	0.1583
298.5182	0.1568
298.7305	0.1651
298.9428	0.1522
299.155	0.1566
299.3672	0.1565
299.5794	0.1677
299.7916	0.1609
300.0038	0.1585
300.216	0.1677
300.4282	0.1645
300.6403	0.1576
300.8525	0.1663
301.0646	0.1614
301.2767	0.1651
301.4888	0.1531
301.7009	0.1643
301.913	0.1562
302.125	0.1599
302.3371	0.1615
302.5491	0.1572
302.7612	0.1645
302.9732	0.1599
303.1852	0.1534
303.3972	0.1611
303.6092	0.1545
303.8211	0.1599
304.0331	0.1517
304.245	0.1492
304.457	0.1534
304.6689	0.1559
304.8808	0.1536
305.0927	0.1569
305.3046	0.1489
305.5164	0.1507
305.7283	0.1511
305.9401	0.1513
306.152	0.1451
306.3638	0.1586
306.5756	0.1459
306.7874	0.1378
306.9992	0.142
307.2109	0.1371
307.4227	0.1453
307.6344	0.1289
307.8462	0.1336
308.0579	0.1368
308.2696	0.126
308.4813	0.1317
308.693	0.1292
308.9046	0.123
309.1163	0.1246
309.328	0.1229
309.5396	0.1221
309.7512	0.1239
309.9628	0.1203
310.1744	0.1203
310.386	0.1149
310.5976	0.1151
310.8091	0.1111
311.0207	0.1183
311.2322	0.1129
311.4437	0.1175
311.6552	0.1087
311.8667	0.107
312.0782	0.1114
312.2897	0.1058
312.5012	0.1108
312.7126	0.1001
312.924	0.0973
313.1355	0.1004
313.3469	0.1078
313.5583	0.1016
313.7696	0.1025
313.981	0.1055
314.1924	0.0973
314.4037	0.1031
314.6151	0.0927
314.8264	0.103
315.0377	0.1009
315.249	0.1
315.4603	0.0939
315.6716	0.0973
315.8828	0.0977
316.0941	0.099
316.3053	0.0976
316.5165	0.091
316.7277	0.0941
316.9389	0.0958
317.1501	0.092
317.3613	0.0964
317.5724	0.0902
317.7836	0.0904
317.9947	0.0991
318.2058	0.1024
318.417	0.09
318.6281	0.0948
318.8391	0.093
319.0502	0.0958
319.2613	0.0925
319.4723	0.092
319.6834	0.0936
319.8944	0.0962
320.1054	0.0957
320.3164	0.1003
320.5274	0.096
320.7383	0.0873
320.9493	0.0936
321.1602	0.0983
321.3712	0.1021
321.5821	0.0966
321.793	0.089
322.0039	0.0902
322.2148	0.0975
322.4257	0.0971
322.6365	0.0963
322.8474	0.097
323.0582	0.1053
323.269	0.0944
323.4798	0.0932
323.6906	0.0929
323.9014	0.0919
324.1122	0.0951
324.3229	0.0986
324.5337	0.0922
324.7444	0.0916
324.9551	0.0993
325.1658	0.0984
325.3765	0.0942
325.5872	0.0978
325.7979	0.1049
326.0085	0.1016
326.2192	0.098
326.4298	0.1069
326.6404	0.1008
326.851	0.0951
327.0616	0.1018
327.2722	0.0982
327.4828	0.0996
327.6933	0.1031
327.9039	0.106
328.1144	0.1016
328.3249	0.1002
328.5354	0.1042
328.7459	0.0991
328.9564	0.1068
329.1669	0.0988
329.3773	0.0987
329.5878	0.1027
329.7982	0.0989
330.0086	0.0976
330.219	0.1079
330.4294	0.1071
330.6398	0.0982
330.8502	0.1042
331.0605	0.0973
331.2708	0.1008
331.4812	0.0991
331.6915	0.1077
331.9018	0.099
332.1121	0.106
332.3224	0.1062
332.5326	0.0975
332.7429	0.103
332.9531	0.0927
333.1633	0.1105
333.3735	0.1121
333.5837	0.1036
333.7939	0.1053
334.0041	0.1069
334.2143	0.1034
334.4244	0.0991
334.6346	0.0966
334.8447	0.1036
335.0548	0.1017
335.2649	0.0967
335.475	0.0967
335.685	0.1111
335.8951	0.1066
336.1051	0.1014
336.3152	0.1108
336.5252	0.1058
336.7352	0.1075
336.9452	0.1001
337.1552	0.1049
337.3652	0.109
337.5751	0.1084
337.7851	0.0965
337.995	0.1026
338.2049	0.1021
338.4148	0.1096
338.6247	0.105
338.8346	0.1059
339.0445	0.1134
339.2543	0.1116
339.4642	0.1128
339.674	0.11
339.8838	0.1112
340.0936	0.1084
340.3034	0.123
340.5132	0.108
340.7229	0.1223
340.9327	0.123
341.1424	0.1092
341.3522	0.1066
341.5619	0.1281
341.7716	0.1202
341.9813	0.1123
342.1909	0.1193
342.4006	0.1164
342.6102	0.1154
342.8199	0.1181
343.0295	0.1126
343.2391	0.123
343.4487	0.1169
343.6583	0.1184
343.8679	0.1177
344.0774	0.1216
344.287	0.126
344.4965	0.1202
344.706	0.1286
344.9155	0.123
345.125	0.122
345.3345	0.1282
345.544	0.1137
345.7534	0.1181
345.9629	0.122
346.1723	0.1286
346.3817	0.1334
346.5911	0.134
346.8005	0.1196
347.0099	0.1255
347.2193	0.1347
347.4286	0.1375
347.638	0.1355
347.8473	0.1252
348.0566	0.1393
348.2659	0.1284
348.4752	0.1303
348.6845	0.1357
348.8937	0.1351
349.103	0.1326
349.3122	0.1386
349.5214	0.1417
349.7306	0.1266
349.9398	0.1317
350.149	0.1383
350.3582	0.1313
350.5674	0.1394
350.7765	0.1332
350.9856	0.1375
351.1948	0.1365
351.4039	0.1442
351.613	0.1275
351.822	0.1456
352.0311	0.1373
352.2402	0.1428
352.4492	0.1466
352.6582	0.1444
352.8672	0.1462
353.0762	0.1554
353.2852	0.1493
353.4942	0.1438
353.7032	0.1443
353.9121	0.1543
354.1211	0.1454
354.33	0.15
354.5389	0.144
354.7478	0.1499
354.9567	0.1403
355.1655	0.1543
355.3744	0.1524
355.5833	0.1418
355.7921	0.1496
356.0009	0.1465
356.2097	0.1517
356.4185	0.1564
356.6273	0.1617
356.8361	0.1452
357.0448	0.1637
357.2536	0.1496
357.4623	0.1526
357.671	0.1722
357.8797	0.1612
358.0884	0.1686
358.2971	0.1601
358.5057	0.1655
358.7144	0.1667
358.923	0.1705
359.1316	0.1664
359.3402	0.1727
359.5488	0.164
359.7574	0.178
359.966	0.166
360.1746	0.1726
360.3831	0.1913
360.5916	0.1714
360.8002	0.1728
361.0087	0.1791
361.2172	0.1789
361.4256	0.1791
361.6341	0.1775
361.8426	0.1847
362.051	0.1768
362.2594	0.1818
362.4678	0.182
362.6762	0.1823
362.8846	0.1934
363.093	0.187
363.3014	0.182
363.5097	0.1847
363.718	0.1876
363.9264	0.1805
364.1347	0.193
364.343	0.1762
364.5513	0.1938
364.7595	0.1878
364.9678	0.1959
365.176	0.198
365.3842	0.1889
365.5925	0.1869
365.8007	0.1885
366.0089	0.2059
366.217	0.1921
366.4252	0.2018
366.6333	0.196
366.8415	0.1975
367.0496	0.2004
367.2577	0.206
367.4658	0.2111
367.6739	0.2023
367.882	0.2066
368.09	0.2115
368.2981	0.2144
368.5061	0.2036
368.7141	0.213
368.9221	0.2079
369.1301	0.2149
369.3381	0.2068
369.5461	0.2119
369.754	0.2137
369.962	0.208
370.1699	0.2199
370.3778	0.2113
370.5857	0.2073
370.7936	0.2123
371.0015	0.2038
371.2093	0.2086
371.4172	0.2241
371.625	0.2105
371.8328	0.2262
372.0406	0.2247
372.2484	0.2181
372.4562	0.2233
372.664	0.2205
372.8717	0.2172
373.0795	0.2168
373.2872	0.2203
373.4949	0.2095
373.7026	0.2149
373.9103	0.214
374.118	0.231
374.3256	0.2354
374.5333	0.2078
374.7409	0.2273
374.9485	0.2223
375.1561	0.2316
375.3637	0.2348
375.5713	0.2323
375.7789	0.2367
375.9864	0.2345
376.194	0.2331
376.4015	0.2355
376.609	0.2316
376.8165	0.2326
377.024	0.2233
377.2315	0.2378
377.4389	0.2368
377.6464	0.2267
377.8538	0.2406
378.0612	0.2396
378.2686	0.2298
378.476	0.2272
378.6834	0.2412
378.8908	0.2629
379.0981	0.2469
379.3055	0.2372
379.5128	0.2376
379.7201	0.2349
379.9274	0.2442
380.1347	0.2374
380.342	0.2445
380.5492	0.2406
380.7565	0.2471
380.9637	0.2589
381.1709	0.2546
381.3781	0.2483
381.5853	0.2605
381.7925	0.2585
381.9997	0.2583
382.2068	0.2498
382.4139	0.2455
382.6211	0.2557
382.8282	0.2515
383.0353	0.2573
383.2424	0.2537
383.4494	0.2586
383.6565	0.2625
383.8635	0.2623
384.0706	0.2487
384.2776	0.2612
384.4846	0.2579
384.6916	0.2577
384.8986	0.2429
385.1055	0.2589
385.3125	0.2736
385.5194	0.2609
385.7263	0.2651
385.9333	0.2701
386.1402	0.2586
386.347	0.2697
386.5539	0.2581
386.7608	0.2494
386.9676	0.2477
387.1744	0.2565
387.3813	0.2498
387.5881	0.2544
387.7948	0.2586
388.0016	0.2599
388.2084	0.2608
388.4151	0.2494
388.6219	0.2584
388.8286	0.2485
389.0353	0.2467
389.242	0.2576
389.4487	0.2464
389.6553	0.2462
389.862	0.2396
390.0686	0.2415
390.2753	0.2389
390.4819	0.2451
390.6885	0.2496
390.8951	0.245
391.1016	0.2517
391.3082	0.2437
391.5147	0.2493
391.7213	0.2397
391.9278	0.2375
392.1343	0.2419
392.3408	0.2338
392.5473	0.2384
392.7537	0.2428
392.9602	0.2374
393.1666	0.2315
393.373	0.2341
393.5794	0.2321
393.7858	0.2284
393.9922	0.222
394.1986	0.2379
394.4049	0.2361
394.6113	0.2352
394.8176	0.21
395.0239	0.2271
395.2302	0.2211
395.4365	0.2254
395.6428	0.2154
395.8491	0.2073
396.0553	0.2106
396.2615	0.2142
396.4678	0.2284
396.674	0.2177
396.8802	0.2203
397.0863	0.2174
397.2925	0.2168
397.4987	0.2182
397.7048	0.2127
397.9109	0.2204
398.117	0.2122
398.3231	0.2226
398.5292	0.2136
398.7353	0.2133
398.9413	0.2115
399.1474	0.2161
399.3534	0.2118
399.5594	0.2106
399.7654	0.2139
399.9714	0.2117
400.1774	0.204
400.3833	0.2299
400.5893	0.215
400.7952	0.2007
401.0011	0.21
401.207	0.2213
401.4129	0.196
401.6188	0.2025
401.8247	0.205
402.0305	0.205
402.2364	0.2213
402.4422	0.2033
402.648	0.2145
402.8538	0.2097
403.0596	0.2019
403.2654	0.2056
403.4711	0.2119
403.6768	0.2195
403.8826	0.2083
404.0883	0.2177
404.294	0.2036
404.4997	0.206
404.7054	0.2042
404.911	0.2226
405.1167	0.2183
405.3223	0.2169
405.5279	0.2194
405.7335	0.2067
405.9391	0.2117
406.1447	0.2072
406.3502	0.2094
406.5558	0.2162
406.7613	0.218
406.9668	0.2137
407.1724	0.2176
407.3778	0.2122
407.5833	0.2184
407.7888	0.2132
407.9942	0.2163
408.1997	0.2138
408.4051	0.2145
408.6105	0.2256
408.8159	0.2257
409.0213	0.2076
409.2267	0.214
409.432	0.2139
409.6374	0.2074
409.8427	0.2333
410.048	0.2137
410.2533	0.2107
410.4586	0.2138
410.6639	0.1989
410.8691	0.2024
411.0744	0.1986
411.2796	0.2055
411.4848	0.2204
411.69	0.2111
411.8952	0.2121
412.1004	0.2033
412.3056	0.2276
412.5107	0.2188
412.7158	0.2125
412.921	0.2074
413.1261	0.2028
413.3312	0.2204
413.5362	0.2094
413.7413	0.2102
413.9464	0.2114
414.1514	0.1945
414.3564	0.2083
414.5614	0.209
414.7664	0.1982
414.9714	0.2051
415.1764	0.2101
415.3813	0.2099
415.5863	0.207
415.7912	0.2144
415.9961	0.2082
416.201	0.2052
416.4059	0.2064
416.6108	0.2055
416.8156	0.1938
417.0205	0.1987
417.2253	0.206
417.4301	0.1997
417.6349	0.2028
417.8397	0.2026
418.0445	0.2089
418.2492	0.1931
418.454	0.2105
418.6587	0.1943
418.8634	0.2078
419.0681	0.2026
419.2728	0.2013
419.4775	0.1892
419.6822	0.1999
419.8868	0.1931
420.0915	0.1997
420.2961	0.2079
420.5007	0.1918
420.7053	0.1923
420.9099	0.1941
421.1144	0.1908
421.319	0.1908
421.5235	0.2107
421.728	0.1903
421.9325	0.1854
422.137	0.18
422.3415	0.1969
422.546	0.1988
422.7504	0.197
422.9549	0.2
423.1593	0.1859
423.3637	0.185
423.5681	0.1873
423.7725	0.1805
423.9769	0.1761
424.1812	0.1758
424.3856	0.1759
424.5899	0.1788
424.7942	0.1821
424.9985	0.1675
425.2028	0.1576
425.4071	0.168
425.6113	0.1793
425.8156	0.1756
426.0198	0.1899
426.224	0.1721
426.4282	0.1698
426.6324	0.1661
426.8366	0.168
427.0407	0.1714
427.2449	0.182
427.449	0.1626
427.6531	0.1559
427.8572	0.1589
428.0613	0.1632
428.2654	0.1604
428.4694	0.1595
428.6735	0.1756
428.8775	0.1646
429.0815	0.1622
429.2855	0.1647
429.4895	0.1482
429.6935	0.1499
429.8975	0.1492
430.1014	0.1497
430.3053	0.1495
430.5093	0.1464
430.7132	0.15
430.9171	0.1395
431.1209	0.151
431.3248	0.1387
431.5286	0.1424
431.7325	0.1281
431.9363	0.1348
432.1401	0.126
432.3439	0.1245
432.5477	0.1313
432.7514	0.1291
432.9552	0.1268
433.1589	0.1279
433.3627	0.1292
433.5664	0.1179
433.7701	0.1229
433.9737	0.1038
434.1774	0.1203
434.3811	0.1148
434.5847	0.1212
434.7883	0.1059
434.9919	0.1135
435.1955	0.0956
435.3991	0.109
435.6027	0.1028
435.8062	0.1042
436.0098	0.1059
436.2133	0.1103
436.4168	0.1095
436.6203	0.1035
436.8238	0.0935
437.0272	0.0938
437.2307	0.1012
437.4341	0.0931
437.6375	0.1006
437.841	0.0839
438.0443	0.0883
438.2477	0.0966
438.4511	0.0986
438.6545	0.0761
438.8578	0.0928
439.0611	0.0867
439.2644	0.0907
439.4677	0.0789
439.671	0.0784
439.8743	0.0876
440.0775	0.0605
440.2808	0.0632
440.484	0.0854
440.6872	0.0565
440.8904	0.0668
441.0936	0.0647
441.2967	0.0732
441.4999	0.0641
441.703	0.0659
441.9062	0.0633
442.1093	0.0627
442.3124	0.0716
442.5155	0.0665
442.7185	0.0446
442.9216	0.0686
443.1246	0.0527
443.3276	0.0678
443.5307	0.0548
443.7337	0.0533
443.9366	0.0544
444.1396	0.0524
444.3426	0.0532
444.5455	0.0474
444.7484	0.044
444.9513	0.0488
445.1542	0.0499
445.3571	0.0513
445.56	0.0354
445.7628	0.0336
445.9657	0.0493
446.1685	0.0384
446.3713	0.0364
446.5741	0.045
446.7769	0.033
446.9797	0.0394
447.1824	0.0396
447.3852	0.036
447.5879	0.0374
447.7906	0.0367
447.9933	0.0377
448.196	0.0454
448.3986	0.0305
448.6013	0.0338
448.8039	0.0327
449.0066	0.026
449.2092	0.0151
449.4118	0.0271
449.6143	0.026
449.8169	0.0233
450.0195	0.0206
450.222	0.0088
450.4245	0.012
450.627	0.0282
450.8295	0.0254
451.032	0.037
451.2345	0.0172
451.4369	0.0331
451.6394	0.0156
451.8418	0.0172
452.0442	0.0115
452.2466	0.0207
452.449	0.0159
452.6513	0.0158
452.8537	0.0276
453.056	0.008
453.2583	0.0177
453.4607	0.0256
453.663	0.0252
453.8652	0.0135
454.0675	0.0185
454.2697	0.0203
454.472	0.0171
454.6742	0.009
454.8764	0.018
455.0786	0.0162
455.2808	0.0184
455.4829	0.0119
455.6851	0.0067
455.8872	0.0011
456.0893	0.0112
456.2915	0.0077
456.4935	0.0202
456.6956	0.0138
456.8977	0.0081
457.0997	0.0024
457.3018	0.012
457.5038	-0.0033
457.7058	0.0002
457.9078	0.0053
458.1098	0.0035
458.3117	0.0007
458.5137	0.0106
458.7156	0.0192
458.9175	0.0028
459.1194	0.0142
459.3213	0.0037
459.5232	0.0021
459.725	-0.0061
459.9269	0.0005
460.1287	0.0041
460.3305	0.0009
460.5323	0.0115
460.7341	0.0083
460.9359	-0.0094
461.1376	0.001
461.3394	0.0017
461.5411	-0.0029
461.7428	-0.0009
461.9445	0.0026
462.1462	-0.0023
462.3479	-0.0046
462.5495	0.0103
462.7512	-0.0008
462.9528	-0.0041
463.1544	0.0006
463.356	-0.0041
463.5576	0.0005
463.7592	-0.0039
463.9607	0.0067
464.1623	0.0095
464.3638	0.0024
464.5653	0.0042
464.7668	0.0006
464.9683	0.0042
465.1697	0.0028
465.3712	0.0065
465.5726	0.0003
465.7741	-0.0054
465.9755	-0.0014
466.1769	-0.0144
466.3782	-0.0004
466.5796	-0.001
466.7809	-0.0043
466.9823	0.0005
467.1836	-0.0029
467.3849	0.0047
467.5862	-0.0084
467.7875	-0.0031
467.9887	-0.0054
468.19	-0.0113
468.3912	-0.0013
468.5924	-0.0008
468.7936	-0.0085
468.9948	0.009
469.196	-0.0013
469.3972	0.0079
469.5983	0.0171
469.7994	-0.0036
470.0006	-0.0104
470.2017	0.0054
470.4027	0.0056
470.6038	-0.0023
470.8049	-0.0037
471.0059	0.0049
471.2069	0.0052
471.408	-0.0162
471.6089	-0.0043
471.8099	-0.0016
472.0109	-0.0141
472.2119	-0.0089
472.4128	0.0035
472.6137	-0.0043
472.8146	-0.0034
473.0155	-0.0076
473.2164	-0.0113
473.4173	-0.0085
473.6181	-0.0022
473.819	-0.0024
474.0198	-0.0009
474.2206	-0.0048
474.4214	0.0019
474.6222	-0.0077
474.8229	-0.0073
475.0237	-0.0079
475.2244	-0.0038
475.4251	-0.0039
475.6258	0.0093
475.8265	-0.0042
476.0272	-0.004
476.2278	-0.0017
476.4285	-0.0053
476.6291	-0.0034
476.8297	-0.005
477.0303	-0.0095
477.2309	0.0012
477.4315	0.0021
477.632	-0.01
477.8326	-0.0052
478.0331	-0.0055
478.2336	-0.0024
478.4341	-0.0108
478.6346	-0.0047
478.8351	-0.0061
479.0355	-0.0081
479.236	-0.0044
479.4364	-0.008
479.6368	0.0085
479.8372	-0.0023
480.0376	0.0022
480.2379	-0.0086
480.4383	-0.0022
480.6386	-0.013
480.8389	-0.01
481.0392	-0.0056
481.2395	-0.0016
481.4398	-0.0019
481.6401	-0.0091
481.8403	-0.0045
482.0405	-0.0187
482.2408	0.0027
482.441	-0.002
482.6411	0.0039
482.8413	-0.0018
483.0415	-0.0072
483.2416	-0.0009
483.4417	-0.0089
483.6419	-0.0026
483.8419	-0.0078
484.042	-0.0014
484.2421	-0.0076
484.4422	-0.0111
484.6422	-0.0134
484.8422	-0.0096
485.0422	-0.0095
485.2422	-0.0086
485.4422	-0.0023
485.6422	-0.0033
485.8421	-0.0031
486.042	-0.0037
486.242	-0.0075
486.4419	-0.0031
486.6417	-0.0078
486.8416	0.0099
487.0415	-0.0073
487.2413	-0.0044
487.4411	-0.0054
487.641	-0.0065
487.8408	-0.0113
488.0405	-0.0091
488.2403	-0.0096
488.4401	-0.0027
488.6398	-0.0089
488.8395	-0.007
489.0392	-0.0067
489.2389	-0.0085
489.4386	-0.0088
489.6383	-0.01
489.8379	-0.0101
490.0376	-0.0044
490.2372	-0.0071
490.4368	-0.0093
490.6364	-0.0074
490.836	-0.0073
491.0355	-0.01
491.2351	-0.0057
491.4346	-0.0111
491.6341	-0.0093
491.8336	-0.002
492.0331	-0.0077
492.2326	-0.0069
492.432	-0.0023
492.6315	-0.0082
492.8309	-0.0083
493.0303	-0.001
493.2297	-0.0038
493.4291	-0.0098
493.6284	0.0013
493.8278	-0.0048
494.0271	-0.0044
494.2264	-0.0079
494.4257	0.001
494.625	-0.0015
494.8243	-0.0056
495.0236	-0.0082
495.2228	-0.0102
495.422	-0.0006
495.6213	-0.0054
495.8205	-0.0032
496.0196	-0.0146
496.2188	-0.0007
496.418	0.004
496.6171	-0.0026
496.8162	-0.013
497.0153	-0.0026
497.2144	-0.0003
497.4135	-0.0038
497.6126	-0.0022
497.8116	-0.0021
498.0107	-0.0063
498.2097	-0.0062
498.4087	-0.0033
498.6077	-0.0049
498.8067	-0.0111
499.0056	-0.0072
499.2046	-0.0002
499.4035	-0.0081
499.6024	-0.0076
499.8013	-0.0018
500.0002	-0.0066
500.199	-0.0041
500.3979	-0.002
500.5967	-0.0081
500.7956	-0.0121
500.9944	-0.0093
501.1932	-0.005
501.3919	-0.01
501.5907	-0.0072
501.7895	0.0004
501.9882	-0.0105
502.1869	-0.0026
502.3856	-0.0073
502.5843	-0.0112
502.783	-0.0101
502.9816	-0.01
503.1803	-0.0021
503.3789	-0.0063
503.5775	-0.0012
503.7761	-0.0007
503.9747	-0.0074
504.1732	-0.0013
504.3718	-0.0091
504.5703	-0.0044
504.7689	-0.0004
504.9674	0.0004
505.1658	-0.0139
505.3643	-0.0007
505.5628	0.0094
505.7612	-0.0112
505.9597	-0.0083
506.1581	-0.0041
506.3565	-0.0094
506.5549	-0.0039
506.7532	-0.0136
506.9516	-0.0074
507.1499	-0.0014
507.3482	-0.005
507.5465	-0.0017
507.7448	-0.0074
507.9431	-0.0006
508.1414	-0.0026
508.3396	-0.0065
508.5379	-0.0042
508.7361	0.003
508.9343	-0.0047
509.1325	-0.0032
509.3306	-0.0002
509.5288	-0.0015
509.7269	-0.0125
509.9251	-0.0078
510.1232	-0.0038
510.3213	-0.0107
510.5193	-0.0055
510.7174	-0.0064
510.9154	-0.0097
511.1135	-0.0109
511.3115	-0.0041
511.5095	-0.0069
511.7075	-0.0045
511.9055	-0.0107
512.1034	-0.0104
512.3014	-0.0029
512.4993	-0.0087
512.6972	-0.0075
512.8951	-0.0035
513.093	-0.0069
513.2908	-0.006
513.4887	-0.0022
513.6865	-0.0035
513.8844	-0.0027
514.0822	-0.0044
514.2799	-0.0071
514.4777	-0.0059
514.6755	-0.0066
514.8732	-0.0102
515.0709	-0.0101
515.2687	-0.0029
515.4664	-0.008
515.664	-0.005
515.8617	-0.0108
516.0594	-0.0026
516.257	-0.0034
516.4546	-0.0068
516.6522	-0.0046
516.8498	-0.0094
517.0474	-0.0042
517.2449	-0.0088
517.4425	0.0026
517.64	-0.0052
517.8375	-0.0118
518.035	-0.0026
518.2325	-0.0101
518.43	-0.005
518.6274	-0.0089
518.8249	-0.0073
519.0223	-0.006
519.2197	-0.0023
519.4171	-0.0049
519.6145	-0.0001
519.8118	-0.0111
520.0092	-0.0022
520.2065	-0.0146
520.4038	-0.0061
520.6011	-0.0127
520.7984	-0.0043
520.9956	-0.0087
521.1929	-0.0036
521.3901	-0.0085
521.5874	-0.0081
521.7846	-0.0032
521.9818	-0.0024
522.1789	-0.0041
522.3761	-0.007
522.5732	-0.0051
522.7704	-0.0065
522.9675	-0.0063
523.1646	-0.0044
523.3617	-0.0026
523.5587	-0.0098
523.7558	0.0008
523.9528	-0.0049
524.1498	-0.011
524.3468	-0.0019
524.5438	-0.006
524.7408	-0.0102
524.9378	-0.0105
525.1347	0.0001
525.3316	-0.0057
525.5285	-0.0037
525.7254	-0.0111
525.9223	0.0033
526.1192	-0.0022
526.316	-0.0048
526.5129	-0.006
526.7097	-0.0098
526.9065	-0.0018
527.1033	-0.0061
527.3	-0.0101
527.4968	-0.009
527.6935	-0.0003
527.8903	0.001
528.087	-0.0148
528.2837	-0.0025
528.4804	-0.0026
528.677	-0.006
528.8737	-0.011
529.0703	0.0002
529.2669	0.0007
529.4635	-0.0109
529.6601	-0.0035
529.8567	-0.005
530.0532	-0
530.2498	-0.0103
530.4463	-0.0037
530.6428	-0.0045
530.8393	-0.0033
531.0358	-0.0098
531.2322	-0.003
531.4287	-0.0103
531.6251	0.0016
531.8215	0.0002
532.0179	-0.0014
532.2143	-0.0051
532.4107	-0.0073
532.607	-0.0043
532.8034	-0.0071
532.9997	-0.0063
533.196	-0.0094
533.3923	0.0009
533.5886	0.0011
533.7848	-0.0023
533.9811	-0.0029
534.1773	-0.01
534.3735	-0.0097
534.5697	-0.0038
534.7659	-0.0053
534.9621	-0.0037
535.1582	-0.0059
535.3544	-0.0076
535.5505	-0.0045
535.7466	-0.0024
535.9427	-0.0041
536.1387	-0.0022
536.3348	-0.0006
536.5308	-0.0095
536.7269	-0.0058
536.9229	0.002
537.1189	-0.0068
537.3148	-0.0003
537.5108	-0.0028
537.7068	-0.0063
537.9027	-0.0076
538.0986	-0.0012
538.2945	-0.0059
538.4904	-0.0101
538.6863	-0.0089
538.8821	-0.0075
539.078	-0.0075
539.2738	-0.0031
539.4696	-0.0084
539.6654	-0.0028
539.8611	-0.0075
540.0569	0.0002
540.2526	-0.0022
540.4484	0.0062
540.6441	0.0002
540.8398	-0.0036
541.0355	-0.0065
541.2311	-0.0041
541.4268	0.0049
541.6224	-0.0001
541.818	-0.0039
542.0136	-0.007
542.2092	-0.0049
542.4048	-0.0082
542.6003	-0.006
542.7959	-0.0015
542.9914	-0.0083
543.1869	-0.0055
543.3824	-0.0097
543.5779	-0.0091
543.7734	-0.0052
543.9688	-0.0084
544.1642	-0.0046
544.3596	-0.005
544.555	-0.003
544.7504	-0.002
544.9458	-0.0084
545.1411	-0
545.3365	-0.0002
545.5318	0.0097
545.7271	0.0012
545.9224	0.0012
546.1177	-0.0096
546.3129	-0.0028
546.5081	-0.0028
546.7034	-0.0061
546.8986	-0.0025
547.0938	-0.0033
547.289	-0.0031
547.4841	-0.0051
547.6793	-0.0106
547.8744	-0.0068
548.0695	-0.004
548.2646	-0.0089
548.4597	0.0028
548.6548	-0.0018
548.8498	-0.0051
549.0448	0.0014
549.2399	0.001
549.4349	-0.002
549.6298	-0.006
549.8248	0.0001
550.0198	-0.0021
550.2147	-0.0023
550.4096	-0.0049
550.6045	-0.0073
550.7994	-0.0018
550.9943	-0.0048
551.1892	-0.0041
551.384	-0.0087
551.5788	-0.0092
551.7737	-0.0046
551.9685	-0.0079
552.1632	-0.0084
552.358	-0.0096
552.5528	-0.0082
552.7475	-0.0081
552.9422	-0.0039
553.1369	-0.0124
553.3316	-0.0003
553.5263	-0.0071
553.7209	-0.0031
553.9156	-0.0052
554.1102	-0.0058
554.3048	-0.01
554.4994	-0
554.694	0.0042
554.8885	-0.0097
555.0831	-0.0046
555.2776	-0
555.4721	-0.0015
555.6666	-0.0079
555.8611	-0.0017
556.0555	-0.0108
556.25	-0.0074
556.4444	-0.0018
556.6388	-0.0103
556.8332	-0.0039
557.0276	-0.0011
557.222	-0.0053
557.4163	0.0009
557.6107	-0.0036
557.805	-0.0092
557.9993	-0.0032
558.1936	-0.0077
558.3879	0.0036
558.5821	-0.0018
558.7764	-0.0028
558.9706	-0.0034
559.1648	-0.0061
559.359	-0.0069
559.5532	-0.009
559.7473	-0.003
559.9415	-0.0056
560.1356	-0.0034
560.3297	-0.0118
560.5238	-0.0068
560.7179	-0.0079
560.9119	0.0017
561.106	0.002
561.3	-0.0013
561.494	-0.0042
561.688	-0.005
561.882	-0.0037
562.076	-0.0071
562.2699	-0.0067
562.4639	-0.0037
562.6578	-0.0054
562.8517	-0.0045
563.0456	0.0028
563.2395	-0.0056
563.4333	-0.0045
563.6272	-0.0064
563.821	-0.0022
564.0148	0.0043
564.2086	-0.0123
564.4024	-0.0047
564.5961	-0.0015
564.7899	0.0016
564.9836	0.0055
565.1773	-0.0072
565.371	-0.0002
565.5647	-0.0019
565.7584	0.0031
565.952	-0.0003
566.1456	-0.0087
566.3393	-0.0048
566.5329	0.0013
566.7264	-0.001
566.92	0.0005
567.1136	-0.0074
567.3071	0.0005
567.5006	-0.0044
567.6941	0.0002
567.8876	-0.0035
568.0811	-0.0009
568.2745	-0.0076
568.468	-0.0084
568.6614	-0.0101
568.8548	-0.0089
569.0482	-0.0071
569.2416	-0.0055
569.4349	-0.0024
569.6283	-0.0071
569.8216	-0.0101
570.0149	-0.004
570.2082	-0.0026
570.4015	-0.0049
570.5947	0.0027
570.788	-0.0091
570.9812	-0.0036
571.1744	-0.0095
571.3676	-0.0062
571.5608	-0.0008
571.754	-0.0076
571.9471	-0.0039
572.1402	-0.0041
572.3333	-0.0029
572.5264	0.0006
572.7195	-0.0003
572.9126	-0.0004
573.1057	-0.0025
573.2987	0.001
573.4917	-0.0086
573.6847	-0.0039
573.8777	-0.0073
574.0707	-0.002
574.2636	-0.0019
574.4566	-0.0015
574.6495	-0.0001
574.8424	-0.002
575.0353	-0.0056
575.2281	-0.0024
575.421	-0.006
575.6138	-0.0012
575.8067	-0.0011
575.9995	0.0019
576.1923	-0.0041
576.385	-0.0099
576.5778	-0.0016
576.7706	-0.0001
576.9633	-0.0026
577.156	-0.0012
577.3487	-0.0051
577.5414	0.0013
577.734	0.0031
577.9267	0.0037
578.1193	-0.0064
578.3119	-0.0013
578.5045	-0.0071
578.6971	0.0015
578.8897	-0.0061
579.0822	-0.0008
579.2747	0.0018
579.4673	-0.0034
579.6598	-0.0033
579.8522	0.0001
580.0447	-0.0078
580.2372	0.0025
580.4296	0.0057
580.622	0.0005
580.8144	-0.0056
581.0068	-0.0016
581.1992	0.0025
581.3915	-0.001
581.5839	0.0012
581.7762	-0.0046
581.9685	-0.0023
582.1608	-0.0042
582.353	0.0038
582.5453	-0.0035
582.7375	0.0025
582.9298	-0.0063
583.122	-0.002
583.3142	-0.0058
583.5063	0.0005
583.6985	-0.0045
583.8906	0.0003
584.0827	-0.0048
584.2749	-0.0059
584.4669	-0.0034
584.659	-0.0064
584.8511	-0.0023
585.0431	-0.0056
585.2352	-0.0069
585.4272	-0.0101
585.6192	-0.0036
585.8111	-0.0043
586.0031	-0.0007
586.195	-0.0085
586.387	0.0022
586.5789	-0.0021
586.7708	-0.011
586.9627	-0.0033
587.1545	-0.006
587.3464	-0.0105
587.5382	-0.0067
587.73	0.0001
587.9218	-0.0065
588.1136	-0.0008
588.3053	-0.0013
588.4971	-0.0043
588.6888	-0.003
588.8805	-0.0031
589.0722	0.0006
589.2639	-0.0036
589.4556	-0.0045
589.6472	-0.0008
589.8389	-0.0036
590.0305	-0.0039
590.2221	-0.0039
590.4137	-0.0022
590.6052	-0.0044
590.7968	-0.0086
590.9883	-0.0051
591.1798	-0
591.3713	0.0015
591.5628	-0.0017
591.7543	-0.0032
591.9458	-0.0044
592.1372	-0.0055
592.3286	-0.0033
592.52	-0.006
592.7114	0.0022
592.9028	-0.0001
593.0941	-0.0054
593.2855	-0.0028
593.4768	-0.0048
593.6681	0.0006
593.8594	0.0033
594.0506	0.001
594.2419	0.0012
594.4331	-0.0023
594.6244	-0.004
594.8156	-0.0088
595.0067	-0.0033
595.1979	-0.0022
595.3891	-0.008
595.5802	-0.0052
595.7713	-0.0052
595.9624	0.0031
596.1535	0.0051
596.3446	-0.0045
596.5357	-0.0028
596.7267	-0.0031
596.9177	-0.0006
597.1087	-0.0005
597.2997	0.0053
597.4907	-0.0031
597.6817	-0.0022
597.8726	-0.0069
598.0635	-0.0051
598.2544	-0.0004
598.4453	-0.0075
598.6362	0.0011
598.827	-0.0034
599.0179	-0.0021
599.2087	-0.0086
599.3995	-0.0092
599.5903	0.001
599.7811	-0.0028
599.9718	0.0004
600.1626	0.0052
600.3533	-0.0024
600.544	-0.0031
600.7347	0.001
600.9254	-0.0017
601.116	-0.0055
601.3067	-0.0024
601.4973	-0.0057
601.6879	-0.0002
601.8785	-0.0045
602.0691	-0.005
602.2596	-0.0001
602.4502	-0.0004
602.6407	-0.0021
602.8312	-0.0001
603.0217	-0.0034
603.2122	-0.0021
603.4027	-0.0029
603.5931	-0.0025
603.7835	0.0014
603.9739	0.0001
604.1643	-0.0024
604.3547	0.0003
604.5451	-0.0016
604.7354	-0.0031
604.9257	-0.0012
605.116	-0.0027
605.3063	0.0007
605.4966	-0.0058
605.6869	0.0014
605.8771	-0.0002
606.0673	-0.004
606.2575	-0.0044
606.4477	-0.0059
606.6379	-0.0118
606.8281	-0.0081
607.0182	-0.0081
607.2083	-0.0047
607.3985	-0.0091
607.5885	-0.0015
607.7786	-0.0034
607.9687	-0.0021
608.1587	-0.0072
608.3488	-0.0016
608.5388	-0.0001
608.7288	-0.01
608.9187	-0.0014
609.1087	-0.0041
609.2986	-0.0069
609.4886	-0.0047
609.6785	0.0002
609.8684	-0.0068
610.0582	-0.0019
610.2481	-0.004
610.4379	-0.003
610.6278	0.0035
610.8176	-0.0006
611.0074	-0.0051
611.1971	-0.0038
611.3869	-0.0009
611.5766	-0.0038
611.7664	-0.0024
611.9561	0.0012
612.1458	0.0006
612.3354	-0.0016
612.5251	-0.0062
612.7147	-0.0031
612.9044	-0.0041
613.094	-0.0027
613.2836	-0.0012
613.4731	-0.0093
613.6627	-0.0053
613.8522	-0.0046
614.0417	-0.0038
614.2313	-0.0077
614.4207	-0.0027
614.6102	0.0031
614.7997	-0.007
614.9891	-0.0035
615.1785	-0.003
615.3679	0.0015
615.5573	-0.0004
615.7467	0.0015
615.9361	-0.0016
616.1254	-0.0026
616.3147	-0.0034
616.504	-0.0038
616.6933	-0.0017
616.8826	-0.0073
617.0718	-0.0048
617.2611	-0.0015
617.4503	0.0064
617.6395	-0.0039
617.8287	0.0021
618.0179	0.0025
618.207	-0.0047
618.3961	-0.0011
618.5853	-0.0063
618.7744	-0.0026
618.9634	-0.0034
619.1525	-0.0021
619.3416	-0.0062
619.5306	-0
619.7196	0.0026
619.9086	-0.0011
620.0976	-0.0016
620.2866	-0.0016
620.4755	-0.0039
620.6645	-0.0013
620.8534	0.0011
621.0423	-0.0072
621.2312	-0.0033
621.42	-0.0023
621.6089	0.0016
621.7977	-0.0032
621.9865	-0.0044
622.1753	0.0045
622.3641	-0.0007
622.5529	-0.0016
622.7416	-0.0048
622.9303	0.0048
623.1191	-0.0058
623.3078	0.0001
623.4964	-0.0024
623.6851	0.0048
623.8737	-0.001
624.0624	-0.0008
624.251	-0.003
624.4396	0.0001
624.6282	0.0005
624.8167	0.0004
625.0053	0.0004
625.1938	0.001
625.3823	0.0024
625.5708	0.0004
625.7593	-0.0006
625.9477	-0.0014
626.1362	-0.002
626.3246	-0.0052
626.513	-0.0036
626.7014	-0.005
626.8898	-0.0005
627.0781	-0.0016
627.2665	-0.0025
627.4548	-0.0088
627.6431	0.0013
627.8314	-0
628.0197	0.0002
628.2079	-0.0046
628.3962	-0.0032
628.5844	0.008
628.7726	-0.0035
628.9608	0.0041
629.1489	0.0033
629.3371	0.003
629.5252	0.0029
629.7134	0.0012
629.9015	0.0003
630.0895	-0.0023
630.2776	0.0006
630.4657	0.0011
630.6537	-0.0008
630.8417	-0.0019
631.0297	0.0007
631.2177	0.0049
631.4057	0.0019
631.5936	0.0021
631.7815	-0.005
631.9695	-0.0027
632.1574	-0.007
632.3452	-0.0081
632.5331	-0.003
632.7209	-0.0025
632.9088	-0.005
633.0966	-0.0063
633.2844	-0.0044
633.4722	-0.003
633.6599	-0.0033
633.8477	-0.0038
634.0354	-0.0072
634.2231	-0.0067
634.4108	-0.0003
634.5985	-0.0031
634.7861	-0.0066
634.9738	-0.005
635.1614	-0.0022
635.349	-0.0049
635.5366	-0.0037
635.7242	-0.002
635.9117	0.0026
636.0993	-0.0016
636.2868	-0.002
636.4743	-0.0034
636.6618	-0.0091
636.8492	0.0009
637.0367	-0.0052
637.2241	-0.0068
637.4115	-0.0033
637.5989	-0.0031
637.7863	0.0014
637.9737	-0.0043
638.161	-0.0032
638.3484	-0.0024
638.5357	0.0008
638.723	0.0027
638.9103	0.0045
639.0975	0.0049
639.2848	-0.0047
639.472	0.0005
639.6592	0.005
639.8464	-0.003
640.0336	-0.0011
640.2208	0.0025
640.4079	-0.008
640.595	0.0038
640.7821	0.0004
640.9692	0.0023
641.1563	0.0033
641.3434	-0.0002
641.5304	0.0009
641.7174	0.0016
641.9044	0.0035
642.0914	0.0002
642.2784	0.0041
642.4653	0.0064
642.6523	-0.0024
642.8392	0.004
643.0261	0.0041
643.213	0.0014
643.3999	0.003
643.5867	0.0003
643.7735	0.0013
643.9604	-0.0025
644.1472	-0.0013
644.3339	-0.0001
644.5207	-0.0062
644.7075	-0.0072
644.8942	-0.0014
645.0809	-0.0001
645.2676	-0.0027
645.4543	0.0048
645.6409	-0.0041
645.8276	-0.0061
646.0142	-0.0012
646.2008	-0.0046
646.3874	-0.0014
646.574	-0.0045
646.7605	-0.0032
646.9471	-0.0103
647.1336	-0.0015
647.3201	-0.0082
647.5066	0.0008
647.6931	-0.003
647.8795	-0.0039
648.0659	-0.0015
648.2524	-0.0068
648.4388	-0.0046
648.6252	-0.0042
648.8115	-0.0105
648.9979	-0.008
649.1842	-0.0091
649.3705	-0.002
649.5568	-0.0003
649.7431	-0.0022
649.9294	-0.0053
650.1156	-0.003
650.3018	-0.0096
650.488	-0.0066
650.6742	-0.0042
650.8604	0.0039
651.0466	0.005
651.2327	-0.0026
651.4188	-0.0009
651.6049	0.0048
651.791	0.0033
651.9771	-0.0005
652.1632	0.0041
652.3492	0.0042
652.5352	-0.0018
652.7212	-0.0011
652.9072	0.0035
653.0932	0.0001
653.2791	-0.0008
653.465	-0.0034
653.651	-0.001
653.8369	-0.0021
654.0227	0.0059
654.2086	-0.0007
654.3944	-0.0047
654.5803	-0.0069
654.7661	-0.0022
654.9519	-0.0065
655.1377	-0.0019
655.3234	0.0001
655.5092	0.0001
655.6949	0.0001
655.8806	0.0001
656.0663	0.0001
656.2519	0.0001
656.4376	-0.003
656.6232	-0.0036
656.8088	-0.0054
656.9945	-0.0034
657.18	0.0005
657.3656	0
657.5511	-0.0039
657.7367	-0.0015
657.9222	0.0017
658.1077	-0.0017
658.2932	-0.0046
658.4786	-0.0008
658.6641	-0.0018
658.8495	-0.006
659.0349	-0.0023
659.2203	-0.0059
659.4057	-0.0065
659.591	-0.0051
659.7764	-0.0057
659.9617	-0.0066
660.147	-0.0005
660.3323	-0.0051
660.5176	-0.0071
660.7028	-0.0053
660.888	-0.0056
661.0733	-0.0014
661.2585	-0.0067
661.4436	-0.0048
661.6288	-0.0075
661.8139	-0.0004
661.9991	-0.0016
662.1842	0.0004
662.3693	-0.0041
662.5544	-0.0001
662.7394	0.0016
662.9245	0.0004
663.1095	0.0018
663.2945	-0.0019
663.4795	-0.0016
663.6644	-0.007
663.8494	-0.0058
664.0343	-0.0045
664.2193	-0.0085
664.4042	-0.0066
664.589	-0.0007
664.7739	-0.0037
664.9587	0.0064
665.1436	0.0048
665.3284	0.0016
665.5132	-0.0037
665.698	0.003
665.8827	0.0017
666.0675	-0.0052
666.2522	-0.0096
666.4369	-0.0054
666.6216	-0.0108
666.8063	-0.0036
666.9909	-0.0099
667.1756	-0.0095
667.3602	-0.0112
667.5448	-0.0112
667.7294	-0.0042
667.9139	-0.0048
668.0985	-0.0122
668.283	-0.0092
668.4675	-0.0134
668.652	-0.0107
668.8365	-0.0106
669.0209	-0.0113
669.2054	-0.0058
669.3898	-0.0061
669.5742	-0.01
669.7586	-0.0076
669.943	-0.0056
670.1273	-0.0134
670.3117	-0.0058
670.496	-0.0069
670.6803	0.001
670.8646	-0.0066
671.0488	-0.0019
671.2331	-0.0043
671.4173	-0.0015
671.6015	-0.0027
671.7857	-0.0019
671.9699	-0.0038
672.1541	-0.001
672.3382	-0.007
672.5223	-0.0051
672.7064	-0.0029
672.8905	-0.0105
673.0746	-0.0143
673.2587	-0.013
673.4427	-0.0154
673.6267	-0.0112
673.8107	-0.0115
673.9947	-0.0102
674.1787	-0.009
674.3626	-0.0065
674.5465	-0.0078
674.7304	0.0003
674.9143	-0.0004
675.0982	-0.0032
675.2821	-0.0027
675.4659	-0.0067
675.6497	-0.0022
675.8335	-0.0065
676.0173	-0.0112
676.2011	-0.0063
676.3849	-0.0054
676.5686	-0.0003
676.7523	-0.002
676.936	-0.002
677.1197	-0.0047
677.3034	-0.0054
677.487	-0.0042
677.6706	-0.0026
677.8542	-0.0068
678.0378	0.0013
678.2214	-0.0058
678.405	-0.0009
678.5885	-0.0072
678.772	-0.0066
678.9555	-0.0022
679.139	-0.0052
679.3225	-0.0072
679.5059	-0.0054
679.6894	-0.0031
679.8728	-0.0037
680.0562	0.0026
680.2395	-0.0063
680.4229	0.0005
680.6062	0.0037
680.7896	0.0017
680.9729	0.0009
681.1562	-0.002
681.3394	-0.0014
681.5227	-0.0065
681.7059	-0.0037
681.8891	-0.0044
682.0723	-0.0042
682.2555	-0.0042
682.4387	-0.0035
682.6218	-0.0043
682.805	-0.001
682.9881	-0.0056
683.1712	0.001
683.3542	-0.0034
683.5373	-0.0036
683.7203	-0.0035
683.9034	-0.0038
684.0864	-0.0053
684.2694	-0.0029
684.4523	-0.005
684.6353	-0.0021
684.8182	-0.0004
685.0011	-0.0069
685.184	0.0021
685.3669	-0.0057
685.5498	0.003
685.7326	0.0007
685.9154	-0.0037
686.0982	-0.005
686.281	-0.0096
686.4638	-0.0046
686.6465	-0.0056
686.8293	-0.0013
687.012	-0.0044
687.1947	-0.0108
687.3774	-0.0024
687.56	-0.0045
687.7427	-0.0027
687.9253	0.0008
688.1079	0.0034
688.2905	-0.0003
688.4731	-0.0087
688.6556	-0.005
688.8382	0.0005
689.0207	0.0042
689.2032	-0.0018
689.3857	0.004
689.5681	-0.0008
689.7506	-0.001
689.933	-0.0018
690.1154	-0.0012
690.2978	-0.0051
690.4802	-0.0009
690.6626	0.0049
690.8449	-0.0002
691.0272	0.0042
691.2095	0.0033
691.3918	-0.0011
691.5741	-0.0044
691.7563	-0.0029
691.9386	-0.0012
692.1208	0.0004
692.303	-0.0064
692.4852	0.0008
692.6673	-0.0019
692.8495	-0.0024
693.0316	-0.003
693.2137	-0.0042
693.3958	-0.0028
693.5778	-0.0031
693.7599	-0.0046
693.9419	-0.0111
694.1239	-0.0024
694.3059	-0.0102
694.4879	-0.0002
694.6699	-0.0111
694.8518	-0.0036
695.0337	-0.0073
695.2157	-0.0058
695.3975	-0.0084
695.5794	0.0015
695.7613	-0.0067
695.9431	-0.0022
696.1249	-0.0056
696.3067	-0.003
696.4885	0.0013
696.6703	-0.0058
696.852	-0.0009
697.0337	-0.0027
697.2154	0.0002
697.3971	-0.0066
697.5788	-0.0066
697.7605	0.0007
697.9421	-0.0003
698.1237	-0.0039
698.3053	-0.0054
698.4869	-0.0013
698.6685	-0.0053
698.85	-0.004
699.0315	-0.0003
699.213	-0.0014
699.3945	0.0027
699.576	0.0073
699.7575	0.0002
699.9389	0.0014
700.1203	-0.0038
700.3017	-0.002
700.4831	-0.004
700.6645	-0.0097
700.8458	-0.0006
701.0271	0.0014
701.2084	-0.0077
701.3897	-0.0064
701.571	0.0007
701.7523	0.0026
701.9335	0.005
702.1147	0.0089
702.2959	-0.0045
702.4771	-0.0015
702.6583	-0.0004
702.8394	-0.0052
703.0205	0.0005
703.2016	-0.0035
703.3827	0.0063
703.5638	-0.0038
703.7449	-0.0104
703.9259	-0.004
704.1069	0
704.2879	-0.0041
704.4689	-0.0012
704.6499	0
704.8308	-0.0014
705.0117	-0.0019
705.1927	-0.0065
705.3735	0.0033
705.5544	-0.0028
705.7353	0.0011
705.9161	-0
706.0969	0.0011
706.2777	-0.0035
706.4585	0.0022
706.6393	-0.0045
706.82	-0.003
707.0007	-0.0047
707.1815	-0.0004
707.3621	-0.0009
707.5428	-0.0029
707.7235	0.0008
707.9041	-0.0008
708.0847	-0.0016
708.2653	-0.0026
708.4459	-0.0003
708.6265	-0.0059
708.807	0
708.9875	0.0016
709.168	-0.0041
709.3485	-0.0012
709.529	-0.0036
709.7095	-0.0047
709.8899	-0.009
710.0703	0.0005
710.2507	-0.0039
710.4311	-0.0014
710.6115	0.0072
710.7918	-0.002
710.9721	0.001
711.1524	0.0035
711.3327	0.0063
711.513	-0.0037
711.6932	-0.0036
711.8735	0.0008
712.0537	-0.0034
712.2339	-0.0033
712.4141	-0.0033
712.5942	0.0032
712.7744	0.0025
712.9545	0.0073
713.1346	-0.0019
713.3147	0.0057
713.4947	0.001
713.6748	-0.0008
713.8548	-0.0065
714.0348	0.0034
714.2148	-0.0051
714.3948	-0.0044
714.5748	-0.0078
714.7547	-0.0028
714.9346	0.0008
715.1145	-0.0058
715.2944	-0.0054
715.4743	-0.0062
715.6541	-0.0027
715.834	-0.0031
716.0138	-0.0015
716.1936	0.0016
716.3733	-0.0085
716.5531	-0.0091
716.7328	-0.0002
716.9126	0.0011
717.0923	0.0026
717.2719	-0.0056
717.4516	-0.0006
717.6312	-0.0018
717.8109	0.0029
717.9905	-0.0084
718.1701	-0.0022
718.3496	-0.0047
718.5292	-0.0081
718.7087	-0.0075
718.8882	-0.0076
719.0677	-0.0028
719.2472	-0.0029
719.4267	-0.0109
719.6061	-0.0094
719.7856	-0.0011
719.965	-0.0087
720.1443	-0.0033
720.3237	-0.0057
720.5031	-0.0039
720.6824	-0.0033
720.8617	-0.0047
721.041	-0.0029
721.2203	-0.0075
721.3995	-0.0047
721.5788	-0.0058
721.758	-0.0006
721.9372	-0.0058
722.1164	-0.0039
722.2956	-0.0063
722.4747	-0.0086
722.6538	-0.0041
722.8329	-0.0015
723.012	0.0014
723.1911	-0.0004
723.3702	-0.0001
723.5492	-0.0019
723.7282	-0.0057
723.9072	-0.0054
724.0862	-0.0016
724.2652	0.0028
724.4441	-0.0057
724.623	0.0024
724.8019	-0.0006
724.9808	-0.0029
725.1597	-0.0009
725.3385	0.0094
725.5174	-0.0004
725.6962	-0.008
725.875	0.0057
726.0538	0.0028
726.2325	-0.0021
726.4112	-0.0018
726.59	0.0016
726.7687	-0.004
726.9474	-0.0024
727.126	-0.0036
727.3047	-0.0038
727.4833	0.001
727.6619	-0.0101
727.8405	-0.0014
728.0191	0.0002
728.1976	-0.0091
728.3762	-0.0063
728.5547	-0.0046
728.7332	-0.0121
728.9116	-0.0143
729.0901	-0.0152
729.2686	-0.0089
729.447	-0.0029
729.6254	-0.0121
729.8038	-0.0073
729.9821	-0.0054
730.1605	-0.0019
730.3388	-0.0036
730.5171	-0.003
730.6954	0.0024
730.8737	0.0041
731.0519	0.0027
731.2302	0.0018
731.4084	0.0081
731.5866	0.0037
731.7648	0.0042
731.9429	0.0031
732.1211	0.0033
732.2992	0.0104
732.4773	-0.0009
732.6554	-0.0035
732.8335	-0.014
733.0115	-0.0057
733.1896	-0.007
733.3676	0.0015
733.5456	0.0023
733.7235	-0.0031
733.9015	0.0017
734.0794	-0.0011
734.2574	-0.0044
734.4353	-0.0046
734.6131	-0.0029
734.791	-0.001
734.9689	-0.002
735.1467	0.0002
735.3245	-0.0017
735.5023	0.0006
735.68	-0.0028
735.8578	-0.0016
736.0355	0.0078
736.2132	-0.0018
736.3909	-0.0009
736.5686	-0.0059
736.7463	-0.0026
736.9239	-0.003
737.1015	-0.0021
737.2791	-0.0067
737.4567	-0.0075
737.6343	-0.0039
737.8118	-0.0027
737.9894	-0.0058
738.1669	-0.0031
738.3444	-0.0004
738.5218	0.0018
738.6993	-0.0046
738.8767	-0.0002
739.0541	-0.0072
739.2315	-0.0026
739.4089	0.0046
739.5863	-0.0057
739.7636	-0.0023
739.9409	-0.003
740.1182	0.0006
740.2955	0.0012
740.4728	-0.0073
740.65	-0
740.8272	-0.0009
741.0044	-0.0046
741.1816	0.0004
741.3588	0.006
741.5359	0.0006
741.7131	0.0023
741.8902	0.001
742.0673	0.0029
742.2444	-0.0079
742.4214	-0.0028
742.5985	-0.0059
742.7755	-0.0048
742.9525	0.0031
743.1295	0.0015
743.3064	-0.0043
743.4834	0.0008
743.6603	-0.0011
743.8372	-0.0035
744.0141	0.0006
744.191	-0.0019
744.3678	-0.0054
744.5446	-0.0048
744.7215	-0.0028
744.8982	0.0001
745.075	-0.0023
745.2518	-0.0036
745.4285	-0.0015
745.6052	0.0014
745.7819	-0.0012
745.9586	0.0025
746.1353	-0.0059
746.3119	0.0021
746.4885	-0.0077
746.6651	-0.0002
746.8417	-0.0063
747.0183	-0.0035
747.1948	-0.0053
747.3714	-0.0098
747.5479	-0.0034
747.7244	-0.0028
747.9008	0.002
748.0773	0.0033
748.2537	0.0074
748.4301	-0.0042
748.6065	-0.004
748.7829	-0.0013
748.9593	-0.0013
749.1356	-0.005
749.3119	-0.0001
749.4882	0.0065
749.6645	-0.0023
749.8408	-0.0008
750.017	-0.0052
750.1933	-0.0012
750.3695	-0.0088
750.5457	-0.008
750.7218	-0.0069
750.898	-0.0066
751.0741	-0.0108
751.2502	-0.0017
751.4263	-0.0014
751.6024	-0.0024
751.7784	0.0034
751.9545	-0.0017
752.1305	0.0026
752.3065	-0.0057
752.4825	-0.0006
752.6584	-0.0057
752.8344	-0.0022
753.0103	0.0008
753.1862	0.0029
753.3621	-0.0076
753.5379	-0.0001
753.7138	0.0011
753.8896	-0.0071
754.0654	-0.0123
754.2412	-0.0101
754.417	-0.005
754.5927	-0.0014
754.7685	-0.0041
754.9442	-0.0023
755.1199	-0.0106
755.2956	-0.0049
755.4712	-0.0054
755.6469	-0.01
755.8225	-0.0148
755.9981	-0.0031
756.1736	-0.0071
756.3492	-0.0131
756.5248	-0.0022
756.7003	-0.0087
756.8758	-0.0104
757.0513	-0.013
757.2267	-0.0142
757.4022	-0.0062
757.5776	-0.0101
757.753	-0.0161
757.9284	-0.0048
758.1038	-0.0085
758.2791	-0.0144
758.4545	-0.0099
758.6298	-0.0097
758.8051	-0.0108
758.9803	-0.0092
759.1556	-0.0095
759.3308	-0.0053
759.506	-0.0088
759.6812	-0.0077
759.8564	-0.0096
760.0316	-0.0104
760.2067	-0.0027
760.3819	-0.0047
760.557	-0.008
760.732	-0.0102
760.9071	-0.0055
761.0821	-0.0134
761.2572	-0.0096
761.4322	-0.0143
761.6072	-0.0113
761.7821	-0.0142
761.9571	-0.0112
762.132	-0.0104
762.3069	0.0008
762.4818	-0.0044
762.6567	-0.0092
762.8316	-0.0004
763.0064	0.002
763.1812	0.0031
763.356	0.0008
763.5308	0.0043
763.7055	0.0034
763.8803	0.0004
764.055	-0.0003
764.2297	-0.0048
764.4044	0.004
764.579	-0.0054
764.7537	0.0036
764.9283	-0.0057
765.1029	0.0064
765.2775	0.0006
765.4521	0.0066
765.6266	0.0032
765.8011	0.0061
765.9756	0.0071
766.1501	0.0032
766.3246	-0.001
766.4991	-0.0071
766.6735	-0.0052
766.8479	-0.005
767.0223	0.0016
767.1967	-0.0031
767.371	-0.0077
767.5454	-0.0048
767.7197	0.0023
767.894	-0.0073
768.0683	-0.0049
768.2425	-0.0032
768.4168	-0.0123
768.591	0.0071
768.7652	-0.0046
768.9394	0.0014
769.1135	0.0007
769.2877	0.0073
769.4618	0.0133
769.6359	-0.002
769.81	-0.0001
769.984	-0.0067
770.1581	0.0049
770.3321	0.004
770.5061	-0.0026
770.6801	0.0032
770.8541	0.0022
771.028	0.0083
771.202	0.002
771.3759	-0.003
771.5498	0.0037
771.7236	0.0032
771.8975	0.0015
772.0713	-0.0016
772.2451	0.0025
772.4189	0.0018
772.5927	-0.0046
772.7665	-0
772.9402	-0.0003
773.1139	-0.0008
773.2876	-0.0003
773.4613	-0.0042
773.635	0.0046
773.8086	0.004
773.9822	0.0029
774.1558	0
774.3294	0.0045
774.503	-0.0001
774.6765	-0.0043
774.8501	0.011
775.0236	-0.0113
775.1971	-0.0069
775.3705	0.0057
775.544	0.0021
775.7174	0.0014
775.8908	-0.0065
776.0642	-0.0003
776.2376	-0.004
776.4109	-0.0087
776.5843	0.0117
776.7576	-0.0066
776.9309	-0.0011
777.1041	-0.0013
777.2774	0.0003
777.4506	-0.0033
777.6238	-0.0003
777.797	-0.0007
777.9702	-0.0025
778.1434	-0.0038
778.3165	0.0028
778.4896	-0.0108
778.6627	-0.0024
778.8358	-0.0071
779.0089	-0.0012
779.1819	-0.0012
779.3549	-0.0057
779.5279	0.0008
779.7009	-0.0106
779.8739	0.0041
780.0468	-0.0074
780.2197	-0.0013
780.3926	-0.0028
780.5655	-0.0069
780.7384	-0.007
780.9112	-0.0063
781.0841	0.0058
781.2569	0.001
781.4297	-0.0074
781.6024	0.0055
781.7752	0.0023
781.9479	-0
782.1206	0.003
782.2933	-0.0067
782.466	-0.004
782.6386	0.0033
782.8113	-0.0121
782.9839	-0.0097
783.1565	-0.0098
783.329	-0.0091
783.5016	-0.0012
783.6741	-0.0065
783.8466	-0.0074
784.0191	-0.0034
784.1916	0.0074
784.3641	-0.0016
784.5365	-0.0025
784.7089	0.003
784.8813	0.0072
785.0537	0.011
785.2261	0.0061
785.3984	0.0015
785.5707	0.0018
785.743	0.0061
785.9153	0.0065
786.0876	0.0006
786.2598	0.0055
786.432	0.0114
786.6042	0.0016
786.7764	-0.0004
786.9486	-0.0001
787.1207	-0.0052
787.2928	-0.0012
787.4649	-0.001
787.637	-0.0012
787.8091	0.0006
787.9811	0.0065
788.1532	-0.0037
788.3252	-0.0072
788.4972	0.0028
788.6691	-0.0065
788.8411	-0.0032
789.013	-0.0021
789.1849	0.0015
789.3568	-0.0097
789.5287	-0.0037
789.7005	0.0007
789.8723	-0.0026
790.0442	-0.0129
790.2159	0.003
790.3877	-0.003
790.5595	-0.0007
790.7312	-0.0042
790.9029	0.002
791.0746	-0.0038
791.2463	-0.0006
791.4179	-0.013
791.5896	0.0054
791.7612	-0.0002
791.9328	0.007
792.1044	-0.0024
792.2759	0.0021
792.4474	-0.0087
792.619	-0.0038
792.7905	-0.01
792.9619	-0.0033
793.1334	-0.0059
793.3048	-0.0064
793.4762	-0.0065
793.6476	-0.0157
793.819	-0.0118
793.9904	-0.0117
794.1617	-0.0146
794.333	-0.008
794.5043	-0.0108
794.6756	0.0047
794.8469	0.0065
795.0181	0.0024
795.1893	-0.0073
795.3605	-0.0099
795.5317	-0.0095
795.7029	-0.007
795.874	-0.0114
796.0452	-0.0057
796.2163	-0.0083
796.3873	-0.0084
796.5584	-0.0172
796.7294	-0.0067
796.9005	-0.0121
797.0715	-0.0103
797.2425	-0.0234
797.4134	-0.0132
797.5844	-0.0089
797.7553	-0.0074
797.9262	-0.0134
798.0971	-0.0125
798.2679	-0.0151
798.4388	-0.0123
798.6096	-0.0148
798.7804	-0.0122
798.9512	-0.0067
799.122	-0.0021
799.2927	-0.0164
799.4635	0.0017
799.6342	-0.0122
799.8049	-0.0085
799.9755	-0.0084
800.1462	-0.0154
800.3168	-0.001
800.4874	-0.0072
800.658	-0.0139
800.8286	-0.0216
800.9991	-0.0149
801.1696	-0.0212
801.3402	-0.0174
801.5106	-0.02
801.6811	-0.0196
801.8516	-0.018
802.022	-0.0198
802.1924	-0.0227
802.3628	-0.0196
802.5332	-0.0131
802.7035	-0.0146
802.8739	0.0009
803.0442	-0.017
803.2145	-0.0111
803.3847	-0.0243
803.555	-0.0102
803.7252	-0.0084
803.8954	-0.0177
804.0656	-0.003
804.2358	-0.0099
804.4059	-0.0032
804.5761	-0.0133
804.7462	-0.0039
804.9163	-0.0071
805.0864	-0.0102
805.2564	-0.0154
805.4264	-0.0145
805.5965	-0.0155
805.7665	0.003
805.9364	-0.0018
806.1064	-0.0135
806.2763	-0.0092
806.4462	-0.0072
806.6161	-0.0058
806.786	-0.0064
806.9559	-0.0049
807.1257	-0.0106
807.2955	-0.0082
807.4653	-0.008
807.6351	0.0006
807.8048	-0.004
807.9746	-0.0091
808.1443	0.0017
808.314	0.0008
808.4837	0.0078
808.6533	-0
808.8229	-0.0041
808.9926	0.0017
809.1622	-0.013
809.3317	0.0208
809.5013	0.0095
809.6708	0.006
809.8403	-0.0001
810.0098	0.0061
810.1793	-0.0149
810.3488	0.0124
810.5182	-0.0062
810.6876	-0.0088
810.857	-0.0147
811.0264	-0.0024
811.1958	0.0103
811.3651	-0.0167
811.5344	-0.0021
811.7037	-0.0196
811.873	-0.0057
812.0422	-0.0135
812.2115	-0.0005
812.3807	-0.0036
812.5499	-0.0055
812.7191	-0.0051
812.8882	0.0032
813.0574	-0.006
813.2265	0.0045
813.3956	0.0004
813.5646	-0.0082
813.7337	-0.0009
813.9027	0.0084
814.0718	-0.009
814.2407	0.005
814.4097	-0.0059
814.5787	0.0091
814.7476	-0.0126
814.9165	-0.0004
815.0854	-0.006
815.2543	0.002
815.4232	-0.0067
815.592	0.0044
815.7608	0.0024
815.9296	0.0106
816.0984	0.0002
816.2671	0.0002
816.4359	-0.0019
816.6046	0.002
816.7733	-0.0025
816.942	0.0111
817.1106	-0.0058
817.2793	-0.008
817.4479	-0.0038
817.6165	-0.0087
817.785	-0.0038
817.9536	0.0022
818.1221	-0.0016
818.2906	-0.0037
818.4591	-0.0201
818.6276	0.0103
818.7961	-0.0046
818.9645	-0.0172
819.1329	-0.0036
819.3013	-0.0025
819.4697	0.0023
819.638	-0.0007
819.8064	0.0054
819.9747	-0.0029
820.143	-0.0023
820.3113	-0.0125
820.4795	0.0071
820.6477	0.0014
820.816	-0.0028
820.9842	-0.0128
821.1523	-0.0153
821.3205	0.0034
821.4886	0.0013
821.6567	0.0005
821.8248	-0.0169
821.9929	-0.0105
822.1609	0.0065
822.329	-0.0044
822.497	-0.0138
822.665	-0.0166
822.833	-0.0168
823.0009	-0.0027
823.1688	-0.015
823.3367	-0.0024
823.5046	-0.0105
823.6725	-0.0212
823.8404	0.0007
824.0082	-0.0107
824.176	-0.0056
824.3438	-0.0119
824.5116	-0.003
824.6793	-0.0181
824.847	-0.0046
825.0147	-0.0081
825.1824	-0.0357
825.3501	-0.0008
825.5177	-0.012
825.6854	-0.0103
825.853	-0.0005
826.0206	0.0041
826.1881	-0.0035
826.3557	-0.0021
826.5232	0.0104
826.6907	-0.004
826.8582	0.0107
827.0257	-0.021
827.1931	0.0148
827.3605	-0.0044
827.528	-0.0029
827.6953	0.0058
827.8627	-0.0012
828.03	-0.0147
828.1974	0.0051
828.3647	0.0114
828.532	-0.0136
828.6992	0.0111
828.8665	-0.0277
829.0337	-0.0174
829.2009	-0.009
829.3681	-0.0277
829.5352	-0.0095
829.7024	-0.0043
829.8695	-0.0348
830.0366	-0.02
830.2037	0.0035
830.3707	-0.0131
830.5378	-0.0098
830.7048	-0.0131
830.8718	0.0023
831.0388	-0.0132
831.2057	-0.0117
831.3727	-0.0099
831.5396	0.0122
831.7065	0.0102
831.8734	-0.0005
832.0402	-0.0231
832.2071	0.008
832.3739	0.0047
832.5407	0.007
832.7075	-0.0178
832.8742	0.0159
833.041	0.0188
833.2077	-0.0346
833.3744	0.0109
833.541	0.0076
833.7077	-0.0025
833.8743	-0.0031
834.0409	0.0254
834.2075	0.0034
834.3741	0.0034
834.5407	-0.0041
834.7072	0.0006
834.8737	-0.0148
835.0402	-0.0075
835.2067	-0.0042
835.3731	-0.0169
835.5395	-0.0051
835.706	-0.0182
835.8723	-0.0013
836.0387	-0.0229
836.2051	-0.0068
836.3714	0.0223
836.5377	0.0018
836.704	0.0143
836.8703	-0.0163
837.0365	0.0038
837.2027	0.0083
837.3689	-0.0127
837.5351	0.0081
837.7013	-0.0188
837.8674	0.0137
838.0335	-0.0003
838.1997	-0.0073
838.3657	0.0136
838.5318	0.0106
838.6978	-0.0153
838.8639	0.0188
839.0299	-0.0174
839.1958	-0.0004
839.3618	0.0154
839.5277	-0.0281
839.6937	-0.0054
839.8596	0.0002
840.0254	0.0283
840.1913	0.0058
840.3571	0.012
840.523	0.0153
840.6888	-0.0022
840.8545	0.003
841.0203	-0.0075
841.186	-0.0094
841.3517	-0.0161
841.5174	-0.007
841.6831	-0.0032
841.8488	0.0156
842.0144	0.0406
842.18	-0.0038
842.3456	0.0055
842.5112	0.009
842.6767	-0.0104
842.8422	0.0154
843.0077	-0.0142
843.1732	-0.0216
843.3387	-0.0153
843.5042	0.0184
843.6696	0.0208
843.835	-0.0096
844.0004	0.0019
844.1657	-0.0096
844.3311	0.0189
844.4964	-0.002
844.6617	0.0279
844.827	0.0078
844.9923	0.0223
845.1575	0.0376
845.3227	-0.0211
845.4879	0.0172
845.6531	0.017
845.8183	-0.0113
845.9834	-0.0018
846.1485	0.0352
846.3136	-0.0526
846.4787	-0.0204
846.6438	0.0104
846.8088	0.0205
846.9738	-0.0165
847.1388	-0.001
847.3038	0.0145
847.4687	0.0169
847.6337	0.0239
847.7986	0.013
847.9635	-0.0092
848.1284	0.0105
848.2932	0.0202
848.458	0.0399
848.6228	-0.0061
848.7876	-0.0521
848.9524	0.0413
849.1172	-0.0017
849.2819	0.0264
849.4466	0.0228
849.6113	0.0094
849.7759	0.0224
849.9406	-0.0007
850.1052	0.0298
850.2698	-0.025
850.4344	0.0095
850.599	-0.0075
850.7635	0.0242
850.928	-0.0259
851.0925	0.012
851.257	0.0219
851.4215	0.0233
851.5859	0.0278
851.7503	0.0329
851.9147	0.0038
852.0791	-0.0201
852.2434	-0.0075
852.4078	0.018
852.5721	-0.0449
852.7364	-0.0697
852.9007	0.0515
853.0649	-0.0157
853.2291	0.0051
853.3934	-0.0077
853.5575	0.0375
853.7217	-0.0168
853.8859	0.0259
854.05	0.006
854.2141	-0.0203
854.3782	0.0217
854.5423	-0.0118
854.7063	0.0195
854.8703	-0.019
855.0343	0.0079
855.1983	-0.0107
855.3623	0.0366
855.5262	0.0263
855.6901	-0.0012
855.854	0.0547
856.0179	0.0645
856.1818	-0.0288
856.3456	-0.0213
856.5094	-0.0343
856.6732	-0.0237
856.837	-0.0417
857.0008	0.0047
857.1645	-0.031
857.3282	0.0318
857.4919	-0.015
857.6556	0.0228
857.8192	0.0766
857.9828	0.0276
858.1465	0.086
858.31	0.0215
858.4736	-0.103
858.6372	-0.0015
858.8007	-0.0042
858.9642	-0.0483
859.1277	0.0961
859.2911	0.0316
859.4546	0.0947
859.618	0.001
859.7814	-0.0177
859.9448	-0.0793
860.1081	-0.0185
860.2715	0.0527
860.4348	0.0152
860.5981	0.0269
860.7614	-0.0701
860.9246	0.0633
861.0879	0.0244
861.2511	-0.0116
861.4143	-0.0726
861.5774	0.0069
861.7406	-0.0377
861.9037	-0.0167
862.0668	0.0291
862.2299	-0.0456
862.393	0.0295
862.556	0.0865
862.7191	0.0982
862.8821	-0.0602
863.0451	0.1672
863.208	-0.1076
863.371	0.0545
863.5339	-0.0059
863.6968	-0.0409
863.8597	0.0132
864.0225	-0.1995
864.1854	0.0063
864.3482	0.0117
864.511	-0.064
864.6737	-0.0489
864.8365	0.0408
864.9992	-0.0332
865.1619	-0.0123
865.3246	-0.1069
865.4873	0.1971
865.65	0.0878
865.8126	0.0542
865.9752	0.075
866.1378	-0.1028
866.3004	0.0359
866.4629	-0.2837
866.6254	0.1475
866.7879	-0.2064
866.9504	-0.0019
867.1129	-0.005
867.2753	0.008
867.4377	0.0972
867.6001	0.0141
867.7625	0.1222
867.9249	0.0403
868.0872	-0.0495
868.2495	-0.1074
868.4118	-0.0881
868.5741	-0.0839
868.7363	0.1358
868.8986	-0.0123
869.0608	-0.1583
869.223	-0.0736
869.3851	0.061
869.5473	-0.2579
869.7094	-0.0448
869.8715	0.2578
870.0336	0.0445
870.1957	-0.002
870.3577	0.1097
870.5197	-0.1447
870.6817	-0.0438
870.8437	-0.0762
871.0057	0.0475
871.1676	-0.0905
871.3295	-0.1191
871.4914	0.01
871.6533	0.2481
871.8151	0.0037
871.977	0.4245
872.1388	0.0122
872.3006	-0.199
872.4623	-0.0335
872.6241	-0.0194
872.7858	0.1759
872.9475	-0.0307
873.1092	-0.0972
873.2709	0.5117
873.4325	0.0315
873.5941	-0.0194
873.7557	0.0366
873.9173	-0.0566
874.0789	-0.2236
874.2404	-0.1076
874.4019	-0.3179
874.5634	-0.0276
874.7249	-0.1157
874.8863	-0.0668
875.0478	-0.094
875.2092	-0.2752
875.3706	-0.019
875.5319	-0.1911
875.6933	-0.0055
875.8546	-0.2415
876.0159	-0.0352
876.1772	-0.2465
876.3385	-0.2827
876.4997	-0.3991
876.6609	0.8612
876.8221	0.1112
876.9833	-0.6098
877.1445	0.0403
877.3056	0.2317
877.4667	-0.9163
877.6278	0.1745
877.7889	0.2709
877.9499	-0.6535
878.111	-0.1418
878.272	-0.0234
878.433	0.1895
878.5939	0.2885
878.7549	-0.1024
878.9158	0.0591
879.0767	0.3685
879.2376	0.2207
879.3984	-0.3183
879.5593	0.3777
879.7201	-0
879.8809	-0.0306
880.0417	-0.0539
880.2024	-0.0094
880.3632	-0.1563
880.5239	-0
880.6846	0.7366
880.8452	0.0816
881.0059	-0.0436
881.1665	-0
881.3271	-0.2897
881.4877	-0.0973
881.6483	-0
881.8088	-0.3534
881.9693	0.2123
882.1298	0.2123
882.2903	0.2123
