Data from MonoPyChalIsomerACN10uM450nmA_Absorbance_13-11-12-892.txt Node
Date: Tue Jul 09 13:11:12 BST 2024
User: LASERRRRR
Spectrometer: FLMT03099
Trigger mode: 0
Integration Time (sec): 2.000000E-1
Scans to average: 1
Electric dark correction enabled: true
Nonlinearity correction enabled: false
Boxcar width: 0
XAxis mode: Wavelengths
Number of Pixels in Spectrum: 3648
>>>>>Begin Spectral Data<<<<<
179.3399	-0.0483
179.5586	-0.0483
179.7771	-0.0483
179.9957	-0.2461
180.2143	-0
180.4329	0.059
180.6514	2.3997
180.8699	-0
181.0885	-0.035
181.307	0.1025
181.5255	0.2562
181.744	-0
181.9625	-0
182.181	-0
182.3994	-0
182.6179	-0.3172
182.8363	-0.5016
183.0547	0.1486
183.2732	0.1609
183.4916	0.1682
183.71	0.0682
183.9284	0.0341
184.1467	0.0766
184.3651	0.0513
184.5835	0.1288
184.8018	0.0556
185.0201	0.1665
185.2385	-0.0551
185.4568	-0.0915
185.6751	0.2147
185.8934	-0.0657
186.1117	0.1045
186.3299	-0.0685
186.5482	-0.012
186.7664	0.0743
186.9847	0.0506
187.2029	0.083
187.4211	0.0805
187.6393	0.0072
187.8575	0.1288
188.0757	0.1058
188.2939	0.0194
188.512	-0.0306
188.7302	0.0341
188.9483	0.1323
189.1665	0.0652
189.3846	0.1593
189.6027	0.0911
189.8208	0.1542
190.0389	0.2222
190.257	0.2222
190.475	0.234
190.6931	0.0937
190.9111	0.3438
191.1292	0.3514
191.3472	0.3386
191.5652	0.3806
191.7832	0.4131
192.0012	0.2911
192.2192	0.3136
192.4371	0.4238
192.6551	0.5316
192.873	0.3083
193.091	0.5029
193.3089	0.5607
193.5268	0.6562
193.7447	0.5905
193.9626	0.5116
194.1805	0.5135
194.3984	0.6824
194.6162	0.6143
194.8341	0.5169
195.0519	0.5634
195.2697	0.6781
195.4875	0.4997
195.7054	0.6086
195.9231	0.6396
196.1409	0.7163
196.3587	0.6579
196.5765	0.634
196.7942	0.7648
197.012	0.6657
197.2297	0.7268
197.4474	0.6773
197.6651	0.6921
197.8828	0.7668
198.1005	0.7721
198.3182	0.7491
198.5358	0.7768
198.7535	0.8293
198.9711	0.9277
199.1888	0.705
199.4064	0.8186
199.624	0.6696
199.8416	0.7749
200.0592	0.7236
200.2767	0.7762
200.4943	0.7635
200.7119	0.7716
200.9294	0.8678
201.1469	0.7974
201.3645	0.8399
201.582	0.9977
201.7995	0.8968
202.017	0.9426
202.2344	0.7903
202.4519	0.9339
202.6694	0.8913
202.8868	0.9179
203.1042	1.0436
203.3217	0.8957
203.5391	0.9646
203.7565	0.9002
203.9739	0.9376
204.1913	0.8052
204.4086	1.0393
204.626	0.9691
204.8433	0.8891
205.0607	0.9931
205.278	0.9656
205.4953	1.0545
205.7126	0.9107
205.9299	1.0715
206.1472	0.9477
206.3644	0.8846
206.5817	0.9302
206.7989	1.0782
207.0162	0.9626
207.2334	0.9785
207.4506	0.9874
207.6678	1.1043
207.885	1.0403
208.1022	1.0946
208.3194	1.1215
208.5365	0.9841
208.7537	1.0265
208.9708	0.999
209.1879	1.0604
209.405	1.032
209.6222	1.1563
209.8392	1.0948
210.0563	0.9695
210.2734	1.1254
210.4905	1.0515
210.7075	1.0074
210.9245	0.9974
211.1416	1.0223
211.3586	1.04
211.5756	1.1452
211.7926	1.0485
212.0096	1.0458
212.2265	1.0124
212.4435	1.0295
212.6604	1.1298
212.8774	0.9445
213.0943	0.9956
213.3112	1.0183
213.5281	1.0469
213.745	1.0444
213.9619	0.9698
214.1788	0.9247
214.3956	0.9575
214.6125	0.9311
214.8293	0.8653
215.0461	0.8789
215.2629	0.8721
215.4798	0.8468
215.6965	0.8303
215.9133	0.8325
216.1301	0.8289
216.3469	0.7942
216.5636	0.8209
216.7803	0.7878
216.9971	0.7726
217.2138	0.7494
217.4305	0.7369
217.6472	0.6856
217.8639	0.6738
218.0805	0.6045
218.2972	0.56
218.5138	0.5469
218.7305	0.5143
218.9471	0.477
219.1637	0.4429
219.3803	0.4388
219.5969	0.3961
219.8135	0.373
220.0301	0.36
220.2466	0.3659
220.4632	0.339
220.6797	0.3203
220.8962	0.3144
221.1127	0.2996
221.3292	0.3164
221.5457	0.2863
221.7622	0.289
221.9787	0.2894
222.1951	0.286
222.4116	0.2691
222.628	0.2738
222.8444	0.2707
223.0608	0.2715
223.2772	0.2794
223.4936	0.262
223.71	0.2816
223.9264	0.2907
224.1427	0.2634
224.3591	0.2899
224.5754	0.288
224.7917	0.2789
225.008	0.2728
225.2243	0.2814
225.4406	0.2876
225.6569	0.2826
225.8732	0.303
226.0894	0.279
226.3057	0.286
226.5219	0.2886
226.7381	0.2986
226.9543	0.2942
227.1705	0.2989
227.3867	0.2916
227.6029	0.2968
227.8191	0.2994
228.0352	0.3082
228.2513	0.31
228.4675	0.3148
228.6836	0.3193
228.8997	0.3206
229.1158	0.3162
229.3319	0.32
229.548	0.3258
229.764	0.3268
229.9801	0.3353
230.1961	0.3412
230.4121	0.3292
230.6282	0.3509
230.8442	0.3457
231.0602	0.3416
231.2761	0.3557
231.4921	0.3519
231.7081	0.3649
231.924	0.3655
232.14	0.3635
232.3559	0.3715
232.5718	0.3639
232.7877	0.363
233.0036	0.3696
233.2195	0.3761
233.4353	0.3568
233.6512	0.3823
233.867	0.3866
234.0829	0.39
234.2987	0.3833
234.5145	0.3783
234.7303	0.3881
234.9461	0.4
235.1619	0.3937
235.3776	0.3886
235.5934	0.3991
235.8091	0.4026
236.0249	0.3869
236.2406	0.3989
236.4563	0.4031
236.672	0.4001
236.8877	0.4024
237.1034	0.4163
237.319	0.4135
237.5347	0.4022
237.7503	0.414
237.966	0.4125
238.1816	0.4174
238.3972	0.4149
238.6128	0.4165
238.8284	0.4073
239.0439	0.4141
239.2595	0.4256
239.475	0.4156
239.6906	0.4266
239.9061	0.4121
240.1216	0.4114
240.3371	0.4178
240.5526	0.4239
240.7681	0.4072
240.9836	0.41
241.199	0.4069
241.4145	0.4049
241.6299	0.4007
241.8453	0.3938
242.0607	0.3845
242.2761	0.3842
242.4915	0.3799
242.7069	0.3811
242.9223	0.3707
243.1376	0.3653
243.353	0.3504
243.5683	0.3575
243.7836	0.3354
243.9989	0.3311
244.2142	0.3265
244.4295	0.321
244.6448	0.3221
244.86	0.3209
245.0753	0.2938
245.2905	0.2889
245.5057	0.2958
245.721	0.2885
245.9362	0.2705
246.1514	0.283
246.3665	0.2773
246.5817	0.2561
246.7969	0.2681
247.012	0.2611
247.2271	0.2614
247.4423	0.2575
247.6574	0.2582
247.8725	0.2567
248.0876	0.2415
248.3026	0.2454
248.5177	0.2359
248.7328	0.2252
248.9478	0.2239
249.1628	0.2401
249.3779	0.2348
249.5929	0.2281
249.8079	0.2262
250.0228	0.225
250.2378	0.2209
250.4528	0.2091
250.6677	0.2232
250.8827	0.2001
251.0976	0.2044
251.3125	0.2169
251.5274	0.202
251.7423	0.2019
251.9572	0.207
252.172	0.2024
252.3869	0.1988
252.6017	0.2029
252.8166	0.204
253.0314	0.2043
253.2462	0.2072
253.461	0.2001
253.6758	0.1958
253.8906	0.1912
254.1053	0.1981
254.3201	0.1989
254.5348	0.1939
254.7496	0.2077
254.9643	0.1949
255.179	0.2013
255.3937	0.1945
255.6083	0.1956
255.823	0.1903
256.0377	0.1911
256.2523	0.201
256.467	0.1957
256.6816	0.1925
256.8962	0.1983
257.1108	0.1943
257.3254	0.1929
257.54	0.1843
257.7545	0.1967
257.9691	0.192
258.1836	0.191
258.3981	0.2014
258.6127	0.2002
258.8272	0.1907
259.0417	0.1965
259.2561	0.1979
259.4706	0.1896
259.6851	0.1916
259.8995	0.1891
260.114	0.1876
260.3284	0.1993
260.5428	0.1935
260.7572	0.202
260.9716	0.1919
261.186	0.1954
261.4003	0.1991
261.6147	0.1895
261.829	0.2021
262.0433	0.2039
262.2577	0.2028
262.472	0.1962
262.6863	0.19
262.9005	0.1971
263.1148	0.1908
263.3291	0.1936
263.5433	0.1888
263.7576	0.1909
263.9718	0.1914
264.186	0.1878
264.4002	0.1861
264.6144	0.1787
264.8286	0.1775
265.0427	0.182
265.2569	0.1891
265.471	0.1734
265.6851	0.1733
265.8993	0.1715
266.1134	0.1662
266.3275	0.1785
266.5415	0.1729
266.7556	0.1851
266.9697	0.1781
267.1837	0.1799
267.3978	0.1833
267.6118	0.1861
267.8258	0.183
268.0398	0.1857
268.2538	0.1822
268.4677	0.1921
268.6817	0.1845
268.8957	0.1885
269.1096	0.1825
269.3235	0.1786
269.5374	0.1685
269.7514	0.1582
269.9652	0.1611
270.1791	0.1507
270.393	0.1528
270.6068	0.1352
270.8207	0.1408
271.0345	0.1423
271.2483	0.1467
271.4622	0.1423
271.676	0.1399
271.8897	0.1322
272.1035	0.1323
272.3173	0.1363
272.531	0.1385
272.7448	0.1326
272.9585	0.1344
273.1722	0.1311
273.3859	0.131
273.5996	0.1262
273.8133	0.1361
274.0269	0.1325
274.2406	0.1405
274.4542	0.1322
274.6679	0.1273
274.8815	0.1325
275.0951	0.1415
275.3087	0.1291
275.5223	0.1335
275.7358	0.1368
275.9494	0.1308
276.1629	0.13
276.3765	0.1365
276.59	0.1366
276.8035	0.1311
277.017	0.1283
277.2305	0.1381
277.444	0.1254
277.6574	0.1395
277.8709	0.1377
278.0843	0.1414
278.2978	0.1442
278.5112	0.1379
278.7246	0.137
278.938	0.1438
279.1513	0.1375
279.3647	0.1361
279.5781	0.1369
279.7914	0.1431
280.0047	0.1371
280.2181	0.1373
280.4314	0.138
280.6447	0.1403
280.8579	0.147
281.0712	0.1418
281.2845	0.1414
281.4977	0.1392
281.711	0.1449
281.9242	0.1437
282.1374	0.1506
282.3506	0.1376
282.5638	0.1435
282.7769	0.1511
282.9901	0.1446
283.2033	0.1502
283.4164	0.1528
283.6295	0.1563
283.8426	0.1517
284.0557	0.151
284.2688	0.1468
284.4819	0.1436
284.695	0.1522
284.908	0.148
285.1211	0.1573
285.3341	0.1483
285.5471	0.1546
285.7601	0.1508
285.9731	0.1582
286.1861	0.1596
286.3991	0.1468
286.612	0.1586
286.825	0.1643
287.0379	0.1561
287.2508	0.1591
287.4637	0.1613
287.6766	0.1486
287.8895	0.1647
288.1024	0.165
288.3152	0.1634
288.5281	0.1563
288.7409	0.1545
288.9538	0.166
289.1666	0.1671
289.3794	0.1661
289.5922	0.1623
289.8049	0.1606
290.0177	0.166
290.2304	0.1613
290.4432	0.168
290.6559	0.1627
290.8686	0.1725
291.0813	0.1692
291.294	0.1719
291.5067	0.1695
291.7194	0.1668
291.932	0.1631
292.1447	0.1719
292.3573	0.1622
292.5699	0.1727
292.7825	0.1671
292.9951	0.1708
293.2077	0.1614
293.4203	0.1599
293.6328	0.1745
293.8454	0.1656
294.0579	0.1674
294.2704	0.166
294.4829	0.1712
294.6954	0.1719
294.9079	0.1785
295.1204	0.1682
295.3328	0.1595
295.5453	0.1607
295.7577	0.161
295.9701	0.1638
296.1825	0.1764
296.3949	0.1566
296.6073	0.1757
296.8197	0.1707
297.0321	0.1698
297.2444	0.16
297.4567	0.1572
297.6691	0.1692
297.8814	0.1674
298.0937	0.1587
298.306	0.1616
298.5182	0.1619
298.7305	0.164
298.9428	0.164
299.155	0.1671
299.3672	0.1705
299.5794	0.1687
299.7916	0.1692
300.0038	0.1632
300.216	0.1758
300.4282	0.1684
300.6403	0.162
300.8525	0.1687
301.0646	0.1643
301.2767	0.1678
301.4888	0.163
301.7009	0.1716
301.913	0.1697
302.125	0.1639
302.3371	0.1714
302.5491	0.1653
302.7612	0.1715
302.9732	0.1674
303.1852	0.1599
303.3972	0.1708
303.6092	0.1665
303.8211	0.1615
304.0331	0.1542
304.245	0.1665
304.457	0.1635
304.6689	0.1667
304.8808	0.1576
305.0927	0.1605
305.3046	0.1628
305.5164	0.1539
305.7283	0.1532
305.9401	0.1563
306.152	0.1549
306.3638	0.1606
306.5756	0.1507
306.7874	0.1466
306.9992	0.1422
307.2109	0.143
307.4227	0.1441
307.6344	0.1337
307.8462	0.1399
308.0579	0.1397
308.2696	0.1391
308.4813	0.1329
308.693	0.1308
308.9046	0.1242
309.1163	0.1239
309.328	0.1193
309.5396	0.1206
309.7512	0.1206
309.9628	0.1197
310.1744	0.1223
310.386	0.1158
310.5976	0.1201
310.8091	0.1139
311.0207	0.1115
311.2322	0.1072
311.4437	0.1167
311.6552	0.1112
311.8667	0.1086
312.0782	0.1088
312.2897	0.1034
312.5012	0.107
312.7126	0.1017
312.924	0.0937
313.1355	0.0948
313.3469	0.0977
313.5583	0.1007
313.7696	0.0986
313.981	0.0992
314.1924	0.0954
314.4037	0.0971
314.6151	0.0942
314.8264	0.0962
315.0377	0.096
315.249	0.0972
315.4603	0.0928
315.6716	0.0967
315.8828	0.0903
316.0941	0.0936
316.3053	0.0867
316.5165	0.0865
316.7277	0.081
316.9389	0.0949
317.1501	0.0908
317.3613	0.0892
317.5724	0.083
317.7836	0.088
317.9947	0.0971
318.2058	0.0844
318.417	0.0858
318.6281	0.0882
318.8391	0.0823
319.0502	0.0897
319.2613	0.0963
319.4723	0.0929
319.6834	0.0904
319.8944	0.0976
320.1054	0.0929
320.3164	0.0925
320.5274	0.085
320.7383	0.0922
320.9493	0.0862
321.1602	0.0956
321.3712	0.0948
321.5821	0.084
321.793	0.0851
322.0039	0.0904
322.2148	0.0932
322.4257	0.0835
322.6365	0.0933
322.8474	0.0904
323.0582	0.1058
323.269	0.0869
323.4798	0.0913
323.6906	0.0947
323.9014	0.0877
324.1122	0.0897
324.3229	0.0926
324.5337	0.0841
324.7444	0.0859
324.9551	0.0889
325.1658	0.091
325.3765	0.0909
325.5872	0.0945
325.7979	0.0956
326.0085	0.0925
326.2192	0.0911
326.4298	0.1017
326.6404	0.0906
326.851	0.0933
327.0616	0.0919
327.2722	0.0927
327.4828	0.0946
327.6933	0.092
327.9039	0.1018
328.1144	0.0947
328.3249	0.0969
328.5354	0.091
328.7459	0.0919
328.9564	0.0927
329.1669	0.0965
329.3773	0.096
329.5878	0.0963
329.7982	0.0973
330.0086	0.0929
330.219	0.0977
330.4294	0.091
330.6398	0.0943
330.8502	0.0982
331.0605	0.097
331.2708	0.0983
331.4812	0.0979
331.6915	0.0935
331.9018	0.0954
332.1121	0.0977
332.3224	0.0975
332.5326	0.0871
332.7429	0.101
332.9531	0.0999
333.1633	0.102
333.3735	0.103
333.5837	0.0904
333.7939	0.1003
334.0041	0.1002
334.2143	0.0982
334.4244	0.0934
334.6346	0.0929
334.8447	0.1039
335.0548	0.0919
335.2649	0.0936
335.475	0.0922
335.685	0.0962
335.8951	0.0972
336.1051	0.0882
336.3152	0.0994
336.5252	0.0981
336.7352	0.0907
336.9452	0.0979
337.1552	0.0997
337.3652	0.0979
337.5751	0.0997
337.7851	0.0946
337.995	0.1002
338.2049	0.1001
338.4148	0.1057
338.6247	0.1002
338.8346	0.0981
339.0445	0.1019
339.2543	0.1056
339.4642	0.1028
339.674	0.1024
339.8838	0.1012
340.0936	0.1096
340.3034	0.1081
340.5132	0.1095
340.7229	0.1202
340.9327	0.1086
341.1424	0.1055
341.3522	0.1088
341.5619	0.1148
341.7716	0.1217
341.9813	0.1142
342.1909	0.1137
342.4006	0.1129
342.6102	0.1046
342.8199	0.1122
343.0295	0.1142
343.2391	0.1111
343.4487	0.1103
343.6583	0.1181
343.8679	0.112
344.0774	0.1167
344.287	0.1262
344.4965	0.1176
344.706	0.1204
344.9155	0.117
345.125	0.1263
345.3345	0.1194
345.544	0.1168
345.7534	0.1132
345.9629	0.1229
346.1723	0.1244
346.3817	0.1285
346.5911	0.1311
346.8005	0.1232
347.0099	0.125
347.2193	0.1246
347.4286	0.1266
347.638	0.1237
347.8473	0.1213
348.0566	0.1323
348.2659	0.1278
348.4752	0.1276
348.6845	0.1226
348.8937	0.1299
349.103	0.131
349.3122	0.1368
349.5214	0.1335
349.7306	0.1253
349.9398	0.1264
350.149	0.1346
350.3582	0.1263
350.5674	0.1367
350.7765	0.1394
350.9856	0.1308
351.1948	0.1351
351.4039	0.1334
351.613	0.1265
351.822	0.144
352.0311	0.1245
352.2402	0.1383
352.4492	0.1362
352.6582	0.1397
352.8672	0.1403
353.0762	0.1474
353.2852	0.1504
353.4942	0.1442
353.7032	0.1456
353.9121	0.148
354.1211	0.1447
354.33	0.1443
354.5389	0.1424
354.7478	0.145
354.9567	0.1422
355.1655	0.1531
355.3744	0.1558
355.5833	0.1491
355.7921	0.148
356.0009	0.1417
356.2097	0.148
356.4185	0.1445
356.6273	0.1596
356.8361	0.1389
357.0448	0.1594
357.2536	0.1511
357.4623	0.1529
357.671	0.1546
357.8797	0.1601
358.0884	0.1577
358.2971	0.1634
358.5057	0.1639
358.7144	0.1589
358.923	0.1744
359.1316	0.1689
359.3402	0.173
359.5488	0.1657
359.7574	0.177
359.966	0.1651
360.1746	0.1778
360.3831	0.1758
360.5916	0.1853
360.8002	0.182
361.0087	0.1766
361.2172	0.1726
361.4256	0.1807
361.6341	0.1741
361.8426	0.1794
362.051	0.1821
362.2594	0.1846
362.4678	0.1788
362.6762	0.1843
362.8846	0.1888
363.093	0.1858
363.3014	0.1887
363.5097	0.1832
363.718	0.1984
363.9264	0.1824
364.1347	0.1971
364.343	0.186
364.5513	0.19
364.7595	0.193
364.9678	0.1994
365.176	0.1922
365.3842	0.1855
365.5925	0.2017
365.8007	0.1965
366.0089	0.2018
366.217	0.2003
366.4252	0.2092
366.6333	0.2016
366.8415	0.2062
367.0496	0.2056
367.2577	0.2087
367.4658	0.2093
367.6739	0.1935
367.882	0.208
368.09	0.2075
368.2981	0.2262
368.5061	0.2115
368.7141	0.2099
368.9221	0.2042
369.1301	0.2287
369.3381	0.2195
369.5461	0.2217
369.754	0.2192
369.962	0.2173
370.1699	0.2241
370.3778	0.2245
370.5857	0.2257
370.7936	0.2286
371.0015	0.2282
371.2093	0.2147
371.4172	0.2247
371.625	0.2244
371.8328	0.2365
372.0406	0.2423
372.2484	0.226
372.4562	0.2359
372.664	0.2375
372.8717	0.2214
373.0795	0.2335
373.2872	0.2456
373.4949	0.2321
373.7026	0.2314
373.9103	0.2333
374.118	0.2371
374.3256	0.2285
374.5333	0.2362
374.7409	0.238
374.9485	0.2439
375.1561	0.2403
375.3637	0.2366
375.5713	0.2391
375.7789	0.2328
375.9864	0.2388
376.194	0.238
376.4015	0.2539
376.609	0.2472
376.8165	0.2436
377.024	0.2342
377.2315	0.2432
377.4389	0.2444
377.6464	0.2419
377.8538	0.2594
378.0612	0.2421
378.2686	0.251
378.476	0.2546
378.6834	0.2608
378.8908	0.2541
379.0981	0.2722
379.3055	0.2609
379.5128	0.2413
379.7201	0.2532
379.9274	0.2642
380.1347	0.2651
380.342	0.2637
380.5492	0.2632
380.7565	0.2649
380.9637	0.2696
381.1709	0.2647
381.3781	0.249
381.5853	0.2609
381.7925	0.2718
381.9997	0.2671
382.2068	0.2734
382.4139	0.2653
382.6211	0.2658
382.8282	0.2656
383.0353	0.2757
383.2424	0.2591
383.4494	0.2833
383.6565	0.2622
383.8635	0.2858
384.0706	0.2734
384.2776	0.2618
384.4846	0.2776
384.6916	0.2791
384.8986	0.282
385.1055	0.2756
385.3125	0.2819
385.5194	0.2787
385.7263	0.2838
385.9333	0.271
386.1402	0.2687
386.347	0.3051
386.5539	0.2777
386.7608	0.2668
386.9676	0.277
387.1744	0.2773
387.3813	0.2654
387.5881	0.2713
387.7948	0.2722
388.0016	0.2776
388.2084	0.2833
388.4151	0.2678
388.6219	0.2633
388.8286	0.2797
389.0353	0.2642
389.242	0.2687
389.4487	0.264
389.6553	0.2825
389.862	0.2566
390.0686	0.2645
390.2753	0.2715
390.4819	0.2662
390.6885	0.2638
390.8951	0.2541
391.1016	0.268
391.3082	0.2693
391.5147	0.2692
391.7213	0.2642
391.9278	0.2604
392.1343	0.2517
392.3408	0.24
392.5473	0.2613
392.7537	0.2639
392.9602	0.2414
393.1666	0.2528
393.373	0.2462
393.5794	0.2414
393.7858	0.2391
393.9922	0.2461
394.1986	0.2412
394.4049	0.2549
394.6113	0.2483
394.8176	0.2283
395.0239	0.2391
395.2302	0.2477
395.4365	0.2465
395.6428	0.2438
395.8491	0.2359
396.0553	0.2303
396.2615	0.2268
396.4678	0.2412
396.674	0.2407
396.8802	0.2271
397.0863	0.2255
397.2925	0.2419
397.4987	0.2304
397.7048	0.2363
397.9109	0.23
398.117	0.2361
398.3231	0.2408
398.5292	0.2275
398.7353	0.2308
398.9413	0.2393
399.1474	0.2277
399.3534	0.2281
399.5594	0.2248
399.7654	0.228
399.9714	0.2319
400.1774	0.2244
400.3833	0.2266
400.5893	0.2218
400.7952	0.2213
401.0011	0.2299
401.207	0.2307
401.4129	0.2199
401.6188	0.2297
401.8247	0.2253
402.0305	0.2192
402.2364	0.2325
402.4422	0.2326
402.648	0.2381
402.8538	0.2323
403.0596	0.2139
403.2654	0.2333
403.4711	0.2293
403.6768	0.2398
403.8826	0.2221
404.0883	0.2308
404.294	0.2343
404.4997	0.2374
404.7054	0.2239
404.911	0.2427
405.1167	0.232
405.3223	0.2304
405.5279	0.2371
405.7335	0.2338
405.9391	0.2335
406.1447	0.2146
406.3502	0.2249
406.5558	0.227
406.7613	0.2293
406.9668	0.2354
407.1724	0.237
407.3778	0.2326
407.5833	0.2285
407.7888	0.2406
407.9942	0.2372
408.1997	0.2269
408.4051	0.2356
408.6105	0.2337
408.8159	0.237
409.0213	0.2138
409.2267	0.236
409.432	0.2234
409.6374	0.2273
409.8427	0.2397
410.048	0.2273
410.2533	0.2311
410.4586	0.2373
410.6639	0.2269
410.8691	0.2239
411.0744	0.2383
411.2796	0.2286
411.4848	0.2099
411.69	0.2322
411.8952	0.2283
412.1004	0.2153
412.3056	0.2346
412.5107	0.2343
412.7158	0.2288
412.921	0.2196
413.1261	0.2184
413.3312	0.2417
413.5362	0.2294
413.7413	0.2303
413.9464	0.2344
414.1514	0.2132
414.3564	0.2374
414.5614	0.2352
414.7664	0.2398
414.9714	0.2189
415.1764	0.2206
415.3813	0.2225
415.5863	0.2301
415.7912	0.2275
415.9961	0.2303
416.201	0.2326
416.4059	0.2285
416.6108	0.2205
416.8156	0.2281
417.0205	0.226
417.2253	0.2264
417.4301	0.2276
417.6349	0.225
417.8397	0.219
418.0445	0.2224
418.2492	0.2166
418.454	0.2182
418.6587	0.2181
418.8634	0.2138
419.0681	0.2184
419.2728	0.2307
419.4775	0.2121
419.6822	0.2128
419.8868	0.2243
420.0915	0.2144
420.2961	0.2116
420.5007	0.2124
420.7053	0.21
420.9099	0.2123
421.1144	0.2131
421.319	0.2049
421.5235	0.2197
421.728	0.1967
421.9325	0.2101
422.137	0.1977
422.3415	0.2142
422.546	0.2068
422.7504	0.1988
422.9549	0.2117
423.1593	0.1993
423.3637	0.2016
423.5681	0.2196
423.7725	0.1968
423.9769	0.1955
424.1812	0.2071
424.3856	0.1989
424.5899	0.1945
424.7942	0.1939
424.9985	0.1933
425.2028	0.1859
425.4071	0.185
425.6113	0.1926
425.8156	0.1923
426.0198	0.191
426.224	0.1808
426.4282	0.1812
426.6324	0.1816
426.8366	0.1874
427.0407	0.1881
427.2449	0.1913
427.449	0.1779
427.6531	0.1784
427.8572	0.175
428.0613	0.1647
428.2654	0.1801
428.4694	0.1844
428.6735	0.178
428.8775	0.1745
429.0815	0.1772
429.2855	0.1735
429.4895	0.1625
429.6935	0.1573
429.8975	0.1655
430.1014	0.1569
430.3053	0.1679
430.5093	0.1564
430.7132	0.1619
430.9171	0.1615
431.1209	0.1519
431.3248	0.1562
431.5286	0.1516
431.7325	0.1512
431.9363	0.1491
432.1401	0.1516
432.3439	0.1365
432.5477	0.1521
432.7514	0.1472
432.9552	0.1383
433.1589	0.1292
433.3627	0.1281
433.5664	0.135
433.7701	0.1265
433.9737	0.1272
434.1774	0.1311
434.3811	0.1222
434.5847	0.1255
434.7883	0.1259
434.9919	0.1142
435.1955	0.1117
435.3991	0.118
435.6027	0.1248
435.8062	0.1115
436.0098	0.1184
436.2133	0.1053
436.4168	0.1178
436.6203	0.1076
436.8238	0.1019
437.0272	0.1083
437.2307	0.1073
437.4341	0.1091
437.6375	0.1121
437.841	0.0999
438.0443	0.1033
438.2477	0.0936
438.4511	0.1051
438.6545	0.0858
438.8578	0.0881
439.0611	0.0779
439.2644	0.102
439.4677	0.0887
439.671	0.0804
439.8743	0.0911
440.0775	0.0779
440.2808	0.0703
440.484	0.09
440.6872	0.0677
440.8904	0.0769
441.0936	0.0738
441.2967	0.0723
441.4999	0.0796
441.703	0.0678
441.9062	0.0759
442.1093	0.0641
442.3124	0.0574
442.5155	0.0637
442.7185	0.0573
442.9216	0.0579
443.1246	0.0622
443.3276	0.0599
443.5307	0.0529
443.7337	0.0716
443.9366	0.0671
444.1396	0.0578
444.3426	0.0574
444.5455	0.0456
444.7484	0.0473
444.9513	0.0557
445.1542	0.0616
445.3571	0.0456
445.56	0.047
445.7628	0.0408
445.9657	0.0498
446.1685	0.0436
446.3713	0.038
446.5741	0.0459
446.7769	0.0467
446.9797	0.0343
447.1824	0.0511
447.3852	0.0414
447.5879	0.0437
447.7906	0.0333
447.9933	0.0371
448.196	0.0368
448.3986	0.035
448.6013	0.0302
448.8039	0.0404
449.0066	0.0416
449.2092	0.0333
449.4118	0.0222
449.6143	0.0216
449.8169	0.0134
450.0195	0.0218
450.222	0.0087
450.4245	0.0188
450.627	0.0216
450.8295	0.0238
451.032	0.0281
451.2345	0.0284
451.4369	0.0373
451.6394	0.019
451.8418	0.0224
452.0442	0.0241
452.2466	0.0243
452.449	0.0301
452.6513	0.0211
452.8537	0.0219
453.056	0.0188
453.2583	0.0186
453.4607	0.0219
453.663	0.0222
453.8652	0.0129
454.0675	0.014
454.2697	0.0161
454.472	0.0132
454.6742	0.0199
454.8764	0.0249
455.0786	0.0194
455.2808	0.0183
455.4829	0.0068
455.6851	0.0046
455.8872	0.0163
456.0893	0.0081
456.2915	0.0045
456.4935	0.0103
456.6956	0.0184
456.8977	0.0154
457.0997	0.0052
457.3018	0.0101
457.5038	0.0126
457.7058	-0.0048
457.9078	0.0083
458.1098	0.0089
458.3117	0.0034
458.5137	0.0132
458.7156	0.0142
458.9175	-0.0046
459.1194	0.0006
459.3213	0.0062
459.5232	0.0123
459.725	0.0003
459.9269	0.0046
460.1287	0.0095
460.3305	0
460.5323	0.0104
460.7341	0.0011
460.9359	-0.0081
461.1376	0.0011
461.3394	0.0039
461.5411	0.0053
461.7428	0.0031
461.9445	0.0105
462.1462	0.0015
462.3479	-0.0032
462.5495	0.0045
462.7512	0.0005
462.9528	-0.0022
463.1544	-0.0057
463.356	0.0043
463.5576	-0.0026
463.7592	-0.0045
463.9607	0.0024
464.1623	0.0073
464.3638	0.0105
464.5653	0.0082
464.7668	-0.0034
464.9683	0.0034
465.1697	-0.0035
465.3712	-0.0039
465.5726	0.0081
465.7741	-0.0033
465.9755	-0.0016
466.1769	-0.016
466.3782	-0.0004
466.5796	-0.004
466.7809	-0.0001
466.9823	-0.0064
467.1836	-0.0032
467.3849	0.006
467.5862	-0.0111
467.7875	0.002
467.9887	0.001
468.19	-0.0053
468.3912	-0.0063
468.5924	0.0011
468.7936	-0.0046
468.9948	0.0053
469.196	0.0007
469.3972	0.0087
469.5983	0.0105
469.7994	-0.0039
470.0006	-0.0138
470.2017	0.0021
470.4027	-0.005
470.6038	-0.0009
470.8049	-0.0056
471.0059	0.0072
471.2069	0.0058
471.408	-0.0012
471.6089	-0.0009
471.8099	-0.001
472.0109	-0.0033
472.2119	-0.0183
472.4128	-0.0008
472.6137	-0.0044
472.8146	-0.0103
473.0155	-0.0077
473.2164	-0.0183
473.4173	-0.0136
473.6181	0.0031
473.819	-0.0037
474.0198	0.0007
474.2206	-0.0024
474.4214	-0.0044
474.6222	-0.0017
474.8229	-0.016
475.0237	-0.0022
475.2244	0.0026
475.4251	-0.0099
475.6258	0.0042
475.8265	-0.0024
476.0272	-0.0013
476.2278	-0.0039
476.4285	0.003
476.6291	-0.0069
476.8297	-0.0122
477.0303	-0.0078
477.2309	-0.0043
477.4315	0.001
477.632	-0.0023
477.8326	-0.0047
478.0331	-0.0095
478.2336	0.004
478.4341	-0.0131
478.6346	-0.005
478.8351	-0.0086
479.0355	-0.0037
479.236	-0.0058
479.4364	-0.0066
479.6368	0.0017
479.8372	-0.0076
480.0376	-0.0062
480.2379	0.0024
480.4383	-0.001
480.6386	-0.011
480.8389	-0.0132
481.0392	-0.0072
481.2395	-0.0163
481.4398	-0.005
481.6401	-0.0025
481.8403	-0.0043
482.0405	-0.0065
482.2408	-0.0035
482.441	-0
482.6411	0.0002
482.8413	-0.0028
483.0415	-0.0125
483.2416	-0.002
483.4417	-0.0058
483.6419	0.0003
483.8419	-0.0099
484.042	-0.0075
484.2421	-0.0056
484.4422	-0.0149
484.6422	-0.0127
484.8422	-0.0052
485.0422	-0.0048
485.2422	-0.0023
485.4422	-0.0038
485.6422	-0.0097
485.8421	-0.0084
486.042	-0.0013
486.242	-0.0064
486.4419	-0.0048
486.6417	-0.0091
486.8416	-0.0045
487.0415	-0.007
487.2413	-0.0046
487.4411	-0.0025
487.641	-0.0036
487.8408	-0.0049
488.0405	-0.0019
488.2403	-0.0062
488.4401	-0.0111
488.6398	-0.0074
488.8395	-0.0099
489.0392	-0.0097
489.2389	-0.0047
489.4386	-0.005
489.6383	-0.0073
489.8379	-0.0101
490.0376	-0.0058
490.2372	-0.0017
490.4368	-0.0125
490.6364	-0.0065
490.836	-0.009
491.0355	-0.0046
491.2351	-0.0098
491.4346	-0.0062
491.6341	-0.0044
491.8336	-0.016
492.0331	-0.012
492.2326	-0.0098
492.432	-0.0029
492.6315	-0.0044
492.8309	-0.0097
493.0303	-0.0059
493.2297	-0.0047
493.4291	-0.006
493.6284	-0.0039
493.8278	-0.0102
494.0271	-0.003
494.2264	-0.0028
494.4257	-0.0036
494.625	-0.0007
494.8243	-0.0075
495.0236	-0.0156
495.2228	-0.0074
495.422	-0.0069
495.6213	-0.0076
495.8205	-0.0023
496.0196	-0.006
496.2188	-0.0002
496.418	-0.0049
496.6171	-0.0052
496.8162	-0.0027
497.0153	0.0003
497.2144	-0.0065
497.4135	-0.0045
497.6126	-0.0031
497.8116	-0.0022
498.0107	-0.0037
498.2097	0.0018
498.4087	-0.0007
498.6077	-0.004
498.8067	-0.0088
499.0056	-0.0044
499.2046	0.0039
499.4035	-0.0103
499.6024	-0.0026
499.8013	0.001
500.0002	-0.0069
500.199	-0.0049
500.3979	-0.0047
500.5967	-0.0062
500.7956	-0.0135
500.9944	-0.0021
501.1932	-0.0072
501.3919	-0.0151
501.5907	-0.0103
501.7895	-0.002
501.9882	-0.0094
502.1869	-0.0044
502.3856	-0.0022
502.5843	-0.0135
502.783	-0.0097
502.9816	-0.0033
503.1803	-0.0058
503.3789	-0.0057
503.5775	-0.0037
503.7761	-0.0059
503.9747	-0.0049
504.1732	-0.0071
504.3718	-0.0024
504.5703	-0.0068
504.7689	-0.0007
504.9674	-0.0056
505.1658	-0.0078
505.3643	-0.003
505.5628	-0.0041
505.7612	-0.0084
505.9597	-0.0099
506.1581	-0.0048
506.3565	-0.0045
506.5549	-0.0054
506.7532	-0.0065
506.9516	-0.0056
507.1499	-0.0024
507.3482	-0.0014
507.5465	-0.0003
507.7448	-0.004
507.9431	-0.0051
508.1414	-0.01
508.3396	-0.0059
508.5379	-0.0053
508.7361	-0.0054
508.9343	-0.0064
509.1325	-0.0047
509.3306	-0.0016
509.5288	-0.0057
509.7269	-0.0092
509.9251	-0.0056
510.1232	-0.0026
510.3213	-0.0092
510.5193	0.0014
510.7174	0.0013
510.9154	-0.0041
511.1135	-0.0064
511.3115	-0.0097
511.5095	-0.0096
511.7075	0.0018
511.9055	-0.0071
512.1034	-0.007
512.3014	-0.004
512.4993	-0.0064
512.6972	-0.0057
512.8951	-0.0018
513.093	-0.0077
513.2908	0.0001
513.4887	-0
513.6865	-0.002
513.8844	-0.0033
514.0822	-0.0014
514.2799	-0.0123
514.4777	-0.0065
514.6755	-0.0049
514.8732	-0.0086
515.0709	-0.0048
515.2687	-0.0077
515.4664	-0.0062
515.664	-0.0121
515.8617	-0.0048
516.0594	-0.0027
516.257	-0.0036
516.4546	-0.0047
516.6522	-0.0033
516.8498	-0.0104
517.0474	0.0017
517.2449	-0.0113
517.4425	0.0012
517.64	-0.0068
517.8375	-0.0096
518.035	-0.0095
518.2325	-0.0071
518.43	-0.001
518.6274	-0.0137
518.8249	-0.0092
519.0223	-0.0103
519.2197	-0.0052
519.4171	-0.0061
519.6145	-0.0076
519.8118	-0.0129
520.0092	0.0004
520.2065	-0.0089
520.4038	-0.0068
520.6011	-0.0045
520.7984	-0.0092
520.9956	-0.0085
521.1929	-0.0099
521.3901	-0.0124
521.5874	-0.0101
521.7846	0.0001
521.9818	-0.0039
522.1789	-0.0034
522.3761	-0.0138
522.5732	-0.0083
522.7704	-0.009
522.9675	-0.0052
523.1646	-0.002
523.3617	-0.0019
523.5587	-0.0061
523.7558	0.0015
523.9528	-0.0062
524.1498	-0.0132
524.3468	-0.0036
524.5438	-0.0073
524.7408	-0.0079
524.9378	-0.0099
525.1347	-0.0017
525.3316	-0.0078
525.5285	-0.0064
525.7254	-0.0038
525.9223	0.002
526.1192	-0.0057
526.316	-0.0034
526.5129	0.0002
526.7097	-0.0083
526.9065	-0.001
527.1033	-0.0036
527.3	-0.0049
527.4968	-0.0148
527.6935	-0.0008
527.8903	-0.0088
528.087	-0.0141
528.2837	-0.0015
528.4804	-0.0073
528.677	-0.0046
528.8737	-0.0087
529.0703	-0.0008
529.2669	0.0067
529.4635	-0.0097
529.6601	-0.0083
529.8567	-0.0069
530.0532	-0.0041
530.2498	-0.0048
530.4463	-0.0075
530.6428	-0.0056
530.8393	-0.0058
531.0358	-0.0088
531.2322	-0.0105
531.4287	-0.0139
531.6251	-0.0022
531.8215	0.0007
532.0179	-0.007
532.2143	-0.0027
532.4107	-0.0051
532.607	-0.0096
532.8034	-0.0073
532.9997	-0.0112
533.196	-0.011
533.3923	0.0042
533.5886	-0.0008
533.7848	0.0036
533.9811	-0.0046
534.1773	-0.0031
534.3735	0
534.5697	-0.0033
534.7659	-0.0032
534.9621	0.0012
535.1582	-0.0037
535.3544	-0.0052
535.5505	-0.0059
535.7466	-0.0088
535.9427	-0.0031
536.1387	0.0011
536.3348	-0.0033
536.5308	-0.0062
536.7269	-0.0043
536.9229	-0.0018
537.1189	-0.0114
537.3148	-0.0035
537.5108	0.0014
537.7068	-0.0074
537.9027	-0.006
538.0986	-0.0014
538.2945	0.0017
538.4904	-0.0113
538.6863	-0.0094
538.8821	-0.0003
539.078	-0.0081
539.2738	-0.0105
539.4696	-0.0067
539.6654	-0.0044
539.8611	0.0007
540.0569	-0.0044
540.2526	0.0006
540.4484	0.0086
540.6441	0.0012
540.8398	-0.0131
541.0355	-0.0052
541.2311	-0.001
541.4268	0.0035
541.6224	-0.0008
541.818	-0.0083
542.0136	-0.005
542.2092	-0.0061
542.4048	-0.0062
542.6003	-0.0074
542.7959	-0.0033
542.9914	-0.0081
543.1869	-0.0106
543.3824	-0.0064
543.5779	-0.0141
543.7734	-0.0116
543.9688	-0.0138
544.1642	-0.0047
544.3596	-0.0077
544.555	-0.0032
544.7504	-0.0064
544.9458	-0.0065
545.1411	0.0047
545.3365	-0.0029
545.5318	0.0058
545.7271	-0.0049
545.9224	0.0037
546.1177	-0.0059
546.3129	-0.0011
546.5081	-0.0021
546.7034	-0.0089
546.8986	-0.003
547.0938	-0.005
547.289	0.0021
547.4841	-0.0063
547.6793	-0.0057
547.8744	-0.0044
548.0695	-0.0047
548.2646	-0.0063
548.4597	0.0058
548.6548	0.0008
548.8498	-0.0063
549.0448	-0.0004
549.2399	-0.005
549.4349	0.0003
549.6298	-0.0043
549.8248	-0.0024
550.0198	-0.0013
550.2147	-0.002
550.4096	-0.0108
550.6045	-0.0053
550.7994	0.0036
550.9943	0.0027
551.1892	-0.0069
551.384	-0.0033
551.5788	-0.0118
551.7737	-0.0021
551.9685	-0.0015
552.1632	-0.0068
552.358	-0.0116
552.5528	-0.0052
552.7475	-0.0076
552.9422	-0.011
553.1369	-0.0043
553.3316	-0.0034
553.5263	-0.0033
553.7209	-0.0066
553.9156	-0.0081
554.1102	-0.0087
554.3048	-0.0052
554.4994	0.0016
554.694	0.003
554.8885	-0.0096
555.0831	0.0015
555.2776	-0.0012
555.4721	-0.009
555.6666	-0.007
555.8611	-0.0021
556.0555	-0.0084
556.25	-0.005
556.4444	-0.0036
556.6388	-0.0089
556.8332	-0.0025
557.0276	-0.0091
557.222	-0.0077
557.4163	0.0003
557.6107	-0.0079
557.805	-0.0012
557.9993	-0.0068
558.1936	-0.0065
558.3879	0.001
558.5821	-0.0039
558.7764	-0.0083
558.9706	-0.0038
559.1648	-0.0047
559.359	-0.0139
559.5532	-0.0073
559.7473	-0.0078
559.9415	-0.0082
560.1356	-0.0054
560.3297	-0.0054
560.5238	-0.0072
560.7179	-0.0055
560.9119	0.0051
561.106	0.0004
561.3	0.0001
561.494	-0.0093
561.688	-0.002
561.882	-0.0006
562.076	-0.0058
562.2699	-0.0054
562.4639	-0.0026
562.6578	-0.0046
562.8517	0.0007
563.0456	-0.0043
563.2395	-0.0097
563.4333	-0.0029
563.6272	-0.0077
563.821	-0.0037
564.0148	-0.0018
564.2086	-0.0028
564.4024	-0.0049
564.5961	-0.0027
564.7899	-0.0016
564.9836	0.0022
565.1773	-0.0089
565.371	-0.0058
565.5647	-0.0063
565.7584	-0.0003
565.952	-0.0009
566.1456	-0.0039
566.3393	-0.005
566.5329	-0.0019
566.7264	0.0011
566.92	-0.0021
567.1136	-0.0048
567.3071	0.0013
567.5006	0
567.6941	-0.0007
567.8876	-0.0096
568.0811	-0.008
568.2745	-0.0081
568.468	-0.0023
568.6614	-0.0085
568.8548	-0.0051
569.0482	-0.0066
569.2416	-0.0064
569.4349	0
569.6283	-0.0027
569.8216	-0.0086
570.0149	-0.0075
570.2082	-0.0016
570.4015	-0.0026
570.5947	-0.0052
570.788	-0.0049
570.9812	-0.0013
571.1744	-0.011
571.3676	-0.0047
571.5608	-0.006
571.754	-0.0048
571.9471	-0.0037
572.1402	-0.0005
572.3333	-0.0011
572.5264	0
572.7195	-0.0015
572.9126	-0.0016
573.1057	-0.0024
573.2987	0.0001
573.4917	-0.0068
573.6847	-0.002
573.8777	-0.004
574.0707	-0.0009
574.2636	-0.0024
574.4566	-0.0056
574.6495	-0.001
574.8424	-0.0001
575.0353	-0.003
575.2281	-0.0029
575.421	-0.0057
575.6138	-0.0012
575.8067	-0.0038
575.9995	0.0003
576.1923	-0.0062
576.385	-0.008
576.5778	0.0005
576.7706	0.0021
576.9633	-0.0067
577.156	0.0016
577.3487	0.0003
577.5414	-0.0031
577.734	0.0051
577.9267	0.0015
578.1193	-0.0051
578.3119	0.0001
578.5045	-0.0051
578.6971	0.0064
578.8897	-0.0065
579.0822	-0.002
579.2747	0.0056
579.4673	-0.0033
579.6598	-0.0019
579.8522	-0.0022
580.0447	-0.0015
580.2372	0.0032
580.4296	0.0045
580.622	-0.0003
580.8144	-0.0028
581.0068	0.0025
581.1992	0.0034
581.3915	-0.002
581.5839	-0.0027
581.7762	-0.002
581.9685	-0.0019
582.1608	-0.0081
582.353	0.0042
582.5453	-0.0016
582.7375	0.0048
582.9298	-0.0051
583.122	0.0007
583.3142	-0.0024
583.5063	-0.0017
583.6985	-0.004
583.8906	-0.0072
584.0827	-0.0048
584.2749	-0.0095
584.4669	-0.0053
584.659	-0.0088
584.8511	-0.0036
585.0431	-0.0044
585.2352	-0.0057
585.4272	-0.0094
585.6192	-0.0053
585.8111	-0.0042
586.0031	-0.0032
586.195	-0.0065
586.387	-0.0009
586.5789	-0.0043
586.7708	-0.0042
586.9627	-0.0017
587.1545	-0.0033
587.3464	-0.0049
587.5382	-0.0059
587.73	-0.0112
587.9218	-0.0058
588.1136	-0.0035
588.3053	-0.0023
588.4971	-0.009
588.6888	-0.0016
588.8805	-0.0025
589.0722	-0.0012
589.2639	-0.0039
589.4556	0.0011
589.6472	-0.0056
589.8389	-0.0021
590.0305	-0.0038
590.2221	-0.0027
590.4137	-0.0031
590.6052	-0.0065
590.7968	-0.0014
590.9883	-0.0052
591.1798	-0.0054
591.3713	-0.0024
591.5628	-0.0065
591.7543	-0.0001
591.9458	0.0001
592.1372	-0.0003
592.3286	0.0009
592.52	-0.0076
592.7114	0.0018
592.9028	-0.0039
593.0941	-0.003
593.2855	-0.0016
593.4768	-0.0016
593.6681	0.0029
593.8594	0.003
594.0506	0.0013
594.2419	0.0014
594.4331	-0.003
594.6244	-0.0024
594.8156	-0.0107
595.0067	-0.003
595.1979	-0.0038
595.3891	-0.0026
595.5802	-0.0046
595.7713	0.0016
595.9624	-0.0001
596.1535	0.0028
596.3446	0
596.5357	-0.0024
596.7267	-0.0051
596.9177	-0.0006
597.1087	-0.0029
597.2997	0.0037
597.4907	-0.0037
597.6817	-0.0016
597.8726	-0.004
598.0635	-0.0033
598.2544	-0.005
598.4453	-0.0024
598.6362	-0.0038
598.827	-0.0042
599.0179	-0.0038
599.2087	-0.0093
599.3995	-0.0061
599.5903	-0.0037
599.7811	-0.0056
599.9718	-0.0024
600.1626	0.0001
600.3533	-0.001
600.544	-0.0057
600.7347	-0.0034
600.9254	-0.002
601.116	-0.0039
601.3067	-0.0055
601.4973	-0.0037
601.6879	0.0027
601.8785	-0.0055
602.0691	-0.0066
602.2596	0.0013
602.4502	-0.0064
602.6407	-0.0012
602.8312	-0.0054
603.0217	-0.0038
603.2122	-0.0045
603.4027	0.0009
603.5931	-0.0038
603.7835	-0.0031
603.9739	-0.0014
604.1643	-0.0018
604.3547	0.0005
604.5451	0.0012
604.7354	0.0015
604.9257	-0.0042
605.116	-0.0053
605.3063	0.0047
605.4966	-0.0024
605.6869	0.0012
605.8771	0.0002
606.0673	-0.0028
606.2575	0.0006
606.4477	-0.0011
606.6379	-0.0055
606.8281	-0.0067
607.0182	-0.0115
607.2083	-0.0042
607.3985	-0.0085
607.5885	-0.001
607.7786	-0.0009
607.9687	0
608.1587	-0.0081
608.3488	-0.0035
608.5388	0.0035
608.7288	-0.0053
608.9187	0.0001
609.1087	-0.0018
609.2986	0.0009
609.4886	-0.0015
609.6785	-0.0024
609.8684	-0.002
610.0582	-0.0033
610.2481	-0.0042
610.4379	0.0001
610.6278	0.0018
610.8176	0.0035
611.0074	-0.0039
611.1971	-0.0012
611.3869	-0.006
611.5766	-0.0017
611.7664	0.0011
611.9561	-0.0016
612.1458	0.0041
612.3354	-0.0033
612.5251	-0.0051
612.7147	-0.0039
612.9044	-0.0039
613.094	0.0034
613.2836	-0.0018
613.4731	-0.0066
613.6627	-0.0062
613.8522	-0.002
614.0417	-0.0054
614.2313	0.0008
614.4207	-0.0008
614.6102	-0.0008
614.7997	-0.0017
614.9891	-0.0035
615.1785	-0.0053
615.3679	-0.0014
615.5573	-0.0026
615.7467	0.0022
615.9361	-0.0021
616.1254	-0.002
616.3147	-0.0001
616.504	-0.0062
616.6933	0.0006
616.8826	-0.0091
617.0718	-0.0026
617.2611	0
617.4503	0.0007
617.6395	-0.0051
617.8287	-0.0031
618.0179	0.0022
618.207	-0.0047
618.3961	-0.0045
618.5853	-0.0065
618.7744	-0.0056
618.9634	0.0039
619.1525	-0.0025
619.3416	-0.0111
619.5306	-0.0023
619.7196	0.0018
619.9086	0.0006
620.0976	-0.0004
620.2866	0.0025
620.4755	-0.0051
620.6645	-0.0023
620.8534	-0.0006
621.0423	-0.006
621.2312	-0.009
621.42	0.0009
621.6089	0.0022
621.7977	-0.0063
621.9865	0.0016
622.1753	-0.0007
622.3641	0.0067
622.5529	0
622.7416	-0.0045
622.9303	0.0037
623.1191	-0.0004
623.3078	0.0003
623.4964	-0.0001
623.6851	0.0014
623.8737	0.0003
624.0624	0.0043
624.251	0.0005
624.4396	0.0009
624.6282	0.0012
624.8167	0.0014
625.0053	0.0001
625.1938	0.0014
625.3823	0.0019
625.5708	-0.0036
625.7593	-0.001
625.9477	-0.0052
626.1362	-0.0007
626.3246	-0.0013
626.513	-0.0048
626.7014	-0.0006
626.8898	-0.0033
627.0781	-0.0021
627.2665	-0.0009
627.4548	-0.0072
627.6431	-0.0054
627.8314	-0.0018
628.0197	-0.0005
628.2079	-0.0019
628.3962	0.0029
628.5844	0.005
628.7726	-0.0014
628.9608	0.0046
629.1489	0.0005
629.3371	0.0048
629.5252	0.0034
629.7134	0.0048
629.9015	-0.0023
630.0895	-0.0036
630.2776	-0.0004
630.4657	-0.0014
630.6537	0.0037
630.8417	-0.0035
631.0297	-0.0026
631.2177	0.0059
631.4057	-0.0002
631.5936	0.0025
631.7815	-0.0031
631.9695	-0.0045
632.1574	-0.0091
632.3452	-0.0074
632.5331	-0.006
632.7209	-0.003
632.9088	-0.0064
633.0966	-0.0023
633.2844	-0.0011
633.4722	0.0019
633.6599	-0.0009
633.8477	-0.0006
634.0354	-0.0033
634.2231	-0.008
634.4108	0.0019
634.5985	0.0002
634.7861	-0.0085
634.9738	-0.006
635.1614	-0.0055
635.349	-0.0042
635.5366	0.0002
635.7242	-0.0007
635.9117	0.0021
636.0993	-0.0037
636.2868	-0.0039
636.4743	0.0004
636.6618	-0.0061
636.8492	-0.0004
637.0367	-0.0003
637.2241	-0.0022
637.4115	-0.0029
637.5989	-0.0038
637.7863	-0.0016
637.9737	-0.0103
638.161	-0.0005
638.3484	-0.0025
638.5357	-0.0012
638.723	-0.0044
638.9103	0.0001
639.0975	0.0035
639.2848	-0.0015
639.472	0.0021
639.6592	0.0027
639.8464	-0.0039
640.0336	-0.0039
640.2208	0.004
640.4079	-0.004
640.595	0.0042
640.7821	0.0013
640.9692	0.0063
641.1563	0.0027
641.3434	0.0039
641.5304	0.0021
641.7174	0.0045
641.9044	0.0043
642.0914	0.0007
642.2784	0.0044
642.4653	0.0042
642.6523	-0.0045
642.8392	0.0042
643.0261	0.008
643.213	0.0021
643.3999	-0.0042
643.5867	0.0003
643.7735	-0.0003
643.9604	0.0021
644.1472	-0.0008
644.3339	0.0017
644.5207	-0.0055
644.7075	-0.0051
644.8942	-0.0051
645.0809	0.0001
645.2676	-0.0055
645.4543	0.0018
645.6409	-0.0028
645.8276	0.0001
646.0142	-0.0031
646.2008	-0.0069
646.3874	-0.003
646.574	-0.0029
646.7605	-0.0024
646.9471	-0.0078
647.1336	-0.0017
647.3201	-0.0068
647.5066	-0.0002
647.6931	0.0016
647.8795	-0.003
648.0659	-0.0041
648.2524	-0.0057
648.4388	-0.001
648.6252	-0.0039
648.8115	-0.0122
648.9979	-0.0048
649.1842	-0.0069
649.3705	-0.0049
649.5568	-0.002
649.7431	0.0003
649.9294	-0.0042
650.1156	-0.0042
650.3018	-0.0068
650.488	-0.0073
650.6742	-0.006
650.8604	0.0032
651.0466	0.0004
651.2327	-0.0047
651.4188	0.0039
651.6049	0.0019
651.791	-0.0022
651.9771	-0.0064
652.1632	0.0029
652.3492	0.0012
652.5352	-0.003
652.7212	0.0014
652.9072	0.0061
653.0932	0.0013
653.2791	0.0013
653.465	-0.0025
653.651	-0.0037
653.8369	-0.0043
654.0227	-0.0005
654.2086	0.0042
654.3944	-0.0078
654.5803	-0.0059
654.7661	-0.0011
654.9519	-0.0041
655.1377	-0.0002
655.3234	-0.0001
655.5092	-0.0001
655.6949	-0.0001
655.8806	-0.0001
656.0663	-0.0001
656.2519	-0.0001
656.4376	-0.0032
656.6232	-0.0043
656.8088	-0.0043
656.9945	-0.0021
657.18	0.0016
657.3656	-0.0015
657.5511	-0.0032
657.7367	-0.0027
657.9222	-0.0003
658.1077	0.0015
658.2932	-0.0034
658.4786	0.0004
658.6641	-0.0044
658.8495	-0.0057
659.0349	0.0024
659.2203	-0.0071
659.4057	-0.0029
659.591	-0.0015
659.7764	-0.0026
659.9617	-0.0031
660.147	-0.0011
660.3323	-0.0048
660.5176	-0.0085
660.7028	-0.0067
660.888	-0.0016
661.0733	0.0021
661.2585	-0.0044
661.4436	0.0032
661.6288	-0.0069
661.8139	0.0012
661.9991	-0.0025
662.1842	0.0014
662.3693	-0.0052
662.5544	0.0009
662.7394	0.0005
662.9245	0.0049
663.1095	0.0003
663.2945	-0.0038
663.4795	0.0009
663.6644	-0.0086
663.8494	-0.0022
664.0343	-0.0027
664.2193	-0.006
664.4042	-0.0123
664.589	-0.0035
664.7739	-0.0056
664.9587	0.0019
665.1436	0.0016
665.3284	-0.0034
665.5132	-0.001
665.698	0.0061
665.8827	0.003
666.0675	-0.0079
666.2522	-0.0029
666.4369	-0.0059
666.6216	-0.0083
666.8063	-0.0081
666.9909	-0.0086
667.1756	-0.0047
667.3602	-0.0093
667.5448	-0.0098
667.7294	-0.0037
667.9139	-0.0082
668.0985	-0.0088
668.283	-0.0127
668.4675	-0.0122
668.652	-0.0116
668.8365	-0.0143
669.0209	-0.0067
669.2054	-0.0038
669.3898	-0.0073
669.5742	-0.0038
669.7586	-0.0034
669.943	-0.0062
670.1273	-0.0103
670.3117	-0.0033
670.496	-0.0064
670.6803	0.0018
670.8646	-0.0084
671.0488	-0.0009
671.2331	-0.0017
671.4173	0.0025
671.6015	-0.0025
671.7857	-0.006
671.9699	-0.0001
672.1541	-0.0033
672.3382	-0.0077
672.5223	-0.0018
672.7064	-0.006
672.8905	-0.0123
673.0746	-0.0133
673.2587	-0.013
673.4427	-0.0133
673.6267	-0.0108
673.8107	-0.008
673.9947	-0.0109
674.1787	-0.0108
674.3626	-0.0062
674.5465	-0.0023
674.7304	-0.0026
674.9143	-0.0008
675.0982	-0.0017
675.2821	-0.0021
675.4659	-0.0011
675.6497	0.0014
675.8335	-0.0016
676.0173	-0.0086
676.2011	-0.0064
676.3849	-0.0104
676.5686	-0.0021
676.7523	0.0002
676.936	0.0001
677.1197	-0.0038
677.3034	-0.0071
677.487	-0.009
677.6706	-0.0039
677.8542	-0.0034
678.0378	-0.0045
678.2214	-0.0061
678.405	0.0022
678.5885	-0.0049
678.772	-0.0058
678.9555	-0.002
679.139	-0.0048
679.3225	-0.0107
679.5059	-0.0038
679.6894	-0.0004
679.8728	-0.0001
680.0562	0.0007
680.2395	-0.0064
680.4229	0.0017
680.6062	0.0024
680.7896	0.0027
680.9729	-0.0032
681.1562	0.0005
681.3394	-0.0038
681.5227	-0.0039
681.7059	-0.0087
681.8891	-0.0039
682.0723	-0.002
682.2555	-0.0037
682.4387	-0.001
682.6218	-0.0048
682.805	-0.0016
682.9881	-0.0066
683.1712	0.0051
683.3542	-0.0004
683.5373	-0.0046
683.7203	-0.0045
683.9034	-0.0048
684.0864	-0.0084
684.2694	-0.0106
684.4523	-0.0043
684.6353	0.0029
684.8182	-0.0008
685.0011	0.0009
685.184	-0.0035
685.3669	-0.0044
685.5498	-0.0005
685.7326	-0.0001
685.9154	-0.002
686.0982	-0.0053
686.281	-0.0086
686.4638	-0.0023
686.6465	-0.0001
686.8293	-0.0039
687.012	-0.0031
687.1947	-0.0081
687.3774	-0.0075
687.56	-0.0082
687.7427	-0.0029
687.9253	-0.0076
688.1079	0.0041
688.2905	0.001
688.4731	-0.0031
688.6556	-0.0041
688.8382	-0.002
689.0207	0.0025
689.2032	0.0002
689.3857	-0.002
689.5681	-0.0011
689.7506	-0.0028
689.933	0.0004
690.1154	-0.0007
690.2978	-0.0004
690.4802	0.0002
690.6626	0.006
690.8449	0.003
691.0272	0.0046
691.2095	0.0046
691.3918	0.0014
691.5741	-0.0065
691.7563	0.0008
691.9386	-0.0021
692.1208	-0.0055
692.303	-0.0047
692.4852	0.0023
692.6673	0.0013
692.8495	-0.0058
693.0316	0.0019
693.2137	-0.007
693.3958	-0.0079
693.5778	-0.0008
693.7599	-0.0072
693.9419	-0.0079
694.1239	0.0009
694.3059	-0.0054
694.4879	-0.0059
694.6699	-0.0078
694.8518	-0.0045
695.0337	-0.0063
695.2157	-0.0064
695.3975	-0.0067
695.5794	-0.0056
695.7613	-0.0055
695.9431	-0.0076
696.1249	-0.0057
696.3067	-0.0053
696.4885	-0.0024
696.6703	-0.0029
696.852	-0.0067
697.0337	0.0017
697.2154	-0.0018
697.3971	-0.0069
697.5788	-0.004
697.7605	-0.005
697.9421	-0.0045
698.1237	-0.0032
698.3053	-0.0034
698.4869	-0.0009
698.6685	-0.006
698.85	-0.0066
699.0315	-0.0044
699.213	0.0031
699.3945	0.0014
699.576	0.0081
699.7575	-0.0003
699.9389	-0.0031
700.1203	-0.0021
700.3017	-0.0024
700.4831	-0.0026
700.6645	-0.0057
700.8458	-0.0025
701.0271	-0.0011
701.2084	-0.0071
701.3897	-0.0023
701.571	0.0032
701.7523	0.0044
701.9335	0.0019
702.1147	0.0035
702.2959	-0.0029
702.4771	-0.0031
702.6583	0.0037
702.8394	-0.0034
703.0205	0.0024
703.2016	-0.0004
703.3827	0.0026
703.5638	-0.0041
703.7449	-0.0048
703.9259	-0.0035
704.1069	-0.0018
704.2879	0.0041
704.4689	0.0008
704.6499	0.0005
704.8308	-0.003
705.0117	-0.0003
705.1927	-0.0024
705.3735	0.0039
705.5544	0.0063
705.7353	0.002
705.9161	0.0012
706.0969	-0.0003
706.2777	-0.0027
706.4585	-0
706.6393	-0.0038
706.82	-0.0045
707.0007	-0.0018
707.1815	0.0054
707.3621	-0.0012
707.5428	-0.0037
707.7235	-0.0036
707.9041	0.0018
708.0847	-0.0005
708.2653	-0.0033
708.4459	-0.0044
708.6265	-0.0025
708.807	-0.0011
708.9875	-0.0016
709.168	-0.0023
709.3485	-0.0083
709.529	-0.0085
709.7095	-0.0045
709.8899	-0.0083
710.0703	-0.0008
710.2507	-0.0034
710.4311	-0.0037
710.6115	0.0062
710.7918	-0.0037
710.9721	0.0007
711.1524	-0.0001
711.3327	0.0028
711.513	-0.0025
711.6932	-0.004
711.8735	0.003
712.0537	-0.0028
712.2339	-0.0002
712.4141	-0.0041
712.5942	0.0001
712.7744	0.0074
712.9545	0.0023
713.1346	-0.0021
713.3147	0.0041
713.4947	-0.0008
713.6748	-0.0035
713.8548	-0.0036
714.0348	-0.0031
714.2148	-0.0029
714.3948	-0.0057
714.5748	-0.0106
714.7547	-0.0054
714.9346	-0.0052
715.1145	-0.0028
715.2944	-0.0033
715.4743	0.0011
715.6541	-0.001
715.834	-0.0018
716.0138	-0.0002
716.1936	-0.0022
716.3733	-0.0014
716.5531	-0.0039
716.7328	-0.0026
716.9126	0.0024
717.0923	-0.0037
717.2719	-0.0097
717.4516	0.0019
717.6312	0.0037
717.8109	0.0026
717.9905	-0.0054
718.1701	0.0036
718.3496	0.0009
718.5292	-0.0072
718.7087	0.0022
718.8882	-0.0084
719.0677	-0.0026
719.2472	-0.0042
719.4267	-0.0147
719.6061	-0.0057
719.7856	0.0027
719.965	-0.0067
720.1443	-0.0064
720.3237	0.0005
720.5031	-0.0064
720.6824	-0.0026
720.8617	-0.0006
721.041	0.0017
721.2203	-0.0059
721.3995	-0.0054
721.5788	-0.0059
721.758	0.0014
721.9372	-0.0033
722.1164	-0.007
722.2956	-0.0081
722.4747	-0.0028
722.6538	-0.0028
722.8329	-0.0029
723.012	-0.0068
723.1911	-0.0021
723.3702	0.0045
723.5492	-0.0049
723.7282	-0.0033
723.9072	-0.0007
724.0862	-0.0019
724.2652	0.0027
724.4441	-0.0059
724.623	-0.0055
724.8019	0.0012
724.9808	-0.0003
725.1597	0.0045
725.3385	0.005
725.5174	0
725.6962	-0.004
725.875	0.0041
726.0538	0.004
726.2325	0.001
726.4112	-0.0003
726.59	-0.0013
726.7687	0.0007
726.9474	-0.0044
727.126	-0.0017
727.3047	-0.0014
727.4833	0.0002
727.6619	-0.0076
727.8405	-0.0041
728.0191	0.0064
728.1976	-0.0159
728.3762	-0.002
728.5547	-0.0082
728.7332	-0.0059
728.9116	-0.0125
729.0901	-0.008
729.2686	-0.0056
729.447	-0.0043
729.6254	-0.0066
729.8038	-0.0083
729.9821	-0.0048
730.1605	0.0014
730.3388	0.001
730.5171	0.0038
730.6954	0.0039
730.8737	-0.0018
731.0519	-0.0016
731.2302	-0.0051
731.4084	0.0031
731.5866	-0.0017
731.7648	0.0037
731.9429	0.0069
732.1211	-0.0023
732.2992	0.0035
732.4773	0.0031
732.6554	-0.0047
732.8335	-0.0045
733.0115	-0.0085
733.1896	-0.012
733.3676	-0.0043
733.5456	-0.003
733.7235	-0.001
733.9015	0.0046
734.0794	0.0023
734.2574	0.0006
734.4353	-0.0016
734.6131	0.0002
734.791	-0.0052
734.9689	-0.0065
735.1467	0.0038
735.3245	-0.0023
735.5023	-0.0018
735.68	-0.0058
735.8578	0.0004
736.0355	0.0093
736.2132	-0.0006
736.3909	0.001
736.5686	-0.0058
736.7463	-0.0059
736.9239	-0.0011
737.1015	-0.0061
737.2791	-0.0063
737.4567	-0.0054
737.6343	-0.0051
737.8118	-0.0037
737.9894	0.006
738.1669	-0.001
738.3444	-0.0036
738.5218	0.0001
738.6993	0.0015
738.8767	0.0021
739.0541	-0.0046
739.2315	-0.0038
739.4089	-0.0017
739.5863	-0.0062
739.7636	0.0019
739.9409	-0.0022
740.1182	0.0055
740.2955	-0.0028
740.4728	0.0004
740.65	-0.0023
740.8272	0.0081
741.0044	-0.0025
741.1816	0.0012
741.3588	0.0035
741.5359	-0.003
741.7131	0.0015
741.8902	0.0027
742.0673	0.0005
742.2444	-0.0018
742.4214	-0.0022
742.5985	-0.007
742.7755	-0.0053
742.9525	0
743.1295	-0.0042
743.3064	-0.0079
743.4834	0.0023
743.6603	-0.0034
743.8372	0.0034
744.0141	-0.0022
744.191	-0.0041
744.3678	-0.0023
744.5446	-0.0013
744.7215	-0.0057
744.8982	-0.0006
745.075	0.0031
745.2518	-0.002
745.4285	-0.0029
745.6052	-0.0007
745.7819	-0.0025
745.9586	0.0005
746.1353	0.0007
746.3119	0.0015
746.4885	-0.0111
746.6651	-0.0031
746.8417	-0.0085
747.0183	-0.0006
747.1948	-0.0123
747.3714	-0.007
747.5479	-0.0073
747.7244	-0.0018
747.9008	0.005
748.0773	0.0087
748.2537	-0.0013
748.4301	0.0059
748.6065	-0.0031
748.7829	0.0019
748.9593	-0.002
749.1356	-0.0037
749.3119	0.0009
749.4882	0.0072
749.6645	-0.0012
749.8408	-0.0026
750.017	-0.0041
750.1933	-0.0006
750.3695	-0.0099
750.5457	-0.0058
750.7218	-0.0034
750.898	-0.0021
751.0741	-0.006
751.2502	-0.0065
751.4263	-0.0022
751.6024	-0.002
751.7784	0.0019
751.9545	0.0028
752.1305	0.0046
752.3065	-0.0042
752.4825	-0.0017
752.6584	-0.0021
752.8344	0.0004
753.0103	-0.0056
753.1862	0.0041
753.3621	-0.0019
753.5379	-0.0024
753.7138	0.0017
753.8896	-0.0092
754.0654	-0.0072
754.2412	-0.012
754.417	-0.0045
754.5927	-0.0042
754.7685	-0.0124
754.9442	-0.0101
755.1199	-0.0103
755.2956	-0.0031
755.4712	-0.0068
755.6469	-0.0118
755.8225	-0.0073
755.9981	-0.0043
756.1736	-0.0001
756.3492	-0.0081
756.5248	-0.0028
756.7003	-0.0114
756.8758	-0.0073
757.0513	-0.0052
757.2267	-0.0097
757.4022	-0.0047
757.5776	-0.007
757.753	-0.0109
757.9284	-0.006
758.1038	-0.0033
758.2791	-0.0122
758.4545	-0.0137
758.6298	0.0022
758.8051	-0.0037
758.9803	-0.014
759.1556	-0.0088
759.3308	-0.003
759.506	-0.0067
759.6812	-0.0079
759.8564	-0.0031
760.0316	-0.0101
760.2067	-0.0042
760.3819	-0.0038
760.557	-0.0057
760.732	-0.0115
760.9071	-0.0075
761.0821	-0.017
761.2572	-0.0114
761.4322	-0.0045
761.6072	-0.0065
761.7821	-0.012
761.9571	-0.0122
762.132	-0.0117
762.3069	0.0011
762.4818	-0.0061
762.6567	-0.0108
762.8316	-0.0024
763.0064	-0.0003
763.1812	-0.0018
763.356	0.0007
763.5308	-0.0017
763.7055	0.0029
763.8803	-0.009
764.055	-0.0003
764.2297	0.0047
764.4044	0.0016
764.579	0.004
764.7537	-0.0052
764.9283	-0.006
765.1029	0.0009
765.2775	0.0021
765.4521	0.0069
765.6266	-0.0026
765.8011	0.0049
765.9756	0.0073
766.1501	0.0091
766.3246	-0.0021
766.4991	-0.0044
766.6735	-0.0115
766.8479	-0.0087
767.0223	0.0001
767.1967	-0.0012
767.371	-0.0056
767.5454	-0.0022
767.7197	-0.0009
767.894	0.0066
768.0683	-0.0027
768.2425	-0.0086
768.4168	-0.0104
768.591	0.0012
768.7652	-0.0025
768.9394	0.0026
769.1135	0.0013
769.2877	0.0002
769.4618	0.0056
769.6359	-0.0019
769.81	-0.0033
769.984	-0.0032
770.1581	0.0032
770.3321	0.0012
770.5061	-0.0012
770.6801	0.0076
770.8541	-0.0026
771.028	0.0082
771.202	0.0061
771.3759	-0.0011
771.5498	0.0045
771.7236	-0.003
771.8975	-0.0002
772.0713	0.0068
772.2451	0.0031
772.4189	0.0008
772.5927	-0.0092
772.7665	0.0002
772.9402	-0.0008
773.1139	0.0015
773.2876	0.0005
773.4613	0.0011
773.635	0.0023
773.8086	-0.0001
773.9822	-0.0032
774.1558	0.0032
774.3294	0.0078
774.503	0.0012
774.6765	-0.0016
774.8501	0.0036
775.0236	-0.0093
775.1971	-0.0009
775.3705	0.0055
775.544	-0.0032
775.7174	0.0039
775.8908	-0.0019
776.0642	-0.0011
776.2376	0.0023
776.4109	-0.0017
776.5843	0.0031
776.7576	0.0046
776.9309	-0.0006
777.1041	-0.0017
777.2774	0.001
777.4506	0.0016
777.6238	-0.0016
777.797	0.0017
777.9702	-0.0042
778.1434	-0.0081
778.3165	0
778.4896	-0.0073
778.6627	-0.005
778.8358	-0.0093
779.0089	-0.0053
779.1819	-0.0033
779.3549	-0.0018
779.5279	-0.0022
779.7009	-0.0093
779.8739	0.0003
780.0468	0.0025
780.2197	-0.0007
780.3926	-0.0024
780.5655	-0.006
780.7384	-0.0017
780.9112	-0.0047
781.0841	-0.0058
781.2569	0.0016
781.4297	0.001
781.6024	-0.0017
781.7752	-0.0036
781.9479	-0.0052
782.1206	0.0035
782.2933	-0.005
782.466	-0.0026
782.6386	0.0051
782.8113	-0.0142
782.9839	-0.0089
783.1565	-0.0159
783.329	0.0019
783.5016	-0.0058
783.6741	-0.0062
783.8466	-0.0187
784.0191	-0.0034
784.1916	0.0004
784.3641	0.0002
784.5365	0.006
784.7089	0.0085
784.8813	0.0078
785.0537	0.0115
785.2261	0.0088
785.3984	-0.0015
785.5707	0.0026
785.743	0.0065
785.9153	0.0005
786.0876	0.0008
786.2598	0.0055
786.432	0.0084
786.6042	0.0044
786.7764	-0.0009
786.9486	0.0017
787.1207	-0.0078
787.2928	0.0006
787.4649	-0.0066
787.637	-0.0105
787.8091	0.0011
787.9811	0.0027
788.1532	0.001
788.3252	-0.0028
788.4972	0.0008
788.6691	-0.0089
788.8411	0.001
789.013	0.0033
789.1849	0.0056
789.3568	-0.0034
789.5287	-0.0015
789.7005	0.004
789.8723	-0.0018
790.0442	-0.002
790.2159	0.0021
790.3877	-0.0111
790.5595	-0.0007
790.7312	0.0086
790.9029	-0.0038
791.0746	-0.0042
791.2463	-0.0049
791.4179	-0.007
791.5896	0.0044
791.7612	-0.001
791.9328	0.0036
792.1044	-0.0001
792.2759	0.0053
792.4474	-0.0039
792.619	-0.0039
792.7905	-0.0082
792.9619	-0.0014
793.1334	-0.0033
793.3048	-0.0075
793.4762	-0.0068
793.6476	-0.016
793.819	-0.0077
793.9904	-0.0124
794.1617	-0.0158
794.333	-0.0109
794.5043	0.0003
794.6756	0.0072
794.8469	-0.0005
795.0181	-0.0103
795.1893	-0.0033
795.3605	-0.0077
795.5317	-0.0047
795.7029	-0.0078
795.874	-0.0075
796.0452	-0.0082
796.2163	-0.0159
796.3873	-0.007
796.5584	-0.0144
796.7294	-0.0084
796.9005	-0.008
797.0715	-0.0123
797.2425	-0.0106
797.4134	-0.0101
797.5844	-0.0116
797.7553	-0.0109
797.9262	-0.0171
798.0971	-0.009
798.2679	-0.0121
798.4388	-0.0046
798.6096	-0.0058
798.7804	-0.0114
798.9512	-0.0137
799.122	-0.0097
799.2927	-0.0148
799.4635	-0.0008
799.6342	-0.0113
799.8049	-0.0106
799.9755	-0.0089
800.1462	-0.0222
800.3168	0.0003
800.4874	-0.0082
800.658	-0.0161
800.8286	-0.0157
800.9991	-0.0113
801.1696	-0.0104
801.3402	-0.0179
801.5106	-0.0151
801.6811	-0.0186
801.8516	-0.0042
802.022	-0.0254
802.1924	-0.0269
802.3628	-0.0235
802.5332	-0.0165
802.7035	-0.014
802.8739	-0.0121
803.0442	-0.0166
803.2145	-0.0132
803.3847	-0.0243
803.555	-0.0164
803.7252	-0.0029
803.8954	-0.0156
804.0656	0.0021
804.2358	-0.0143
804.4059	-0.0064
804.5761	-0.0087
804.7462	-0.0123
804.9163	-0.0166
805.0864	-0.0136
805.2564	-0.0118
805.4264	-0.0125
805.5965	-0.0067
805.7665	-0.0074
805.9364	0.0028
806.1064	-0.0087
806.2763	-0.0072
806.4462	-0.0019
806.6161	-0.0088
806.786	-0.0103
806.9559	-0.0008
807.1257	-0.0129
807.2955	-0.0098
807.4653	-0.0095
807.6351	-0.003
807.8048	0.0008
807.9746	-0.0123
808.1443	-0.0079
808.314	0.0072
808.4837	-0.0001
808.6533	-0.0086
808.8229	-0.0015
808.9926	0.0001
809.1622	-0.0038
809.3317	0.0057
809.5013	-0.0047
809.6708	0.0073
809.8403	-0.0112
810.0098	-0.001
810.1793	-0.0086
810.3488	0.0081
810.5182	-0.0086
810.6876	-0.0078
810.857	-0.0072
811.0264	-0.0116
811.1958	0.0003
811.3651	-0.0109
811.5344	0.0013
811.7037	-0.0129
811.873	-0.0013
812.0422	-0.0009
812.2115	-0.0056
812.3807	-0.0052
812.5499	0.0011
812.7191	-0.0149
812.8882	-0.0116
813.0574	-0.0085
813.2265	0.0032
813.3956	-0.0088
813.5646	-0.0074
813.7337	0.0053
813.9027	0.0018
814.0718	-0.0107
814.2407	0.0033
814.4097	-0.0032
814.5787	0.0049
814.7476	-0.0066
814.9165	-0.0038
815.0854	-0.0056
815.2543	0.0051
815.4232	-0.0136
815.592	-0.0037
815.7608	-0.0099
815.9296	0.0079
816.0984	-0.0063
816.2671	0.006
816.4359	0.0014
816.6046	0.0024
816.7733	-0.002
816.942	-0.0047
817.1106	0.0005
817.2793	-0.0093
817.4479	-0.0064
817.6165	-0.0149
817.785	-0.0095
817.9536	-0.0081
818.1221	0.0012
818.2906	-0.0021
818.4591	-0.0205
818.6276	0.004
818.7961	-0.0105
818.9645	-0.0088
819.1329	-0.005
819.3013	-0.0077
819.4697	-0.0079
819.638	-0.0161
819.8064	-0.0077
819.9747	0.0037
820.143	0.0005
820.3113	-0.0028
820.4795	0.0144
820.6477	0.0027
820.816	-0.0038
820.9842	0.0072
821.1523	-0.0089
821.3205	0.0073
821.4886	-0.0055
821.6567	-0.0014
821.8248	-0.0244
821.9929	-0.0037
822.1609	0.005
822.329	-0.0118
822.497	-0.0178
822.665	-0.0113
822.833	-0.027
823.0009	-0.0151
823.1688	-0.0114
823.3367	-0.0032
823.5046	-0.0044
823.6725	-0.0242
823.8404	-0.0093
824.0082	-0.0138
824.176	0.0002
824.3438	0.0079
824.5116	0.0029
824.6793	-0.0027
824.847	-0.0015
825.0147	-0.0163
825.1824	-0.0262
825.3501	-0.0054
825.5177	-0.0141
825.6854	0.0027
825.853	0.0104
826.0206	-0.0003
826.1881	-0.0006
826.3557	-0.0005
826.5232	0.0079
826.6907	0.0007
826.8582	0.0015
827.0257	-0.0183
827.1931	0.0159
827.3605	-0.0092
827.528	-0.0173
827.6953	-0.006
827.8627	0.0084
828.03	-0.0172
828.1974	-0.0064
828.3647	0.0055
828.532	0.0085
828.6992	-0.0067
828.8665	-0.0048
829.0337	-0.0179
829.2009	-0.0156
829.3681	0.0035
829.5352	-0.0129
829.7024	0.0072
829.8695	-0.024
830.0366	-0.0154
830.2037	-0.0079
830.3707	-0.0168
830.5378	-0.0069
830.7048	-0.0188
830.8718	0.0018
831.0388	-0.0027
831.2057	-0.0195
831.3727	-0.035
831.5396	0.0075
831.7065	0.0075
831.8734	-0.0007
832.0402	-0.0246
832.2071	0.0069
832.3739	0.0071
832.5407	0.0101
832.7075	0.002
832.8742	0.0024
833.041	-0.0062
833.2077	-0.024
833.3744	-0.0111
833.541	-0.0046
833.7077	-0.0062
833.8743	-0.0004
834.0409	0.0304
834.2075	-0.0095
834.3741	0.0022
834.5407	0.0015
834.7072	0.0053
834.8737	-0.016
835.0402	-0.0249
835.2067	-0.005
835.3731	0.0026
835.5395	0.0038
835.706	-0.0148
835.8723	-0.0138
836.0387	-0.0151
836.2051	-0.0049
836.3714	0.015
836.5377	0.009
836.704	-0.0181
836.8703	-0.0197
837.0365	0.0018
837.2027	-0.0151
837.3689	-0.0071
837.5351	0.0109
837.7013	-0.0039
837.8674	-0.0012
838.0335	-0.0105
838.1997	0.008
838.3657	0.0202
838.5318	0.0045
838.6978	0.0073
838.8639	0.0088
839.0299	-0.0091
839.1958	-0.0057
839.3618	0.0188
839.5277	-0.0042
839.6937	0.0029
839.8596	0.0083
840.0254	-0.0195
840.1913	0.0012
840.3571	0.0168
840.523	0.0125
840.6888	0.0006
840.8545	-0.0061
841.0203	-0.0091
841.186	0.0031
841.3517	0.0104
841.5174	0.0031
841.6831	-0.0175
841.8488	-0.0049
842.0144	0.022
842.18	0.0025
842.3456	0.0113
842.5112	0.0146
842.6767	0.0126
842.8422	0.0136
843.0077	0.0054
843.1732	-0.013
843.3387	-0.0145
843.5042	0.0082
843.6696	0.009
843.835	0.0215
844.0004	-0.0026
844.1657	-0.002
844.3311	0.0032
844.4964	-0.0062
844.6617	0.0092
844.827	0.0027
844.9923	0.0082
845.1575	-0.0043
845.3227	-0.022
845.4879	-0.0038
845.6531	-0.0034
845.8183	-0.0103
845.9834	-0.0094
846.1485	-0.0027
846.3136	-0.0412
846.4787	0.0089
846.6438	-0.0069
846.8088	0.0266
846.9738	-0.0024
847.1388	0.0014
847.3038	0.0174
847.4687	0.0022
847.6337	-0.0143
847.7986	0.0282
847.9635	-0.0033
848.1284	-0.0159
848.2932	-0.0056
848.458	0.034
848.6228	0.0061
848.7876	-0.0379
848.9524	0.0274
849.1172	-0.036
849.2819	0.0099
849.4466	-0.0004
849.6113	-0.0019
849.7759	-0.0037
849.9406	-0.0275
850.1052	0.0225
850.2698	-0.0056
850.4344	0.0208
850.599	-0.0232
850.7635	0.0061
850.928	0.0175
851.0925	0.0202
851.257	-0.0072
851.4215	-0.0023
851.5859	0.0396
851.7503	0.004
851.9147	-0.0104
852.0791	-0.021
852.2434	-0.0314
852.4078	0.0202
852.5721	-0.0242
852.7364	-0.0749
852.9007	0.0342
853.0649	-0.0006
853.2291	0.0093
853.3934	-0.0212
853.5575	-0.0035
853.7217	-0.0294
853.8859	-0.0006
854.05	-0.0166
854.2141	-0.0345
854.3782	-0.0077
854.5423	0.0405
854.7063	-0.0071
854.8703	-0.0073
855.0343	-0.0157
855.1983	0.0432
855.3623	0.0152
855.5262	0.0467
855.6901	0.0258
855.854	-0.0458
856.0179	0.0792
856.1818	-0.017
856.3456	-0.08
856.5094	-0.0171
856.6732	-0.0654
856.837	0.0329
857.0008	-0.0018
857.1645	0.0319
857.3282	-0.0093
857.4919	-0.037
857.6556	0.05
857.8192	0.0168
857.9828	0.0596
858.1465	0.0212
858.31	0.0194
858.4736	-0.063
858.6372	0.0036
858.8007	-0.0049
858.9642	-0.0518
859.1277	0.0325
859.2911	0.0241
859.4546	0.0574
859.618	-0.0084
859.7814	-0.0135
859.9448	-0.0701
860.1081	-0.0579
860.2715	0.0325
860.4348	-0.0136
860.5981	-0.0287
860.7614	0.0024
860.9246	0.0387
861.0879	0.0026
861.2511	0.0729
861.4143	-0.114
861.5774	-0.0421
861.7406	0.0996
861.9037	-0.1212
862.0668	-0.024
862.2299	-0.0201
862.393	0.0906
862.556	0.0946
862.7191	-0.0311
862.8821	-0.0102
863.0451	0.0575
863.208	-0.069
863.371	0.0875
863.5339	-0.041
863.6968	-0.1123
863.8597	0.0027
864.0225	-0.1651
864.1854	-0.0706
864.3482	-0.0121
864.511	-0.0506
864.6737	0.0312
864.8365	0.0184
864.9992	-0.2455
865.1619	-0.1611
865.3246	-0.14
865.4873	0.1385
865.65	-0.0405
865.8126	-0.0726
865.9752	0.0263
866.1378	-0.0339
866.3004	-0.0444
866.4629	-0.0941
866.6254	0.0141
866.7879	0.0229
866.9504	-0.2742
867.1129	-0.0626
867.2753	0.075
867.4377	-0.0415
867.6001	-0.2467
867.7625	0.0039
867.9249	0.0469
868.0872	-0.0438
868.2495	-0.0931
868.4118	-0.0551
868.5741	-0.2499
868.7363	0.0108
868.8986	-0.0555
869.0608	0.1749
869.223	-0.1806
869.3851	-0.0952
869.5473	-0.2023
869.7094	-0.0866
869.8715	-0.1381
870.0336	-0.1803
870.1957	-0.0972
870.3577	-0.1376
870.5197	-0.4884
870.6817	-0.0793
870.8437	-0.1966
871.0057	-0.2698
871.1676	-0.0153
871.3295	-0.3808
871.4914	-0.0211
871.6533	0.0014
871.8151	-0.1985
871.977	0.069
872.1388	-0.1129
872.3006	-0.3038
872.4623	0.2969
872.6241	-0.0388
872.7858	0.0528
872.9475	-0.1626
873.1092	-0.1401
873.2709	-0.2394
873.4325	-0.151
873.5941	-0.062
873.7557	-0.1452
873.9173	-0.1461
874.0789	-0.2387
874.2404	-0.0743
874.4019	-0.4313
874.5634	-0.0825
874.7249	-0.1846
874.8863	-0.3569
875.0478	1.0615
875.2092	-0.5291
875.3706	-0.2652
875.5319	0.0445
875.6933	0.3783
875.8546	-0.2316
876.0159	-0.1535
876.1772	-0.3699
876.3385	-0
876.4997	1.5161
876.6609	0.2071
876.8221	-0.2285
876.9833	-0.5767
877.1445	-0.2453
877.3056	-0.2067
877.4667	-0.9621
877.6278	0.1812
877.7889	0.1218
877.9499	0.006
878.111	0.4464
878.272	0.4001
878.433	0.4631
878.5939	1.2818
878.7549	-0.389
878.9158	-0.0415
879.0767	0.1901
879.2376	0.2042
879.3984	0.1271
879.5593	-0.0379
879.7201	-0.0868
879.8809	-0.0222
880.0417	-0.0384
880.2024	-0.0587
880.3632	-0.355
880.5239	-0
880.6846	0.1799
880.8452	0.2542
881.0059	-0.4815
881.1665	-0
881.3271	-0.2798
881.4877	0.1139
881.6483	-0
881.8088	-0.2129
881.9693	0.2505
882.1298	0.2505
882.2903	0.2505
