Data from MonoPyChalIsomerACN10uM450nmA_Absorbance_13-11-20-891.txt Node
Date: Tue Jul 09 13:11:20 BST 2024
User: LASERRRRR
Spectrometer: FLMT03099
Trigger mode: 0
Integration Time (sec): 2.000000E-1
Scans to average: 1
Electric dark correction enabled: true
Nonlinearity correction enabled: false
Boxcar width: 0
XAxis mode: Wavelengths
Number of Pixels in Spectrum: 3648
>>>>>Begin Spectral Data<<<<<
179.3399	0.0962
179.5586	0.0962
179.7771	0.0962
179.9957	-0.0161
180.2143	-0.2128
180.4329	0.1557
180.6514	-0.1578
180.8699	-0
181.0885	-0
181.307	-0
181.5255	-0
181.744	-0
181.9625	-0
182.181	-0
182.3994	0.1182
182.6179	-0.2987
182.8363	-0
183.0547	0.2609
183.2732	0.1193
183.4916	0.0154
183.71	0.0705
183.9284	0.0902
184.1467	0.0449
184.3651	0.0443
184.5835	0.0391
184.8018	0.0783
185.0201	0.2495
185.2385	-0.0282
185.4568	0.0145
185.6751	0.0931
185.8934	0.0348
186.1117	0.0324
186.3299	-0.0341
186.5482	-0.0144
186.7664	0.0658
186.9847	0.1389
187.2029	0.1298
187.4211	0.0167
187.6393	-0.0685
187.8575	0.1265
188.0757	0.0656
188.2939	0.0846
188.512	0.1491
188.7302	0.0025
188.9483	0.1276
189.1665	0.1866
189.3846	0.1036
189.6027	0.1765
189.8208	0.1465
190.0389	0.2546
190.257	0.2915
190.475	0.3324
190.6931	0.1868
190.9111	0.2464
191.1292	0.2604
191.3472	0.3262
191.5652	0.3835
191.7832	0.2938
192.0012	0.4486
192.2192	0.4571
192.4371	0.4515
192.6551	0.3922
192.873	0.4292
193.091	0.4458
193.3089	0.4901
193.5268	0.5531
193.7447	0.6084
193.9626	0.4677
194.1805	0.6029
194.3984	0.7629
194.6162	0.714
194.8341	0.6214
195.0519	0.7396
195.2697	0.6114
195.4875	0.5789
195.7054	0.628
195.9231	0.7432
196.1409	0.594
196.3587	0.6559
196.5765	0.6621
196.7942	0.7964
197.012	0.6408
197.2297	0.7608
197.4474	0.7195
197.6651	0.7026
197.8828	0.7831
198.1005	0.7647
198.3182	0.7554
198.5358	0.801
198.7535	0.6656
198.9711	0.8762
199.1888	0.7015
199.4064	0.7333
199.624	0.6622
199.8416	0.7567
200.0592	0.7495
200.2767	0.8493
200.4943	0.7983
200.7119	0.9043
200.9294	0.877
201.1469	0.9194
201.3645	0.8483
201.582	0.8535
201.7995	0.7312
202.017	0.9523
202.2344	0.8247
202.4519	0.8442
202.6694	0.7857
202.8868	0.8641
203.1042	1.0118
203.3217	0.9718
203.5391	0.9341
203.7565	1.0708
203.9739	0.8812
204.1913	0.8811
204.4086	1.0169
204.626	0.9271
204.8433	0.8826
205.0607	0.9842
205.278	0.9521
205.4953	1.0875
205.7126	0.9607
205.9299	0.9765
206.1472	0.9407
206.3644	0.9709
206.5817	1.1386
206.7989	1.1263
207.0162	1.092
207.2334	1.0518
207.4506	0.901
207.6678	1.011
207.885	1.0981
208.1022	1.0221
208.3194	1.0135
208.5365	1.0849
208.7537	1.0179
208.9708	1.034
209.1879	1.1638
209.405	1.0895
209.6222	0.9928
209.8392	1.1553
210.0563	1.0051
210.2734	1.1195
210.4905	1.0773
210.7075	0.9859
210.9245	1.0136
211.1416	1.0441
211.3586	1.1604
211.5756	1.1298
211.7926	1.1351
212.0096	1.0365
212.2265	1.0226
212.4435	1.1313
212.6604	1.0472
212.8774	1.04
213.0943	0.9868
213.3112	0.9793
213.5281	1.0192
213.745	0.9879
213.9619	0.9067
214.1788	0.9413
214.3956	0.9291
214.6125	0.928
214.8293	0.8766
215.0461	0.8909
215.2629	0.8954
215.4798	0.8491
215.6965	0.8653
215.9133	0.8691
216.1301	0.8166
216.3469	0.8148
216.5636	0.8009
216.7803	0.7566
216.9971	0.7609
217.2138	0.7392
217.4305	0.7129
217.6472	0.6541
217.8639	0.6484
218.0805	0.6357
218.2972	0.573
218.5138	0.5518
218.7305	0.5162
218.9471	0.4778
219.1637	0.447
219.3803	0.4478
219.5969	0.3815
219.8135	0.3826
220.0301	0.3606
220.2466	0.3537
220.4632	0.3342
220.6797	0.3315
220.8962	0.3237
221.1127	0.3001
221.3292	0.3009
221.5457	0.2786
221.7622	0.2906
221.9787	0.2778
222.1951	0.2857
222.4116	0.2728
222.628	0.2831
222.8444	0.2696
223.0608	0.2692
223.2772	0.2714
223.4936	0.2728
223.71	0.2704
223.9264	0.2848
224.1427	0.2645
224.3591	0.2835
224.5754	0.2599
224.7917	0.2739
225.008	0.2769
225.2243	0.2704
225.4406	0.2798
225.6569	0.271
225.8732	0.2855
226.0894	0.276
226.3057	0.2925
226.5219	0.2855
226.7381	0.2817
226.9543	0.2911
227.1705	0.283
227.3867	0.3102
227.6029	0.2898
227.8191	0.3091
228.0352	0.3086
228.2513	0.3082
228.4675	0.2998
228.6836	0.3101
228.8997	0.3164
229.1158	0.3158
229.3319	0.3179
229.548	0.3288
229.764	0.3234
229.9801	0.3204
230.1961	0.3358
230.4121	0.3308
230.6282	0.3541
230.8442	0.3355
231.0602	0.34
231.2761	0.3488
231.4921	0.3441
231.7081	0.3606
231.924	0.3606
232.14	0.3611
232.3559	0.3631
232.5718	0.3586
232.7877	0.3616
233.0036	0.3557
233.2195	0.368
233.4353	0.3733
233.6512	0.3713
233.867	0.3771
234.0829	0.3835
234.2987	0.3882
234.5145	0.3808
234.7303	0.3884
234.9461	0.4027
235.1619	0.3837
235.3776	0.3839
235.5934	0.3907
235.8091	0.3983
236.0249	0.3867
236.2406	0.3911
236.4563	0.3808
236.672	0.4003
236.8877	0.4083
237.1034	0.4073
237.319	0.4175
237.5347	0.4109
237.7503	0.4159
237.966	0.4249
238.1816	0.4057
238.3972	0.4213
238.6128	0.4136
238.8284	0.4151
239.0439	0.4195
239.2595	0.4153
239.475	0.4136
239.6906	0.4235
239.9061	0.4211
240.1216	0.4243
240.3371	0.4254
240.5526	0.4232
240.7681	0.4122
240.9836	0.4093
241.199	0.4149
241.4145	0.4079
241.6299	0.4077
241.8453	0.4007
242.0607	0.3896
242.2761	0.3994
242.4915	0.3885
242.7069	0.3821
242.9223	0.3681
243.1376	0.3735
243.353	0.3538
243.5683	0.3539
243.7836	0.3492
243.9989	0.3326
244.2142	0.3291
244.4295	0.3266
244.6448	0.3236
244.86	0.3231
245.0753	0.3093
245.2905	0.2908
245.5057	0.2967
245.721	0.2906
245.9362	0.2912
246.1514	0.2828
246.3665	0.2884
246.5817	0.2687
246.7969	0.2707
247.012	0.2748
247.2271	0.2603
247.4423	0.2583
247.6574	0.2654
247.8725	0.257
248.0876	0.2542
248.3026	0.2477
248.5177	0.2518
248.7328	0.2372
248.9478	0.2398
249.1628	0.238
249.3779	0.2311
249.5929	0.2266
249.8079	0.2276
250.0228	0.2277
250.2378	0.2307
250.4528	0.221
250.6677	0.2186
250.8827	0.2057
251.0976	0.2113
251.3125	0.2137
251.5274	0.2047
251.7423	0.2131
251.9572	0.206
252.172	0.2101
252.3869	0.2012
252.6017	0.2046
252.8166	0.2143
253.0314	0.2108
253.2462	0.2112
253.461	0.2058
253.6758	0.2029
253.8906	0.1989
254.1053	0.2083
254.3201	0.2098
254.5348	0.2029
254.7496	0.2104
254.9643	0.1954
255.179	0.1997
255.3937	0.1999
255.6083	0.2032
255.823	0.1903
256.0377	0.1893
256.2523	0.1879
256.467	0.1986
256.6816	0.1889
256.8962	0.194
257.1108	0.2038
257.3254	0.1938
257.54	0.199
257.7545	0.1941
257.9691	0.1981
258.1836	0.1972
258.3981	0.1982
258.6127	0.2005
258.8272	0.193
259.0417	0.1984
259.2561	0.1979
259.4706	0.1866
259.6851	0.1833
259.8995	0.1928
260.114	0.1864
260.3284	0.202
260.5428	0.1898
260.7572	0.1972
260.9716	0.199
261.186	0.1976
261.4003	0.1998
261.6147	0.196
261.829	0.2023
262.0433	0.2018
262.2577	0.2018
262.472	0.1997
262.6863	0.1889
262.9005	0.1928
263.1148	0.1879
263.3291	0.1868
263.5433	0.1932
263.7576	0.1828
263.9718	0.1915
264.186	0.1886
264.4002	0.1936
264.6144	0.1871
264.8286	0.1819
265.0427	0.1818
265.2569	0.1809
265.471	0.1758
265.6851	0.1777
265.8993	0.1732
266.1134	0.1753
266.3275	0.1844
266.5415	0.179
266.7556	0.1845
266.9697	0.1774
267.1837	0.1816
267.3978	0.1833
267.6118	0.1847
267.8258	0.1934
268.0398	0.1976
268.2538	0.1908
268.4677	0.1902
268.6817	0.1874
268.8957	0.1887
269.1096	0.1831
269.3235	0.1806
269.5374	0.1745
269.7514	0.1637
269.9652	0.1699
270.1791	0.1585
270.393	0.1566
270.6068	0.1596
270.8207	0.1525
271.0345	0.154
271.2483	0.1493
271.4622	0.1586
271.676	0.1414
271.8897	0.1441
272.1035	0.1402
272.3173	0.147
272.531	0.1414
272.7448	0.1387
272.9585	0.1462
273.1722	0.1334
273.3859	0.1384
273.5996	0.1392
273.8133	0.1484
274.0269	0.1419
274.2406	0.1384
274.4542	0.1383
274.6679	0.142
274.8815	0.1382
275.0951	0.145
275.3087	0.1349
275.5223	0.1367
275.7358	0.1407
275.9494	0.1408
276.1629	0.1454
276.3765	0.1368
276.59	0.1449
276.8035	0.1473
277.017	0.142
277.2305	0.142
277.444	0.1363
277.6574	0.1455
277.8709	0.1468
278.0843	0.1486
278.2978	0.1385
278.5112	0.1451
278.7246	0.1409
278.938	0.1499
279.1513	0.1492
279.3647	0.1459
279.5781	0.1454
279.7914	0.1483
280.0047	0.1485
280.2181	0.1584
280.4314	0.1569
280.6447	0.1424
280.8579	0.1521
281.0712	0.1515
281.2845	0.1418
281.4977	0.1492
281.711	0.1521
281.9242	0.1526
282.1374	0.1502
282.3506	0.1434
282.5638	0.1572
282.7769	0.1523
282.9901	0.1509
283.2033	0.1534
283.4164	0.1528
283.6295	0.1618
283.8426	0.1505
284.0557	0.1468
284.2688	0.1496
284.4819	0.1471
284.695	0.1545
284.908	0.1559
285.1211	0.1606
285.3341	0.1513
285.5471	0.1575
285.7601	0.1538
285.9731	0.1565
286.1861	0.1651
286.3991	0.1564
286.612	0.1557
286.825	0.1593
287.0379	0.158
287.2508	0.1583
287.4637	0.1601
287.6766	0.1522
287.8895	0.1577
288.1024	0.156
288.3152	0.1612
288.5281	0.1635
288.7409	0.1544
288.9538	0.1622
289.1666	0.1609
289.3794	0.1568
289.5922	0.1599
289.8049	0.1587
290.0177	0.1617
290.2304	0.1611
290.4432	0.1583
290.6559	0.1642
290.8686	0.1622
291.0813	0.163
291.294	0.1627
291.5067	0.1575
291.7194	0.1613
291.932	0.1591
292.1447	0.1643
292.3573	0.1576
292.5699	0.1679
292.7825	0.1638
292.9951	0.1656
293.2077	0.1598
293.4203	0.159
293.6328	0.1598
293.8454	0.1634
294.0579	0.1632
294.2704	0.1655
294.4829	0.1681
294.6954	0.1626
294.9079	0.1674
295.1204	0.1627
295.3328	0.1632
295.5453	0.1544
295.7577	0.153
295.9701	0.167
296.1825	0.159
296.3949	0.1516
296.6073	0.1651
296.8197	0.1605
297.0321	0.1675
297.2444	0.1551
297.4567	0.1557
297.6691	0.1614
297.8814	0.1609
298.0937	0.1601
298.306	0.1577
298.5182	0.1488
298.7305	0.1598
298.9428	0.1568
299.155	0.1601
299.3672	0.1552
299.5794	0.155
299.7916	0.1582
300.0038	0.1568
300.216	0.1602
300.4282	0.1518
300.6403	0.1619
300.8525	0.1597
301.0646	0.1573
301.2767	0.1607
301.4888	0.1501
301.7009	0.161
301.913	0.1669
302.125	0.1627
302.3371	0.1638
302.5491	0.1513
302.7612	0.1681
302.9732	0.166
303.1852	0.1567
303.3972	0.1533
303.6092	0.1541
303.8211	0.1652
304.0331	0.1514
304.245	0.1521
304.457	0.1545
304.6689	0.1576
304.8808	0.1513
305.0927	0.1468
305.3046	0.1537
305.5164	0.1483
305.7283	0.1531
305.9401	0.1481
306.152	0.1446
306.3638	0.1557
306.5756	0.1468
306.7874	0.143
306.9992	0.1417
307.2109	0.141
307.4227	0.1403
307.6344	0.1377
307.8462	0.1369
308.0579	0.129
308.2696	0.1319
308.4813	0.1351
308.693	0.133
308.9046	0.1247
309.1163	0.1202
309.328	0.1174
309.5396	0.1273
309.7512	0.1235
309.9628	0.1181
310.1744	0.1226
310.386	0.1082
310.5976	0.1142
310.8091	0.1157
311.0207	0.119
311.2322	0.1177
311.4437	0.1141
311.6552	0.1148
311.8667	0.1053
312.0782	0.1093
312.2897	0.1068
312.5012	0.1097
312.7126	0.1007
312.924	0.1028
313.1355	0.1053
313.3469	0.111
313.5583	0.105
313.7696	0.1034
313.981	0.0953
314.1924	0.0932
314.4037	0.1
314.6151	0.0933
314.8264	0.0983
315.0377	0.0994
315.249	0.1002
315.4603	0.0956
315.6716	0.1
315.8828	0.1037
316.0941	0.101
316.3053	0.0975
316.5165	0.0899
316.7277	0.0936
316.9389	0.0953
317.1501	0.0933
317.3613	0.0919
317.5724	0.0934
317.7836	0.0967
317.9947	0.0954
318.2058	0.0963
318.417	0.0846
318.6281	0.0987
318.8391	0.0923
319.0502	0.0923
319.2613	0.0972
319.4723	0.0961
319.6834	0.0939
319.8944	0.1042
320.1054	0.0939
320.3164	0.1026
320.5274	0.1018
320.7383	0.0913
320.9493	0.0913
321.1602	0.0916
321.3712	0.1031
321.5821	0.0963
321.793	0.0924
322.0039	0.0893
322.2148	0.0979
322.4257	0.0895
322.6365	0.0963
322.8474	0.0969
323.0582	0.1062
323.269	0.0924
323.4798	0.0964
323.6906	0.0984
323.9014	0.0978
324.1122	0.1002
324.3229	0.1051
324.5337	0.0893
324.7444	0.0949
324.9551	0.0977
325.1658	0.0976
325.3765	0.0946
325.5872	0.1008
325.7979	0.0926
326.0085	0.1069
326.2192	0.0983
326.4298	0.1005
326.6404	0.1028
326.851	0.1011
327.0616	0.0907
327.2722	0.1005
327.4828	0.0992
327.6933	0.0971
327.9039	0.1035
328.1144	0.101
328.3249	0.0973
328.5354	0.0991
328.7459	0.0955
328.9564	0.099
329.1669	0.1043
329.3773	0.1021
329.5878	0.1084
329.7982	0.1088
330.0086	0.1042
330.219	0.1023
330.4294	0.0973
330.6398	0.1088
330.8502	0.1041
331.0605	0.1024
331.2708	0.0996
331.4812	0.1003
331.6915	0.1039
331.9018	0.0943
332.1121	0.1029
332.3224	0.1011
332.5326	0.0976
332.7429	0.1033
332.9531	0.1072
333.1633	0.1127
333.3735	0.1078
333.5837	0.0998
333.7939	0.1073
334.0041	0.104
334.2143	0.0994
334.4244	0.0995
334.6346	0.0973
334.8447	0.1015
335.0548	0.1019
335.2649	0.0971
335.475	0.0944
335.685	0.1103
335.8951	0.109
336.1051	0.0973
336.3152	0.1056
336.5252	0.1033
336.7352	0.104
336.9452	0.1033
337.1552	0.1023
337.3652	0.1088
337.5751	0.1102
337.7851	0.1036
337.995	0.1138
338.2049	0.1078
338.4148	0.1099
338.6247	0.1082
338.8346	0.1073
339.0445	0.1175
339.2543	0.1137
339.4642	0.1151
339.674	0.1111
339.8838	0.1
340.0936	0.1078
340.3034	0.1175
340.5132	0.116
340.7229	0.1154
340.9327	0.1168
341.1424	0.1153
341.3522	0.1122
341.5619	0.1198
341.7716	0.1162
341.9813	0.128
342.1909	0.1249
342.4006	0.1172
342.6102	0.1184
342.8199	0.1182
343.0295	0.12
343.2391	0.119
343.4487	0.1215
343.6583	0.1222
343.8679	0.1242
344.0774	0.1229
344.287	0.1242
344.4965	0.1236
344.706	0.1287
344.9155	0.1211
345.125	0.1246
345.3345	0.122
345.544	0.1173
345.7534	0.1164
345.9629	0.122
346.1723	0.1253
346.3817	0.1268
346.5911	0.1368
346.8005	0.1285
347.0099	0.1182
347.2193	0.1303
347.4286	0.1335
347.638	0.1321
347.8473	0.1248
348.0566	0.133
348.2659	0.1208
348.4752	0.1298
348.6845	0.1306
348.8937	0.1389
349.103	0.1231
349.3122	0.1351
349.5214	0.1353
349.7306	0.1308
349.9398	0.127
350.149	0.1399
350.3582	0.1324
350.5674	0.1378
350.7765	0.1344
350.9856	0.1332
351.1948	0.1397
351.4039	0.1333
351.613	0.1276
351.822	0.1424
352.0311	0.1395
352.2402	0.1427
352.4492	0.1309
352.6582	0.1427
352.8672	0.1386
353.0762	0.1503
353.2852	0.1557
353.4942	0.1487
353.7032	0.1481
353.9121	0.1433
354.1211	0.1515
354.33	0.1415
354.5389	0.1417
354.7478	0.1424
354.9567	0.1505
355.1655	0.1507
355.3744	0.1461
355.5833	0.1473
355.7921	0.1451
356.0009	0.1548
356.2097	0.1549
356.4185	0.15
356.6273	0.1552
356.8361	0.1472
357.0448	0.1566
357.2536	0.1538
357.4623	0.161
357.671	0.1566
357.8797	0.1636
358.0884	0.1618
358.2971	0.1654
358.5057	0.1574
358.7144	0.165
358.923	0.1753
359.1316	0.1625
359.3402	0.1759
359.5488	0.1638
359.7574	0.1717
359.966	0.1758
360.1746	0.1722
360.3831	0.1869
360.5916	0.181
360.8002	0.1773
361.0087	0.1724
361.2172	0.172
361.4256	0.173
361.6341	0.1729
361.8426	0.1793
362.051	0.1792
362.2594	0.1755
362.4678	0.1818
362.6762	0.1866
362.8846	0.1761
363.093	0.1811
363.3014	0.1926
363.5097	0.1844
363.718	0.1934
363.9264	0.1852
364.1347	0.1941
364.343	0.183
364.5513	0.1966
364.7595	0.1952
364.9678	0.196
365.176	0.1918
365.3842	0.1893
365.5925	0.1887
365.8007	0.1882
366.0089	0.2028
366.217	0.1992
366.4252	0.1975
366.6333	0.195
366.8415	0.1954
367.0496	0.2014
367.2577	0.2031
367.4658	0.2066
367.6739	0.2036
367.882	0.2192
368.09	0.1966
368.2981	0.2173
368.5061	0.2031
368.7141	0.2094
368.9221	0.2126
369.1301	0.214
369.3381	0.21
369.5461	0.2139
369.754	0.206
369.962	0.2081
370.1699	0.2156
370.3778	0.2058
370.5857	0.2139
370.7936	0.206
371.0015	0.2147
371.2093	0.2102
371.4172	0.2069
371.625	0.2191
371.8328	0.2213
372.0406	0.2232
372.2484	0.2165
372.4562	0.2258
372.664	0.219
372.8717	0.2109
373.0795	0.221
373.2872	0.2251
373.4949	0.2253
373.7026	0.2221
373.9103	0.2151
374.118	0.2219
374.3256	0.2175
374.5333	0.2243
374.7409	0.2182
374.9485	0.2216
375.1561	0.224
375.3637	0.2266
375.5713	0.2332
375.7789	0.2326
375.9864	0.232
376.194	0.2311
376.4015	0.2487
376.609	0.2408
376.8165	0.2316
377.024	0.2217
377.2315	0.2474
377.4389	0.2327
377.6464	0.2269
377.8538	0.2381
378.0612	0.2372
378.2686	0.2376
378.476	0.2272
378.6834	0.2401
378.8908	0.2344
379.0981	0.2522
379.3055	0.2498
379.5128	0.2385
379.7201	0.2471
379.9274	0.2404
380.1347	0.2462
380.342	0.2485
380.5492	0.243
380.7565	0.2499
380.9637	0.2575
381.1709	0.2458
381.3781	0.2483
381.5853	0.2504
381.7925	0.2567
381.9997	0.2511
382.2068	0.2583
382.4139	0.2558
382.6211	0.2545
382.8282	0.2595
383.0353	0.2548
383.2424	0.2466
383.4494	0.2621
383.6565	0.2511
383.8635	0.2645
384.0706	0.2421
384.2776	0.2558
384.4846	0.2591
384.6916	0.2462
384.8986	0.2563
385.1055	0.2652
385.3125	0.2686
385.5194	0.2595
385.7263	0.2532
385.9333	0.2632
386.1402	0.2614
386.347	0.2689
386.5539	0.2543
386.7608	0.2553
386.9676	0.2572
387.1744	0.255
387.3813	0.252
387.5881	0.254
387.7948	0.2625
388.0016	0.2503
388.2084	0.2532
388.4151	0.2457
388.6219	0.2528
388.8286	0.2614
389.0353	0.2438
389.242	0.2546
389.4487	0.2412
389.6553	0.258
389.862	0.2317
390.0686	0.2391
390.2753	0.2511
390.4819	0.2414
390.6885	0.2494
390.8951	0.2406
391.1016	0.2553
391.3082	0.2434
391.5147	0.2489
391.7213	0.2378
391.9278	0.2337
392.1343	0.2395
392.3408	0.2375
392.5473	0.2323
392.7537	0.241
392.9602	0.2202
393.1666	0.2294
393.373	0.2367
393.5794	0.2326
393.7858	0.2243
393.9922	0.222
394.1986	0.2168
394.4049	0.2312
394.6113	0.2364
394.8176	0.2206
395.0239	0.2188
395.2302	0.2187
395.4365	0.2257
395.6428	0.218
395.8491	0.2054
396.0553	0.2131
396.2615	0.2232
396.4678	0.2328
396.674	0.2038
396.8802	0.2169
397.0863	0.2221
397.2925	0.2197
397.4987	0.2194
397.7048	0.2153
397.9109	0.2169
398.117	0.2119
398.3231	0.2208
398.5292	0.2094
398.7353	0.2196
398.9413	0.211
399.1474	0.2075
399.3534	0.2072
399.5594	0.2074
399.7654	0.2105
399.9714	0.2156
400.1774	0.2198
400.3833	0.2214
400.5893	0.2211
400.7952	0.2127
401.0011	0.2132
401.207	0.1956
401.4129	0.1988
401.6188	0.206
401.8247	0.2084
402.0305	0.2057
402.2364	0.2181
402.4422	0.21
402.648	0.2151
402.8538	0.211
403.0596	0.2045
403.2654	0.2068
403.4711	0.2023
403.6768	0.2244
403.8826	0.2124
404.0883	0.2068
404.294	0.2176
404.4997	0.212
404.7054	0.2099
404.911	0.21
405.1167	0.2099
405.3223	0.2135
405.5279	0.2159
405.7335	0.2065
405.9391	0.2175
406.1447	0.2077
406.3502	0.2037
406.5558	0.2079
406.7613	0.2072
406.9668	0.2078
407.1724	0.2068
407.3778	0.2099
407.5833	0.2128
407.7888	0.2224
407.9942	0.216
408.1997	0.2139
408.4051	0.2098
408.6105	0.2272
408.8159	0.2204
409.0213	0.2051
409.2267	0.2086
409.432	0.2119
409.6374	0.2259
409.8427	0.2218
410.048	0.1981
410.2533	0.205
410.4586	0.2053
410.6639	0.2078
410.8691	0.2107
411.0744	0.2039
411.2796	0.2049
411.4848	0.2073
411.69	0.2142
411.8952	0.2093
412.1004	0.199
412.3056	0.2126
412.5107	0.2139
412.7158	0.2065
412.921	0.2159
413.1261	0.1934
413.3312	0.2258
413.5362	0.2038
413.7413	0.1954
413.9464	0.1987
414.1514	0.2009
414.3564	0.2044
414.5614	0.204
414.7664	0.2081
414.9714	0.1954
415.1764	0.2067
415.3813	0.2105
415.5863	0.2045
415.7912	0.2058
415.9961	0.2073
416.201	0.201
416.4059	0.1992
416.6108	0.202
416.8156	0.2092
417.0205	0.2183
417.2253	0.2157
417.4301	0.2029
417.6349	0.1923
417.8397	0.187
418.0445	0.1997
418.2492	0.1963
418.454	0.1993
418.6587	0.192
418.8634	0.2074
419.0681	0.1982
419.2728	0.1961
419.4775	0.1999
419.6822	0.1945
419.8868	0.1959
420.0915	0.1944
420.2961	0.1899
420.5007	0.1942
420.7053	0.1895
420.9099	0.1822
421.1144	0.1972
421.319	0.1835
421.5235	0.194
421.728	0.1866
421.9325	0.1841
422.137	0.1735
422.3415	0.2032
422.546	0.1926
422.7504	0.1972
422.9549	0.1928
423.1593	0.1833
423.3637	0.1822
423.5681	0.1824
423.7725	0.1902
423.9769	0.1719
424.1812	0.1786
424.3856	0.1809
424.5899	0.1885
424.7942	0.1736
424.9985	0.1845
425.2028	0.1656
425.4071	0.1756
425.6113	0.1666
425.8156	0.1591
426.0198	0.183
426.224	0.1654
426.4282	0.1636
426.6324	0.1751
426.8366	0.1652
427.0407	0.1732
427.2449	0.1806
427.449	0.1631
427.6531	0.1555
427.8572	0.1547
428.0613	0.1548
428.2654	0.1528
428.4694	0.1707
428.6735	0.1575
428.8775	0.1595
429.0815	0.1467
429.2855	0.1562
429.4895	0.1444
429.6935	0.1459
429.8975	0.1472
430.1014	0.1413
430.3053	0.1434
430.5093	0.1509
430.7132	0.1394
430.9171	0.1467
431.1209	0.1365
431.3248	0.1495
431.5286	0.1337
431.7325	0.1305
431.9363	0.1352
432.1401	0.1366
432.3439	0.1232
432.5477	0.1375
432.7514	0.1275
432.9552	0.1203
433.1589	0.1201
433.3627	0.126
433.5664	0.1184
433.7701	0.1185
433.9737	0.1163
434.1774	0.1101
434.3811	0.1067
434.5847	0.1137
434.7883	0.1104
434.9919	0.12
435.1955	0.1032
435.3991	0.1093
435.6027	0.1049
435.8062	0.0955
436.0098	0.1105
436.2133	0.1008
436.4168	0.1049
436.6203	0.107
436.8238	0.0933
437.0272	0.0879
437.2307	0.0961
437.4341	0.0963
437.6375	0.0963
437.841	0.0869
438.0443	0.096
438.2477	0.0972
438.4511	0.0925
438.6545	0.0824
438.8578	0.0896
439.0611	0.0877
439.2644	0.0964
439.4677	0.0812
439.671	0.0823
439.8743	0.083
440.0775	0.0704
440.2808	0.0738
440.484	0.078
440.6872	0.0588
440.8904	0.0656
441.0936	0.0725
441.2967	0.0693
441.4999	0.0634
441.703	0.0561
441.9062	0.0654
442.1093	0.0611
442.3124	0.065
442.5155	0.0517
442.7185	0.05
442.9216	0.0511
443.1246	0.0563
443.3276	0.0596
443.5307	0.0495
443.7337	0.054
443.9366	0.0678
444.1396	0.0481
444.3426	0.0565
444.5455	0.0444
444.7484	0.0423
444.9513	0.0473
445.1542	0.0502
445.3571	0.0452
445.56	0.0479
445.7628	0.0358
445.9657	0.0457
446.1685	0.0405
446.3713	0.0437
446.5741	0.0446
446.7769	0.0421
446.9797	0.0351
447.1824	0.039
447.3852	0.04
447.5879	0.035
447.7906	0.0341
447.9933	0.034
448.196	0.0364
448.3986	0.0257
448.6013	0.033
448.8039	0.0278
449.0066	0.0323
449.2092	0.0255
449.4118	0.028
449.6143	0.0249
449.8169	0.0185
450.0195	0.0187
450.222	0.0179
450.4245	0.0174
450.627	0.026
450.8295	0.021
451.032	0.0259
451.2345	0.0142
451.4369	0.0225
451.6394	0.0205
451.8418	0.0191
452.0442	0.0162
452.2466	0.0202
452.449	0.0207
452.6513	0.0247
452.8537	0.0172
453.056	0.0127
453.2583	0.0174
453.4607	0.0239
453.663	0.0151
453.8652	0.0171
454.0675	0.012
454.2697	0.0137
454.472	0.0119
454.6742	0.0217
454.8764	0.0167
455.0786	0.0222
455.2808	0.0149
455.4829	0.0086
455.6851	0.003
455.8872	0.0074
456.0893	0.0058
456.2915	0.0047
456.4935	0.0065
456.6956	0.0074
456.8977	0.0085
457.0997	0.0051
457.3018	0.0086
457.5038	0.0093
457.7058	0.0006
457.9078	0.011
458.1098	0.0062
458.3117	0.0103
458.5137	0.0054
458.7156	0.0128
458.9175	0.0033
459.1194	0.0156
459.3213	0.0114
459.5232	-0.001
459.725	-0.0056
459.9269	0.0041
460.1287	0.0081
460.3305	0.0083
460.5323	0.0103
460.7341	0.0061
460.9359	0.0054
461.1376	0.001
461.3394	0.0036
461.5411	0.0094
461.7428	0.002
461.9445	0.0014
462.1462	0.0029
462.3479	0.0001
462.5495	0.0079
462.7512	0.0162
462.9528	0.0087
463.1544	-0.0001
463.356	-0.0008
463.5576	-0.0029
463.7592	0.0017
463.9607	0.0002
464.1623	-0.004
464.3638	0.0058
464.5653	0.0079
464.7668	-0.0032
464.9683	0.009
465.1697	-0.0013
465.3712	-0.0029
465.5726	0.0016
465.7741	-0.0021
465.9755	-0.006
466.1769	-0.0091
466.3782	0.0001
466.5796	-0.0049
466.7809	-0.007
466.9823	-0.0075
467.1836	0.0017
467.3849	0.0029
467.5862	-0.0041
467.7875	-0.0092
467.9887	-0.0052
468.19	-0.0039
468.3912	0.0032
468.5924	0.0027
468.7936	-0.0116
468.9948	0.006
469.196	-0.0047
469.3972	0.0111
469.5983	0.0151
469.7994	-0.0104
470.0006	-0.0067
470.2017	-0.002
470.4027	0.0031
470.6038	0.0036
470.8049	-0.0097
471.0059	0.003
471.2069	0.0086
471.408	-0.0002
471.6089	-0.0016
471.8099	-0.0066
472.0109	-0.0097
472.2119	-0.0108
472.4128	-0.0043
472.6137	-0.0028
472.8146	-0.0089
473.0155	-0.0078
473.2164	-0.0127
473.4173	-0.0053
473.6181	0.0043
473.819	-0.0057
474.0198	-0.0049
474.2206	0.0008
474.4214	-0.0118
474.6222	-0.0034
474.8229	-0.0104
475.0237	-0.0009
475.2244	-0.0001
475.4251	-0.0057
475.6258	0.0069
475.8265	-0.0045
476.0272	-0.0083
476.2278	0.002
476.4285	-0.0023
476.6291	-0.0053
476.8297	-0.0035
477.0303	-0.0049
477.2309	0.0029
477.4315	-0.003
477.632	-0.006
477.8326	0.0014
478.0331	-0.0008
478.2336	-0.0046
478.4341	-0.0089
478.6346	0.0004
478.8351	-0.0085
479.0355	-0.009
479.236	-0.0004
479.4364	-0.0064
479.6368	0.0063
479.8372	-0.0002
480.0376	-0.0075
480.2379	-0.0086
480.4383	-0.0048
480.6386	-0.0107
480.8389	-0.0059
481.0392	-0.0096
481.2395	-0.0183
481.4398	0.0011
481.6401	-0.0072
481.8403	-0.0063
482.0405	-0.0068
482.2408	-0.0012
482.441	-0.0054
482.6411	0.0079
482.8413	-0.0022
483.0415	-0.0112
483.2416	-0.0034
483.4417	-0.013
483.6419	0
483.8419	-0.0033
484.042	-0.0056
484.2421	-0.007
484.4422	-0.0095
484.6422	-0.0093
484.8422	-0.0097
485.0422	-0.0081
485.2422	-0.0052
485.4422	-0.0053
485.6422	-0.0058
485.8421	-0.0037
486.042	-0.0042
486.242	-0.0084
486.4419	-0.0055
486.6417	-0.0082
486.8416	-0.0078
487.0415	-0.003
487.2413	0.0042
487.4411	-0.0075
487.641	-0.0044
487.8408	-0.0066
488.0405	-0.0083
488.2403	-0.0088
488.4401	-0.0105
488.6398	-0.005
488.8395	-0.0106
489.0392	-0.0067
489.2389	0.0003
489.4386	-0.0093
489.6383	-0.0041
489.8379	-0.0095
490.0376	-0.0065
490.2372	-0.0111
490.4368	-0.0103
490.6364	-0.0074
490.836	-0.0142
491.0355	-0.0015
491.2351	-0.01
491.4346	-0.0125
491.6341	-0.0102
491.8336	-0.0067
492.0331	-0.0039
492.2326	-0.0114
492.432	0.003
492.6315	-0.0117
492.8309	-0.0046
493.0303	-0.0032
493.2297	-0.0086
493.4291	-0.0105
493.6284	-0.0045
493.8278	-0.0067
494.0271	0.0021
494.2264	-0.0102
494.4257	-0.0006
494.625	-0.0031
494.8243	-0.0012
495.0236	-0.0131
495.2228	-0.0078
495.422	-0.0058
495.6213	-0.0059
495.8205	0.0008
496.0196	-0.0077
496.2188	-0.0023
496.418	-0.0045
496.6171	-0.0063
496.8162	-0.0055
497.0153	-0.0029
497.2144	-0.0026
497.4135	0.0028
497.6126	-0.008
497.8116	0.0004
498.0107	-0.0043
498.2097	-0.0002
498.4087	-0.0067
498.6077	-0.0076
498.8067	-0.0107
499.0056	-0.0056
499.2046	-0.0027
499.4035	-0.0135
499.6024	-0.0071
499.8013	-0.004
500.0002	-0.0031
500.199	-0.0019
500.3979	0.0057
500.5967	-0.002
500.7956	-0.0131
500.9944	-0.0077
501.1932	-0.009
501.3919	-0.0149
501.5907	-0.006
501.7895	-0.0047
501.9882	-0.0119
502.1869	-0.0008
502.3856	0.0037
502.5843	-0.0129
502.783	-0.0125
502.9816	-0.0076
503.1803	0.0001
503.3789	-0.0011
503.5775	0.0007
503.7761	-0.0143
503.9747	-0.0089
504.1732	-0.0017
504.3718	0.0013
504.5703	-0.0059
504.7689	-0.006
504.9674	-0.0047
505.1658	-0.0066
505.3643	-0.0073
505.5628	-0.0042
505.7612	-0.0131
505.9597	-0.0087
506.1581	-0.0064
506.3565	-0.0059
506.5549	-0.0048
506.7532	-0.0136
506.9516	-0.0044
507.1499	-0.007
507.3482	-0.0074
507.5465	-0.0021
507.7448	-0.0039
507.9431	-0.0041
508.1414	-0.0054
508.3396	-0.0068
508.5379	-0.0005
508.7361	-0.0016
508.9343	-0.0118
509.1325	-0.0058
509.3306	0.0027
509.5288	-0.0047
509.7269	-0.0085
509.9251	-0.004
510.1232	-0.0028
510.3213	-0.008
510.5193	-0.0063
510.7174	-0.003
510.9154	-0.008
511.1135	-0.01
511.3115	-0.0053
511.5095	-0.0115
511.7075	-0.0023
511.9055	-0.0101
512.1034	-0.0064
512.3014	-0.0054
512.4993	-0.0086
512.6972	-0.0059
512.8951	-0.0037
513.093	-0.0073
513.2908	-0.0015
513.4887	-0.0028
513.6865	-0.0039
513.8844	-0.0013
514.0822	-0.0032
514.2799	-0.0135
514.4777	-0.0078
514.6755	-0.004
514.8732	-0.0089
515.0709	-0.0065
515.2687	-0.0101
515.4664	-0.0086
515.664	-0.0117
515.8617	-0.0127
516.0594	-0.0038
516.257	-0.0026
516.4546	-0.013
516.6522	-0.0024
516.8498	-0.0091
517.0474	-0.0012
517.2449	-0.0076
517.4425	-0.0044
517.64	-0.0047
517.8375	-0.0108
518.035	-0.0048
518.2325	-0.0131
518.43	-0.0025
518.6274	-0.0088
518.8249	0.0014
519.0223	-0.0094
519.2197	-0.0007
519.4171	-0.0041
519.6145	-0.0048
519.8118	-0.0057
520.0092	-0.0006
520.2065	-0.0137
520.4038	-0.0055
520.6011	-0.0047
520.7984	-0.0065
520.9956	-0.0077
521.1929	-0.0111
521.3901	-0.0127
521.5874	-0.0109
521.7846	0.0013
521.9818	-0.0104
522.1789	-0.0033
522.3761	-0.0108
522.5732	-0.0052
522.7704	-0.0168
522.9675	-0.0048
523.1646	-0.0042
523.3617	-0.0072
523.5587	-0.0054
523.7558	0.0045
523.9528	-0.0005
524.1498	-0.0089
524.3468	-0.001
524.5438	-0.0019
524.7408	-0.0087
524.9378	-0.0119
525.1347	0.0083
525.3316	0.0011
525.5285	-0.0061
525.7254	-0.0131
525.9223	-0.0042
526.1192	0.0003
526.316	-0.0008
526.5129	-0.0063
526.7097	-0.0169
526.9065	-0.0088
527.1033	-0.0027
527.3	-0.0032
527.4968	-0.011
527.6935	-0.0051
527.8903	-0.0035
528.087	-0.0126
528.2837	-0.0037
528.4804	-0.0088
528.677	-0.0009
528.8737	-0.0122
529.0703	-0.0016
529.2669	0.0039
529.4635	-0.0099
529.6601	-0.009
529.8567	-0.0019
530.0532	-0.0015
530.2498	-0.0054
530.4463	-0.0036
530.6428	-0.0024
530.8393	0.0007
531.0358	-0.0126
531.2322	-0.0143
531.4287	-0.0125
531.6251	-0.0049
531.8215	-0.0015
532.0179	-0.0065
532.2143	0.0014
532.4107	-0.0051
532.607	-0.0051
532.8034	-0.0062
532.9997	-0.0067
533.196	-0.0074
533.3923	-0.0057
533.5886	0.0034
533.7848	-0.0037
533.9811	-0.0053
534.1773	-0.0081
534.3735	-0.0023
534.5697	-0.0041
534.7659	0.0034
534.9621	0.0027
535.1582	-0.0069
535.3544	-0.0055
535.5505	-0.0101
535.7466	-0.0034
535.9427	0.0001
536.1387	-0.0001
536.3348	-0.001
536.5308	-0.0029
536.7269	0.0002
536.9229	-0.0064
537.1189	-0.0029
537.3148	-0.0028
537.5108	-0.0003
537.7068	-0.0086
537.9027	-0.0072
538.0986	-0.0003
538.2945	-0.0001
538.4904	-0.0113
538.6863	-0.0075
538.8821	-0.0094
539.078	-0.0083
539.2738	-0.0095
539.4696	-0.0034
539.6654	-0.0121
539.8611	-0.0037
540.0569	-0.0048
540.2526	-0.0048
540.4484	0.005
540.6441	-0.0019
540.8398	-0.0054
541.0355	-0.0074
541.2311	0.0031
541.4268	-0.0067
541.6224	-0.0041
541.818	-0.0041
542.0136	-0.0108
542.2092	-0.0041
542.4048	-0.0067
542.6003	-0.0083
542.7959	-0.0003
542.9914	-0.0084
543.1869	-0.0019
543.3824	-0.0078
543.5779	-0.0112
543.7734	-0.013
543.9688	-0.0123
544.1642	-0.0117
544.3596	-0.0109
544.555	-0.0011
544.7504	-0.0103
544.9458	-0.0049
545.1411	0.0056
545.3365	-0.005
545.5318	0.0047
545.7271	0.0012
545.9224	0.0023
546.1177	-0.0109
546.3129	-0.0014
546.5081	-0.0041
546.7034	-0.0065
546.8986	-0.0051
547.0938	-0.0042
547.289	-0.0064
547.4841	-0.0067
547.6793	-0.003
547.8744	-0.0005
548.0695	-0.0053
548.2646	-0.0074
548.4597	0.0004
548.6548	-0.0106
548.8498	-0.008
549.0448	0.004
549.2399	-0.004
549.4349	0.0023
549.6298	-0.0051
549.8248	-0.0073
550.0198	-0.0061
550.2147	-0.0002
550.4096	-0.0062
550.6045	-0.0071
550.7994	0.0008
550.9943	-0.0007
551.1892	-0.008
551.384	-0.0131
551.5788	-0.0107
551.7737	-0.0041
551.9685	-0.0101
552.1632	-0.0018
552.358	-0.0043
552.5528	-0.0032
552.7475	-0.0107
552.9422	-0.0127
553.1369	-0.0055
553.3316	-0.0047
553.5263	-0.0078
553.7209	-0.004
553.9156	-0.0045
554.1102	-0.0092
554.3048	-0.0124
554.4994	-0.004
554.694	0.0011
554.8885	-0.0056
555.0831	-0.0066
555.2776	0.0027
555.4721	-0.0031
555.6666	-0.0023
555.8611	-0.003
556.0555	-0.005
556.25	-0.0009
556.4444	-0.0057
556.6388	-0.0118
556.8332	-0.0018
557.0276	-0.0074
557.222	-0.0018
557.4163	0.0052
557.6107	-0.0058
557.805	-0.0072
557.9993	-0.0021
558.1936	-0.0105
558.3879	0.0024
558.5821	-0.0026
558.7764	-0.0054
558.9706	-0.0034
559.1648	-0.0035
559.359	-0.005
559.5532	-0.0082
559.7473	-0.0017
559.9415	-0.0082
560.1356	-0.0079
560.3297	-0.0096
560.5238	-0.0069
560.7179	-0.007
560.9119	0.0021
561.106	0.0029
561.3	0.0004
561.494	-0.0075
561.688	-0.0033
561.882	-0.0075
562.076	-0.0035
562.2699	-0.0009
562.4639	-0.0077
562.6578	-0.0066
562.8517	-0.0029
563.0456	0.0041
563.2395	-0.0112
563.4333	0.0023
563.6272	-0.0052
563.821	-0.0055
564.0148	0.0005
564.2086	-0.0067
564.4024	-0.0044
564.5961	-0.0017
564.7899	-0.0005
564.9836	0.0017
565.1773	-0.002
565.371	-0.0036
565.5647	-0.0034
565.7584	0.0025
565.952	0.0007
566.1456	-0.001
566.3393	0.0001
566.5329	-0.0044
566.7264	-0.0034
566.92	-0.0027
567.1136	-0.0037
567.3071	-0.0015
567.5006	-0.0002
567.6941	-0.0061
567.8876	-0.006
568.0811	-0.0066
568.2745	-0.0052
568.468	-0.0074
568.6614	-0.0046
568.8548	-0.0058
569.0482	-0.0058
569.2416	-0.0009
569.4349	-0.0008
569.6283	-0.0066
569.8216	-0.0053
570.0149	-0.0062
570.2082	-0.0056
570.4015	-0.0035
570.5947	-0.0089
570.788	-0.0053
570.9812	-0.0033
571.1744	-0.0095
571.3676	-0.0045
571.5608	-0.0056
571.754	-0.0068
571.9471	-0.0041
572.1402	-0.0012
572.3333	-0.0025
572.5264	0.0006
572.7195	0.0002
572.9126	-0.0055
573.1057	-0.0036
573.2987	0.0005
573.4917	-0.0022
573.6847	-0.0025
573.8777	-0.0099
574.0707	-0.0048
574.2636	-0.0072
574.4566	-0.006
574.6495	0.0009
574.8424	-0.0037
575.0353	-0.0021
575.2281	0.0035
575.421	-0.0073
575.6138	-0.0036
575.8067	0.0012
575.9995	-0.0008
576.1923	-0.0036
576.385	-0.0045
576.5778	-0.0024
576.7706	0.002
576.9633	-0.0015
577.156	0.0015
577.3487	0.001
577.5414	0.0032
577.734	0.0022
577.9267	0.002
578.1193	-0.005
578.3119	0.0021
578.5045	-0.001
578.6971	-0.0007
578.8897	-0.0064
579.0822	-0.003
579.2747	0.0033
579.4673	-0.0044
579.6598	-0.0001
579.8522	-0.0025
580.0447	-0.0024
580.2372	0.0012
580.4296	0.0071
580.622	0.0013
580.8144	-0.0037
581.0068	-0.0008
581.1992	0.0039
581.3915	-0.0003
581.5839	-0.0025
581.7762	-0.0019
581.9685	0.002
582.1608	-0.0022
582.353	0.0031
582.5453	-0.0035
582.7375	-0.0024
582.9298	-0.0061
583.122	0.005
583.3142	-0.0041
583.5063	-0.0065
583.6985	0.0007
583.8906	-0.0015
584.0827	-0.0039
584.2749	-0.0051
584.4669	-0.0051
584.659	-0.0071
584.8511	-0.0071
585.0431	-0.0039
585.2352	-0.0078
585.4272	-0.0062
585.6192	-0.0031
585.8111	-0.0058
586.0031	-0.0053
586.195	-0.0056
586.387	-0.0044
586.5789	0.0005
586.7708	-0.0108
586.9627	-0.0032
587.1545	-0.0076
587.3464	-0.0081
587.5382	-0.006
587.73	-0.006
587.9218	-0.0032
588.1136	-0.0037
588.3053	0.0006
588.4971	-0.0088
588.6888	-0.0045
588.8805	-0.0062
589.0722	-0.003
589.2639	-0.0034
589.4556	-0.0029
589.6472	-0.0052
589.8389	-0.0026
590.0305	-0.0052
590.2221	-0.0027
590.4137	-0.0047
590.6052	-0.0044
590.7968	-0.0025
590.9883	-0.0047
591.1798	-0.0096
591.3713	0.0036
591.5628	-0.0061
591.7543	-0.0021
591.9458	-0.0015
592.1372	-0.0025
592.3286	-0.0015
592.52	-0.0046
592.7114	0.0043
592.9028	-0.0012
593.0941	-0.0027
593.2855	-0.0026
593.4768	-0.0009
593.6681	0.0019
593.8594	0.0009
594.0506	-0.0009
594.2419	0.0019
594.4331	-0.0032
594.6244	-0.0038
594.8156	-0.0058
595.0067	-0.0022
595.1979	-0.0043
595.3891	-0.0045
595.5802	-0.0059
595.7713	-0.0018
595.9624	0.0014
596.1535	0.0035
596.3446	-0.001
596.5357	0.0041
596.7267	-0.0068
596.9177	0.0012
597.1087	-0.0029
597.2997	0.002
597.4907	-0.0045
597.6817	0.0014
597.8726	-0.0035
598.0635	-0.0033
598.2544	-0.0067
598.4453	-0.0056
598.6362	-0.0031
598.827	-0.0061
599.0179	-0.0037
599.2087	-0.0136
599.3995	-0.0097
599.5903	-0.0039
599.7811	-0.0068
599.9718	-0.0012
600.1626	-0.0004
600.3533	-0.003
600.544	-0.0049
600.7347	-0.0012
600.9254	-0.0029
601.116	-0.0071
601.3067	-0.004
601.4973	-0.007
601.6879	-0.0018
601.8785	-0.0052
602.0691	-0.0078
602.2596	-0.0051
602.4502	-0.0041
602.6407	-0.0018
602.8312	-0.0063
603.0217	-0.0045
603.2122	-0.0001
603.4027	-0.0021
603.5931	-0.0025
603.7835	-0.0024
603.9739	-0.0031
604.1643	-0.001
604.3547	-0.0021
604.5451	-0.007
604.7354	-0.0014
604.9257	-0.0044
605.116	-0.0034
605.3063	-0.004
605.4966	-0.0031
605.6869	-0.0064
605.8771	0.0018
606.0673	-0.0061
606.2575	-0.0054
606.4477	-0.0058
606.6379	-0.01
606.8281	-0.0105
607.0182	-0.0087
607.2083	-0.0002
607.3985	-0.0048
607.5885	0.0006
607.7786	-0.0055
607.9687	-0.0005
608.1587	-0.0054
608.3488	-0.0036
608.5388	0.0004
608.7288	-0.0098
608.9187	-0.0035
609.1087	-0.0041
609.2986	-0.0043
609.4886	0
609.6785	0.0003
609.8684	-0.0044
610.0582	-0.0017
610.2481	-0.0013
610.4379	0.0021
610.6278	-0.0021
610.8176	-0.0015
611.0074	-0.0023
611.1971	-0.001
611.3869	-0.007
611.5766	-0.0019
611.7664	0.0009
611.9561	-0.0032
612.1458	0.0003
612.3354	-0.0051
612.5251	-0.0051
612.7147	-0.008
612.9044	-0.0069
613.094	0.0021
613.2836	-0.0012
613.4731	-0.0049
613.6627	-0.0022
613.8522	-0.0018
614.0417	0.0003
614.2313	-0.0041
614.4207	-0.0034
614.6102	0.001
614.7997	-0.0045
614.9891	-0.0045
615.1785	-0.0101
615.3679	-0.0003
615.5573	-0.0026
615.7467	0.0012
615.9361	0.0014
616.1254	-0.0043
616.3147	-0.003
616.504	-0.0022
616.6933	-0.0041
616.8826	-0.006
617.0718	-0.0048
617.2611	0.001
617.4503	-0.0021
617.6395	-0.0036
617.8287	-0.0014
618.0179	0.0021
618.207	-0.0046
618.3961	-0.0038
618.5853	-0.0055
618.7744	-0.0008
618.9634	0.0045
619.1525	-0.0062
619.3416	-0.0088
619.5306	-0.0016
619.7196	-0.0016
619.9086	0.0016
620.0976	-0.005
620.2866	-0.001
620.4755	-0.0046
620.6645	-0.0052
620.8534	-0.0036
621.0423	-0.0069
621.2312	-0.0089
621.42	-0.0014
621.6089	0.0012
621.7977	-0.0055
621.9865	0.0006
622.1753	0.0027
622.3641	0.0033
622.5529	0.0005
622.7416	-0.002
622.9303	0.0026
623.1191	-0.0018
623.3078	-0.0058
623.4964	0.0001
623.6851	0.0027
623.8737	0.0006
624.0624	0.0009
624.251	0.0014
624.4396	-0.0017
624.6282	0.0005
624.8167	0.0038
625.0053	-0.0017
625.1938	0.0027
625.3823	0.0022
625.5708	-0.0027
625.7593	-0.0021
625.9477	-0.0093
626.1362	-0.0003
626.3246	-0.0042
626.513	-0.0037
626.7014	-0.005
626.8898	-0.0018
627.0781	-0.0037
627.2665	-0.0064
627.4548	-0.0074
627.6431	-0.0006
627.8314	-0.0062
628.0197	-0.0032
628.2079	-0.0001
628.3962	0.0002
628.5844	0.0042
628.7726	-0.0035
628.9608	-0.002
629.1489	0.0017
629.3371	0.0025
629.5252	0.0014
629.7134	0.0015
629.9015	0.0004
630.0895	-0.0036
630.2776	-0.0009
630.4657	-0.0034
630.6537	-0.0014
630.8417	-0.0014
631.0297	-0.0034
631.2177	0
631.4057	0.0008
631.5936	0.0025
631.7815	-0.0038
631.9695	-0.0036
632.1574	-0.0036
632.3452	-0.0058
632.5331	-0.0092
632.7209	-0.0051
632.9088	-0.0072
633.0966	-0.0034
633.2844	-0.0083
633.4722	-0.0032
633.6599	-0.0016
633.8477	0.0021
634.0354	-0.0078
634.2231	-0.0011
634.4108	-0.0041
634.5985	-0.0038
634.7861	-0.0046
634.9738	-0.0029
635.1614	-0.0046
635.349	-0.0009
635.5366	-0.0055
635.7242	-0.0026
635.9117	0.0013
636.0993	-0.0042
636.2868	-0.0066
636.4743	-0.0008
636.6618	-0.0067
636.8492	-0.0006
637.0367	-0.0017
637.2241	-0.0011
637.4115	-0.006
637.5989	0.0012
637.7863	-0.0023
637.9737	-0.0036
638.161	-0.0029
638.3484	-0.0035
638.5357	0.0001
638.723	-0.0028
638.9103	0.0031
639.0975	0.0009
639.2848	0.0009
639.472	0.0055
639.6592	0.0054
639.8464	-0.0024
640.0336	-0.0027
640.2208	-0.0013
640.4079	-0.0017
640.595	-0.0002
640.7821	-0.0005
640.9692	0.0033
641.1563	0.0081
641.3434	0.0036
641.5304	-0.0015
641.7174	0.0015
641.9044	0.0061
642.0914	0.0024
642.2784	0.0017
642.4653	0.0043
642.6523	0.0014
642.8392	0.0047
643.0261	0.0054
643.213	-0.0003
643.3999	-0.0038
643.5867	0.0005
643.7735	-0.0002
643.9604	-0.0034
644.1472	-0.0017
644.3339	-0.0031
644.5207	-0.0025
644.7075	-0.0028
644.8942	-0.0029
645.0809	-0.0009
645.2676	-0.0047
645.4543	0.0065
645.6409	-0.0019
645.8276	-0.0012
646.0142	-0.0007
646.2008	-0.0044
646.3874	-0
646.574	-0.0073
646.7605	0.001
646.9471	-0.0069
647.1336	-0.0025
647.3201	-0.0034
647.5066	0.0011
647.6931	-0.0044
647.8795	-0.0031
648.0659	-0.0029
648.2524	-0.0052
648.4388	-0.0039
648.6252	0.0014
648.8115	-0.0063
648.9979	-0.0031
649.1842	-0.0106
649.3705	-0.0045
649.5568	-0.0019
649.7431	-0.0009
649.9294	-0.0062
650.1156	-0.0002
650.3018	-0.0056
650.488	-0.0079
650.6742	-0.0061
650.8604	0.0022
651.0466	-0.0057
651.2327	-0.0002
651.4188	0.0027
651.6049	0.002
651.791	-0.0004
651.9771	-0.0009
652.1632	0.004
652.3492	0.0022
652.5352	-0.0028
652.7212	-0.0019
652.9072	0.0037
653.0932	0.0006
653.2791	-0.0034
653.465	-0.0009
653.651	-0.0057
653.8369	-0.0002
654.0227	-0.0017
654.2086	-0.0028
654.3944	-0.0071
654.5803	-0.0055
654.7661	-0.0041
654.9519	-0.0035
655.1377	-0.002
655.3234	-0
655.5092	-0
655.6949	-0
655.8806	-0
656.0663	-0
656.2519	-0
656.4376	-0.0047
656.6232	-0.0072
656.8088	-0.0051
656.9945	-0.002
657.18	0
657.3656	-0.0023
657.5511	-0.0054
657.7367	-0.0022
657.9222	-0.0061
658.1077	-0.003
658.2932	-0.003
658.4786	-0.0017
658.6641	-0.003
658.8495	-0.0023
659.0349	-0.0031
659.2203	-0.0071
659.4057	-0.0069
659.591	-0.0023
659.7764	-0.0057
659.9617	-0.0023
660.147	-0.0089
660.3323	-0.0048
660.5176	-0.0033
660.7028	-0.007
660.888	-0.0014
661.0733	0.0005
661.2585	-0.0081
661.4436	-0.0038
661.6288	-0.0004
661.8139	0.0024
661.9991	-0.0012
662.1842	0.0022
662.3693	-0.005
662.5544	-0.0031
662.7394	-0.0032
662.9245	-0.0015
663.1095	0.0006
663.2945	0.0015
663.4795	-0.0042
663.6644	-0.0055
663.8494	-0.0076
664.0343	-0.0059
664.2193	-0.0094
664.4042	-0.0088
664.589	-0.0007
664.7739	-0.0055
664.9587	0.0021
665.1436	0.0032
665.3284	-0.0007
665.5132	-0.0021
665.698	0.0049
665.8827	0.0008
666.0675	-0.0098
666.2522	-0.0118
666.4369	-0.0097
666.6216	-0.0095
666.8063	-0.0062
666.9909	-0.0129
667.1756	-0.0067
667.3602	-0.0098
667.5448	-0.0062
667.7294	-0.0024
667.9139	-0.0078
668.0985	-0.0069
668.283	-0.0039
668.4675	-0.0126
668.652	-0.0115
668.8365	-0.0141
669.0209	-0.0099
669.2054	-0.0034
669.3898	-0.0078
669.5742	-0.0108
669.7586	0.0006
669.943	-0.0026
670.1273	-0.0099
670.3117	-0.0043
670.496	-0.009
670.6803	0.0013
670.8646	-0.0006
671.0488	0.001
671.2331	-0.0009
671.4173	-0.0027
671.6015	-0.0031
671.7857	-0.005
671.9699	-0.0043
672.1541	-0.0045
672.3382	-0.0083
672.5223	-0.009
672.7064	-0.0086
672.8905	-0.01
673.0746	-0.0073
673.2587	-0.0169
673.4427	-0.014
673.6267	-0.0118
673.8107	-0.0136
673.9947	-0.0117
674.1787	-0.0091
674.3626	-0.0082
674.5465	-0.0035
674.7304	0.0014
674.9143	-0.002
675.0982	-0.0027
675.2821	-0.0041
675.4659	-0.003
675.6497	0.0001
675.8335	-0.001
676.0173	-0.0078
676.2011	-0.0066
676.3849	-0.0038
676.5686	0.0021
676.7523	-0.0046
676.936	-0.002
677.1197	-0.0014
677.3034	-0.004
677.487	-0.005
677.6706	-0.0057
677.8542	-0.0038
678.0378	-0.002
678.2214	-0.0088
678.405	-0.0062
678.5885	-0.0063
678.772	0.0003
678.9555	0.0012
679.139	-0.0062
679.3225	-0.0065
679.5059	-0.0077
679.6894	-0.0024
679.8728	-0.0025
680.0562	0.0018
680.2395	-0.0041
680.4229	-0.0009
680.6062	0.0018
680.7896	-0.0044
680.9729	-0.0032
681.1562	-0.0002
681.3394	0.0049
681.5227	-0.003
681.7059	-0.0068
681.8891	-0.0098
682.0723	-0.0064
682.2555	-0.0041
682.4387	-0.0005
682.6218	-0.0062
682.805	-0.0046
682.9881	-0.0006
683.1712	0.0011
683.3542	-0.0052
683.5373	-0.0082
683.7203	-0.0016
683.9034	-0.0017
684.0864	-0.0066
684.2694	-0.0058
684.4523	-0.0039
684.6353	-0.0019
684.8182	-0.0036
685.0011	-0.0074
685.184	-0.0021
685.3669	-0.0007
685.5498	-0.0007
685.7326	-0.0014
685.9154	-0.0051
686.0982	-0.0093
686.281	-0.0074
686.4638	-0.0018
686.6465	-0.0054
686.8293	-0.0037
687.012	-0.0006
687.1947	-0.0051
687.3774	-0.0075
687.56	-0.0041
687.7427	-0.0017
687.9253	-0.0036
688.1079	0.0039
688.2905	-0.0039
688.4731	-0.0054
688.6556	-0.0043
688.8382	0.0003
689.0207	0.0035
689.2032	-0.0008
689.3857	0.004
689.5681	0.0003
689.7506	0.0016
689.933	-0.0011
690.1154	0.0025
690.2978	-0.002
690.4802	-0.0042
690.6626	0.0061
690.8449	0.002
691.0272	-0.0004
691.2095	0.001
691.3918	-0.0019
691.5741	-0.0017
691.7563	0.0018
691.9386	-0.0034
692.1208	-0.007
692.303	-0.0041
692.4852	-0.0002
692.6673	-0.0051
692.8495	-0.0054
693.0316	-0.0021
693.2137	-0.0055
693.3958	-0.0035
693.5778	0.0004
693.7599	-0.0098
693.9419	-0.0098
694.1239	-0.004
694.3059	-0.0063
694.4879	-0.0082
694.6699	-0.0097
694.8518	-0.0107
695.0337	-0.0032
695.2157	-0.0037
695.3975	-0.0072
695.5794	-0.0055
695.7613	-0.0044
695.9431	-0.003
696.1249	-0.0121
696.3067	-0.0065
696.4885	-0.0016
696.6703	0.0007
696.852	-0.0041
697.0337	-0.001
697.2154	0.0005
697.3971	-0.005
697.5788	-0.0079
697.7605	-0.0032
697.9421	-0.0047
698.1237	-0.0022
698.3053	-0.0061
698.4869	-0.0051
698.6685	-0.007
698.85	-0.0061
699.0315	0.0019
699.213	0.0003
699.3945	0.0037
699.576	0.0082
699.7575	-0.0002
699.9389	-0.0046
700.1203	-0.0037
700.3017	-0.0045
700.4831	-0.0021
700.6645	-0.008
700.8458	-0.0026
701.0271	-0.0035
701.2084	-0.0099
701.3897	-0.0014
701.571	-0.0038
701.7523	-0.0025
701.9335	0.0047
702.1147	0.0036
702.2959	-0.0039
702.4771	-0.0017
702.6583	-0.0023
702.8394	-0.0051
703.0205	-0.0028
703.2016	-0.0014
703.3827	0.0021
703.5638	-0.0104
703.7449	-0.007
703.9259	-0.0014
704.1069	-0.0006
704.2879	-0.0022
704.4689	-0.0042
704.6499	-0.0041
704.8308	0.0021
705.0117	-0.001
705.1927	-0.0019
705.3735	0.0055
705.5544	0.0005
705.7353	0.0018
705.9161	0.0023
706.0969	0.0062
706.2777	-0.001
706.4585	-0.0035
706.6393	-0.0023
706.82	-0.0053
707.0007	-0.0042
707.1815	-0.0017
707.3621	-0.0048
707.5428	-0.005
707.7235	-0.0015
707.9041	0.0015
708.0847	0.0023
708.2653	-0.0006
708.4459	-0.0032
708.6265	-0.0005
708.807	-0.0025
708.9875	-0.002
709.168	-0.003
709.3485	-0.0011
709.529	-0.0049
709.7095	-0.0032
709.8899	-0.008
710.0703	-0.0009
710.2507	-0.0051
710.4311	-0.0044
710.6115	0.0078
710.7918	-0.0053
710.9721	0.0041
711.1524	0.0036
711.3327	0.0011
711.513	-0.0052
711.6932	-0.0098
711.8735	-0.0026
712.0537	-0.0036
712.2339	-0.0038
712.4141	-0.0011
712.5942	0.003
712.7744	0.0049
712.9545	0.0012
713.1346	-0.0023
713.3147	0.0018
713.4947	0.0001
713.6748	-0.0054
713.8548	-0.0095
714.0348	-0.0015
714.2148	-0.007
714.3948	-0.006
714.5748	-0.0071
714.7547	-0.01
714.9346	-0.0002
715.1145	-0.0036
715.2944	-0.0052
715.4743	-0.005
715.6541	-0.0011
715.834	0.0025
716.0138	0.0026
716.1936	-0.0025
716.3733	-0.0115
716.5531	-0.0061
716.7328	-0.005
716.9126	-0.0001
717.0923	0.0004
717.2719	-0.0143
717.4516	-0.0083
717.6312	0.001
717.8109	0.0055
717.9905	-0.0071
718.1701	-0.007
718.3496	-0.0008
718.5292	-0.0046
718.7087	-0.0029
718.8882	-0.0004
719.0677	-0.002
719.2472	-0.0034
719.4267	-0.0093
719.6061	-0.0085
719.7856	0.0066
719.965	-0.0071
720.1443	-0.0056
720.3237	-0.0011
720.5031	-0.0092
720.6824	-0.002
720.8617	-0.0054
721.041	-0.0045
721.2203	-0.0096
721.3995	-0.0014
721.5788	-0.007
721.758	-0.0022
721.9372	0.0016
722.1164	-0.0107
722.2956	-0.0097
722.4747	-0.0074
722.6538	-0.004
722.8329	-0.0088
723.012	-0.0053
723.1911	-0.0075
723.3702	-0.0009
723.5492	0.0012
723.7282	-0.0007
723.9072	-0.0015
724.0862	-0.0032
724.2652	-0.0076
724.4441	-0.0019
724.623	-0.0007
724.8019	0.0021
724.9808	-0.0003
725.1597	0.0018
725.3385	0.0104
725.5174	-0.0027
725.6962	-0.0031
725.875	0.0013
726.0538	0.003
726.2325	-0.0023
726.4112	-0.0023
726.59	-0.0066
726.7687	-0.0027
726.9474	-0.0035
727.126	-0.0049
727.3047	-0.0028
727.4833	0.0003
727.6619	-0.0072
727.8405	0.002
728.0191	-0.0016
728.1976	-0.0093
728.3762	-0.006
728.5547	-0.0061
728.7332	-0.0105
728.9116	-0.0117
729.0901	-0.0138
729.2686	-0.0104
729.447	-0.0022
729.6254	-0.0086
729.8038	-0.0055
729.9821	0.0009
730.1605	-0.0022
730.3388	0.0005
730.5171	0.0025
730.6954	-0.0007
730.8737	0.0016
731.0519	0.0029
731.2302	0.0004
731.4084	0.0039
731.5866	0.0021
731.7648	0.0021
731.9429	-0.0027
732.1211	-0.0018
732.2992	0.0041
732.4773	-0.003
732.6554	-0.004
732.8335	-0.0068
733.0115	-0.0049
733.1896	-0.0072
733.3676	-0.006
733.5456	-0.0038
733.7235	-0.0008
733.9015	0.0006
734.0794	0.0024
734.2574	-0.0034
734.4353	-0.0035
734.6131	-0.0012
734.791	-0.0007
734.9689	-0.0034
735.1467	0.0013
735.3245	-0.0036
735.5023	-0.004
735.68	0.0004
735.8578	-0.0052
736.0355	0.0096
736.2132	-0.0062
736.3909	-0.0033
736.5686	-0.0028
736.7463	-0.0054
736.9239	-0.0051
737.1015	0.0006
737.2791	-0.0111
737.4567	-0.0103
737.6343	-0.0052
737.8118	-0.0084
737.9894	-0.0002
738.1669	-0.0067
738.3444	-0.0052
738.5218	-0.0017
738.6993	-0.0002
738.8767	-0.0012
739.0541	-0.0053
739.2315	-0.0067
739.4089	0.001
739.5863	-0.0067
739.7636	-0.0039
739.9409	-0.0066
740.1182	0.0025
740.2955	0.0018
740.4728	-0.004
740.65	0.0003
740.8272	-0.0011
741.0044	-0.0067
741.1816	0.002
741.3588	0.0084
741.5359	0.0004
741.7131	0.005
741.8902	0.0041
742.0673	0.0075
742.2444	-0.0057
742.4214	0.0005
742.5985	-0.002
742.7755	-0.0048
742.9525	0.0039
743.1295	-0.0047
743.3064	-0.0077
743.4834	-0.0044
743.6603	-0.0088
743.8372	0.0033
744.0141	-0.0027
744.191	0.0013
744.3678	-0.0063
744.5446	-0.0004
744.7215	-0.0045
744.8982	0.0032
745.075	-0.0006
745.2518	0.001
745.4285	0.0019
745.6052	-0.0005
745.7819	-0.003
745.9586	-0.0028
746.1353	-0.0004
746.3119	0.0028
746.4885	-0.0091
746.6651	-0.0035
746.8417	-0.0043
747.0183	-0.007
747.1948	-0.0044
747.3714	-0.0064
747.5479	0.0046
747.7244	-0.0058
747.9008	0.001
748.0773	0.0042
748.2537	0.006
748.4301	0.0037
748.6065	0.0003
748.7829	0.004
748.9593	0.0061
749.1356	-0.0052
749.3119	0.0032
749.4882	-0.0004
749.6645	0.0053
749.8408	-0.0013
750.017	-0.0067
750.1933	-0.0026
750.3695	-0.0076
750.5457	-0.0095
750.7218	-0.0087
750.898	-0.0075
751.0741	-0.0126
751.2502	-0.0087
751.4263	-0.0047
751.6024	-0.0043
751.7784	-0.0025
751.9545	-0.0026
752.1305	0.0035
752.3065	-0.0027
752.4825	-0.0023
752.6584	-0.0023
752.8344	-0.0031
753.0103	-0.0041
753.1862	0.0021
753.3621	-0.0026
753.5379	-0.007
753.7138	0.0051
753.8896	-0.0076
754.0654	-0.009
754.2412	-0.0095
754.417	-0.0061
754.5927	-0.003
754.7685	-0.01
754.9442	-0.009
755.1199	-0.0151
755.2956	-0.0076
755.4712	-0.0028
755.6469	-0.0117
755.8225	-0.0104
755.9981	-0.0083
756.1736	-0.0088
756.3492	-0.0066
756.5248	0.0025
756.7003	-0.004
756.8758	-0.0091
757.0513	-0.008
757.2267	-0.0127
757.4022	-0.0077
757.5776	-0.0114
757.753	-0.0184
757.9284	-0.0051
758.1038	-0.0105
758.2791	-0.0114
758.4545	-0.0073
758.6298	-0.0077
758.8051	-0.0048
758.9803	-0.0143
759.1556	-0.0053
759.3308	-0.0075
759.506	-0.0123
759.6812	-0.0099
759.8564	-0.0029
760.0316	-0.0118
760.2067	-0.012
760.3819	-0.0033
760.557	-0.0104
760.732	-0.0105
760.9071	-0.0163
761.0821	-0.0119
761.2572	-0.0129
761.4322	-0.0056
761.6072	-0.0128
761.7821	-0.0108
761.9571	-0.0086
762.132	-0.0084
762.3069	0.0033
762.4818	-0.0038
762.6567	-0.0119
762.8316	-0.0037
763.0064	0.001
763.1812	-0.0019
763.356	0.0065
763.5308	0.0007
763.7055	0.0062
763.8803	-0.0029
764.055	-0.0078
764.2297	0.0051
764.4044	0.0015
764.579	-0.0015
764.7537	-0.0016
764.9283	-0.0047
765.1029	0.0105
765.2775	0.0047
765.4521	0.0062
765.6266	-0.0013
765.8011	0.0021
765.9756	-0.0001
766.1501	0.006
766.3246	-0.0016
766.4991	-0.0002
766.6735	-0.0098
766.8479	-0.005
767.0223	-0.0013
767.1967	-0.0075
767.371	-0.004
767.5454	-0.0046
767.7197	-0.0021
767.894	-0.0019
768.0683	0.0037
768.2425	-0.0023
768.4168	-0.0093
768.591	0.0016
768.7652	-0.0048
768.9394	0.0026
769.1135	0.0018
769.2877	0.0022
769.4618	0.0062
769.6359	0.0004
769.81	-0.0019
769.984	-0.0046
770.1581	0.0067
770.3321	-0.0013
770.5061	0.003
770.6801	0.0005
770.8541	-0.0055
771.028	0.0041
771.202	0.0079
771.3759	-0.0056
771.5498	0.006
771.7236	0.0019
771.8975	0.0012
772.0713	0.0066
772.2451	0.0082
772.4189	0.0081
772.5927	-0.0098
772.7665	-0.0003
772.9402	0.0051
773.1139	-0.0016
773.2876	0.0006
773.4613	0.0028
773.635	-0.0002
773.8086	0.0005
773.9822	0.0059
774.1558	-0.0032
774.3294	0.0051
774.503	0.0068
774.6765	-0.0062
774.8501	0.0069
775.0236	-0.0102
775.1971	0
775.3705	0.0011
775.544	0.0008
775.7174	0.0016
775.8908	-0.0035
776.0642	-0.0003
776.2376	-0.0043
776.4109	-0.0075
776.5843	-0.0005
776.7576	0.0014
776.9309	0.0012
777.1041	0.0021
777.2774	0.0021
777.4506	-0.004
777.6238	0.0009
777.797	-0.0074
777.9702	0.0002
778.1434	-0.008
778.3165	0.0043
778.4896	-0.0088
778.6627	-0.0009
778.8358	-0.006
779.0089	-0.0041
779.1819	-0.001
779.3549	-0.0062
779.5279	-0.0031
779.7009	-0.007
779.8739	-0.0059
780.0468	-0.0079
780.2197	-0.0008
780.3926	-0.0069
780.5655	-0.0073
780.7384	-0.007
780.9112	-0.0047
781.0841	-0.0004
781.2569	0.0054
781.4297	-0.0053
781.6024	0.0024
781.7752	0.0034
781.9479	-0.0011
782.1206	0.0006
782.2933	-0.005
782.466	-0.0061
782.6386	-0.0007
782.8113	-0.0146
782.9839	-0.0076
783.1565	-0.0083
783.329	-0.0021
783.5016	-0.0037
783.6741	-0.01
783.8466	-0.015
784.0191	-0.0085
784.1916	-0.0032
784.3641	-0.0025
784.5365	-0.0021
784.7089	0.0098
784.8813	0.0123
785.0537	0.0018
785.2261	0.0052
785.3984	-0.0028
785.5707	0.0053
785.743	0.0055
785.9153	-0.0002
786.0876	0.0013
786.2598	0.0045
786.432	0.0046
786.6042	0.005
786.7764	0.012
786.9486	0.0071
787.1207	-0.0034
787.2928	0.0008
787.4649	0.0014
787.637	-0.0067
787.8091	-0.0038
787.9811	0.0106
788.1532	-0.0025
788.3252	-0.0015
788.4972	0.0026
788.6691	-0.0055
788.8411	0.0123
789.013	-0.0068
789.1849	0.0062
789.3568	-0.0061
789.5287	-0.0063
789.7005	-0.005
789.8723	-0.0075
790.0442	-0.0061
790.2159	-0.0012
790.3877	-0.0065
790.5595	-0.0011
790.7312	-0.0035
790.9029	-0.0058
791.0746	-0.0033
791.2463	-0.0099
791.4179	0.0001
791.5896	-0.0008
791.7612	0.0042
791.9328	0.0003
792.1044	0.0022
792.2759	0.008
792.4474	0.0003
792.619	-0.006
792.7905	-0.0052
792.9619	0.0016
793.1334	-0.0035
793.3048	-0.0021
793.4762	-0.001
793.6476	-0.0199
793.819	-0.0068
793.9904	-0.0058
794.1617	-0.0179
794.333	-0.0094
794.5043	-0.0049
794.6756	0.002
794.8469	0.0018
795.0181	-0.0014
795.1893	-0.0046
795.3605	-0.0021
795.5317	-0.0055
795.7029	0.0032
795.874	-0.0109
796.0452	-0.0039
796.2163	-0.0097
796.3873	-0.0109
796.5584	-0.0134
796.7294	-0.0153
796.9005	-0.0154
797.0715	-0.0171
797.2425	-0.0128
797.4134	-0.0132
797.5844	-0.0067
797.7553	-0.0079
797.9262	-0.0157
798.0971	-0.0047
798.2679	-0.0058
798.4388	-0.0063
798.6096	-0.0056
798.7804	-0.0107
798.9512	-0.0119
799.122	-0.004
799.2927	-0.0078
799.4635	0.0021
799.6342	-0.0101
799.8049	-0.0135
799.9755	-0.0115
800.1462	-0.0203
800.3168	-0.0043
800.4874	-0.007
800.658	-0.0214
800.8286	-0.0148
800.9991	-0.0146
801.1696	-0.0017
801.3402	-0.0138
801.5106	-0.0216
801.6811	-0.0151
801.8516	-0.0163
802.022	-0.0241
802.1924	-0.0268
802.3628	-0.0202
802.5332	-0.0155
802.7035	-0.025
802.8739	-0.0028
803.0442	-0.0146
803.2145	-0.0042
803.3847	-0.0235
803.555	-0.0195
803.7252	-0.0157
803.8954	-0.0048
804.0656	-0.0079
804.2358	-0.009
804.4059	-0.0096
804.5761	-0.0036
804.7462	-0.0111
804.9163	-0.017
805.0864	-0.0126
805.2564	-0.0068
805.4264	-0.0211
805.5965	-0.0093
805.7665	-0.0044
805.9364	-0.0097
806.1064	0.0011
806.2763	-0.008
806.4462	-0.0056
806.6161	-0.0163
806.786	-0.0124
806.9559	-0.0101
807.1257	-0.0043
807.2955	-0.0053
807.4653	-0.0049
807.6351	-0.0017
807.8048	-0.0058
807.9746	-0.0015
808.1443	0.0024
808.314	-0.0052
808.4837	0.0046
808.6533	-0.0028
808.8229	0.0039
808.9926	0.012
809.1622	-0.0056
809.3317	0.0066
809.5013	0.0012
809.6708	-0.006
809.8403	-0.0083
810.0098	0.0085
810.1793	-0.0039
810.3488	0.0036
810.5182	-0.0041
810.6876	0.0059
810.857	-0.0221
811.0264	-0.0182
811.1958	0.0026
811.3651	-0.014
811.5344	0.0001
811.7037	-0.0012
811.873	-0.0074
812.0422	-0.0109
812.2115	-0.0122
812.3807	-0.0101
812.5499	0.0091
812.7191	-0.013
812.8882	-0.0014
813.0574	-0.0127
813.2265	0.0019
813.3956	0.0013
813.5646	-0.0036
813.7337	0.0001
813.9027	-0.0015
814.0718	-0.0179
814.2407	0.0085
814.4097	0.0064
814.5787	0.002
814.7476	-0.0065
814.9165	-0.0073
815.0854	-0.0132
815.2543	0.0043
815.4232	-0.0001
815.592	0.0028
815.7608	-0.004
815.9296	0.0072
816.0984	0.0013
816.2671	0.0035
816.4359	-0.0049
816.6046	0.0076
816.7733	0.0021
816.942	-0.0064
817.1106	-0.0045
817.2793	-0.0009
817.4479	-0.0125
817.6165	-0.0102
817.785	-0.0082
817.9536	0.0003
818.1221	0.0003
818.2906	-0.0044
818.4591	-0.0113
818.6276	-0.008
818.7961	-0.0076
818.9645	-0.0055
819.1329	-0.0171
819.3013	-0.0019
819.4697	-0.0098
819.638	-0.0082
819.8064	0.0003
819.9747	0.0036
820.143	-0.0052
820.3113	-0.0061
820.4795	0.0112
820.6477	-0.0037
820.816	-0.0098
820.9842	-0.0041
821.1523	-0.0283
821.3205	-0.0042
821.4886	-0.0012
821.6567	0.0006
821.8248	-0.0102
821.9929	-0.0019
822.1609	-0.0036
822.329	-0.0015
822.497	-0.001
822.665	-0.0175
822.833	-0.0243
823.0009	-0.0188
823.1688	-0.0159
823.3367	0.0066
823.5046	-0.0085
823.6725	-0.021
823.8404	0.0024
824.0082	-0.0072
824.176	0.0055
824.3438	-0.0019
824.5116	-0.0042
824.6793	-0.0003
824.847	0.0075
825.0147	-0.0151
825.1824	-0.0287
825.3501	-0.0128
825.5177	-0.0049
825.6854	-0.0083
825.853	-0.0014
826.0206	-0.0118
826.1881	0.0003
826.3557	-0.0009
826.5232	-0.004
826.6907	-0.0001
826.8582	0.0098
827.0257	-0.0037
827.1931	0.0143
827.3605	0.0067
827.528	0.0031
827.6953	-0.0092
827.8627	-0.0132
828.03	-0.0104
828.1974	0.002
828.3647	-0.0017
828.532	-0.0092
828.6992	-0.0092
828.8665	-0.0082
829.0337	-0.0104
829.2009	-0.0201
829.3681	-0.0123
829.5352	-0.011
829.7024	0.0124
829.8695	-0.0145
830.0366	-0.0285
830.2037	-0.0142
830.3707	-0.0082
830.5378	-0.0054
830.7048	-0.0294
830.8718	0.0162
831.0388	0.0136
831.2057	-0.024
831.3727	-0.0146
831.5396	0.0091
831.7065	-0.0023
831.8734	-0.0181
832.0402	-0.0146
832.2071	0.0187
832.3739	0.0243
832.5407	-0.0021
832.7075	0.0009
832.8742	0.0026
833.041	-0.0018
833.2077	-0.0325
833.3744	0.0203
833.541	0.0051
833.7077	0.0007
833.8743	0.0011
834.0409	0.0304
834.2075	0.0092
834.3741	-0.0075
834.5407	0.0103
834.7072	0.0031
834.8737	0.0034
835.0402	-0.0138
835.2067	-0.0162
835.3731	0.0012
835.5395	-0.0134
835.706	-0.0208
835.8723	-0.0019
836.0387	-0.0219
836.2051	-0.0056
836.3714	0.0077
836.5377	0.0021
836.704	0.0144
836.8703	-0.0273
837.0365	0.0104
837.2027	-0.0197
837.3689	0.0021
837.5351	-0.0063
837.7013	0.0158
837.8674	0.0041
838.0335	-0.0095
838.1997	0.0027
838.3657	0.0055
838.5318	-0.0161
838.6978	-0.0294
838.8639	0.0154
839.0299	-0.0162
839.1958	0.0086
839.3618	0.0112
839.5277	-0.0129
839.6937	-0.0044
839.8596	0.0086
840.0254	-0.0059
840.1913	0.0051
840.3571	0.0026
840.523	-0.0051
840.6888	-0.0011
840.8545	-0.0015
841.0203	0.0006
841.186	0.0092
841.3517	-0.0085
841.5174	-0.0087
841.6831	0.0148
841.8488	0.0197
842.0144	0.0013
842.18	0.0232
842.3456	0.003
842.5112	-0.0052
842.6767	0.001
842.8422	0.0335
843.0077	0.0027
843.1732	0.0062
843.3387	-0.0105
843.5042	0.0106
843.6696	0.0021
843.835	-0.0183
844.0004	-0.0119
844.1657	0.0077
844.3311	0.0205
844.4964	0.0219
844.6617	0.0055
844.827	-0.0011
844.9923	-0.0122
845.1575	0.0112
845.3227	-0.0133
845.4879	-0.0345
845.6531	0.0128
845.8183	-0.024
845.9834	-0.0218
846.1485	0.0071
846.3136	-0.05
846.4787	0.0064
846.6438	-0.0106
846.8088	0.0173
846.9738	-0.0003
847.1388	-0.0051
847.3038	0.0196
847.4687	-0.0029
847.6337	0.0275
847.7986	0.0578
847.9635	0.0025
848.1284	-0.0223
848.2932	0.0386
848.458	0.0189
848.6228	0.0431
848.7876	-0.059
848.9524	0.0218
849.1172	-0.0336
849.2819	0.0184
849.4466	0.0052
849.6113	0.0204
849.7759	-0.0004
849.9406	-0.0131
850.1052	0.0125
850.2698	-0.0066
850.4344	-0.0115
850.599	-0.0519
850.7635	0.0149
850.928	-0.0081
851.0925	0.0348
851.257	-0.0139
851.4215	-0.0216
851.5859	0.0236
851.7503	0.0137
851.9147	0.0068
852.0791	-0.0122
852.2434	-0.0264
852.4078	-0.0099
852.5721	-0.061
852.7364	-0.0715
852.9007	0.0055
853.0649	-0.0006
853.2291	-0.053
853.3934	-0.0257
853.5575	-0.0099
853.7217	-0.0133
853.8859	-0.0064
854.05	0.0111
854.2141	-0.0315
854.3782	0.0258
854.5423	-0.0139
854.7063	-0.0023
854.8703	-0.0507
855.0343	-0.0234
855.1983	-0.0285
855.3623	-0.0369
855.5262	0.0224
855.6901	-0.0026
855.854	0.0452
856.0179	0.0909
856.1818	0.0039
856.3456	-0.0364
856.5094	-0.0395
856.6732	-0.0299
856.837	-0.0095
857.0008	0.0164
857.1645	0.0002
857.3282	0.0056
857.4919	-0.0703
857.6556	0.1203
857.8192	-0.0452
857.9828	0.0981
858.1465	0.0823
858.31	-0.0549
858.4736	-0.0704
858.6372	0.026
858.8007	0.0041
858.9642	-0.097
859.1277	0.0035
859.2911	0.0041
859.4546	-0.0073
859.618	-0.0401
859.7814	0.0289
859.9448	-0.0815
860.1081	-0.0627
860.2715	-0.0038
860.4348	0.0188
860.5981	-0.0364
860.7614	-0.1397
860.9246	-0.0382
861.0879	-0.0618
861.2511	-0.0488
861.4143	-0.0868
861.5774	0.0251
861.7406	-0.0248
861.9037	-0.048
862.0668	0.047
862.2299	-0.0237
862.393	-0.0357
862.556	0.1306
862.7191	-0.0726
862.8821	0.0155
863.0451	-0.0324
863.208	-0.097
863.371	0.0978
863.5339	0.0295
863.6968	0.0096
863.8597	-0.0087
864.0225	-0.0401
864.1854	0.0319
864.3482	-0.1547
864.511	-0.029
864.6737	0.0046
864.8365	0.0324
864.9992	-0.0061
865.1619	-0.0536
865.3246	-0.0798
865.4873	0.1902
865.65	0.0141
865.8126	0.0322
865.9752	0.0629
866.1378	-0.0869
866.3004	-0.0169
866.4629	0.0433
866.6254	-0.0331
866.7879	-0.0684
866.9504	-0.117
867.1129	0.036
867.2753	0.0611
867.4377	0.0426
867.6001	-0.2958
867.7625	0.062
867.9249	-0.1112
868.0872	0.1461
868.2495	-0.0451
868.4118	-0.2032
868.5741	0.0095
868.7363	-0.0287
868.8986	-0.0141
869.0608	-0.1797
869.223	-0.1176
869.3851	-0.0873
869.5473	0.0861
869.7094	-0.1536
869.8715	-0.0722
870.0336	-0.2083
870.1957	0.12
870.3577	0.0821
870.5197	-0.4679
870.6817	-0.2095
870.8437	-0.1676
871.0057	-0.3233
871.1676	0.0661
871.3295	-0.3808
871.4914	-0.035
871.6533	-0.2323
871.8151	-0.2807
871.977	0.0209
872.1388	-0.1553
872.3006	-0.3252
872.4623	0.2361
872.6241	-0.0852
872.7858	-0.0405
872.9475	-0.1524
873.1092	-0.127
873.2709	0.2538
873.4325	-0.1175
873.5941	-0.0545
873.7557	0.0073
873.9173	-0.0302
874.0789	-0.1882
874.2404	-0.1946
874.4019	-0.5099
874.5634	-0.0119
874.7249	-0.2662
874.8863	-0.1323
875.0478	0.0672
875.2092	-0.3204
875.3706	0.0547
875.5319	-0.224
875.6933	-0.1389
875.8546	0.3524
876.0159	-0.0271
876.1772	-0.032
876.3385	-0.6641
876.4997	0.25
876.6609	0.0023
876.8221	1.7866
876.9833	-0.3117
877.1445	-0.0889
877.3056	0.0454
877.4667	-0.92
877.6278	0.1345
877.7889	0.1677
877.9499	-0.8205
878.111	-0.1193
878.272	0.7407
878.433	0.1314
878.5939	0.1415
878.7549	-0.3465
878.9158	0.1617
879.0767	0.1175
879.2376	0.0089
879.3984	-0.0397
879.5593	-0.143
879.7201	-0
879.8809	-0.0388
880.0417	0.0371
880.2024	0.2429
880.3632	-0.2121
880.5239	-0
880.6846	-0.3336
880.8452	0.2319
881.0059	-0.3273
881.1665	0.3693
881.3271	-0.312
881.4877	-0.0625
881.6483	-0
881.8088	0.0962
881.9693	0.1847
882.1298	0.1847
882.2903	0.1847
