Data from MonoPyChalIsomerACN10uM450nmA_Absorbance_13-11-24-291.txt Node
Date: Tue Jul 09 13:11:24 BST 2024
User: LASERRRRR
Spectrometer: FLMT03099
Trigger mode: 0
Integration Time (sec): 2.000000E-1
Scans to average: 1
Electric dark correction enabled: true
Nonlinearity correction enabled: false
Boxcar width: 0
XAxis mode: Wavelengths
Number of Pixels in Spectrum: 3648
>>>>>Begin Spectral Data<<<<<
179.3399	-0.2521
179.5586	-0.2521
179.7771	-0.2521
179.9957	-0
180.2143	-0
180.4329	-0.0155
180.6514	0.502
180.8699	-0
181.0885	-0
181.307	-0
181.5255	-0
181.744	-0
181.9625	0.2213
182.181	0.2877
182.3994	0.1683
182.6179	-0.4782
182.8363	-0
183.0547	0.0439
183.2732	0.1202
183.4916	0.053
183.71	0.0994
183.9284	0.0601
184.1467	0.139
184.3651	-0.011
184.5835	0.0742
184.8018	0.0544
185.0201	0.1571
185.2385	0.06
185.4568	-0.0767
185.6751	0.0524
185.8934	-0.0965
186.1117	0.0186
186.3299	-0.079
186.5482	0.0276
186.7664	0.0672
186.9847	0.1133
187.2029	0.0548
187.4211	0.0988
187.6393	-0.1117
187.8575	0.1996
188.0757	0.0704
188.2939	-0.0248
188.512	0.0684
188.7302	-0.0135
188.9483	0.1682
189.1665	0.1478
189.3846	0.1107
189.6027	0.1246
189.8208	0.1109
190.0389	0.1907
190.257	0.1331
190.475	0.2679
190.6931	0.0729
190.9111	0.3185
191.1292	0.3102
191.3472	0.2452
191.5652	0.293
191.7832	0.462
192.0012	0.2949
192.2192	0.5053
192.4371	0.3943
192.6551	0.3704
192.873	0.3666
193.091	0.4722
193.3089	0.4937
193.5268	0.5035
193.7447	0.4594
193.9626	0.5169
194.1805	0.4986
194.3984	0.6572
194.6162	0.6103
194.8341	0.5727
195.0519	0.5088
195.2697	0.6084
195.4875	0.58
195.7054	0.6882
195.9231	0.6234
196.1409	0.6337
196.3587	0.635
196.5765	0.6694
196.7942	0.6374
197.012	0.6726
197.2297	0.6588
197.4474	0.8118
197.6651	0.6479
197.8828	0.8401
198.1005	0.821
198.3182	0.7695
198.5358	0.672
198.7535	0.7358
198.9711	0.8338
199.1888	0.655
199.4064	0.7496
199.624	0.7362
199.8416	0.7537
200.0592	0.8157
200.2767	0.7208
200.4943	0.9088
200.7119	0.7707
200.9294	0.9461
201.1469	0.9039
201.3645	0.8536
201.582	0.8422
201.7995	0.7382
202.017	0.8608
202.2344	0.7481
202.4519	0.9238
202.6694	0.8334
202.8868	0.9064
203.1042	1.0478
203.3217	0.8319
203.5391	0.9796
203.7565	0.8881
203.9739	0.8996
204.1913	0.8557
204.4086	0.8814
204.626	1.0559
204.8433	0.8883
205.0607	0.992
205.278	0.9666
205.4953	1.0071
205.7126	0.8579
205.9299	1.0014
206.1472	1.075
206.3644	0.8988
206.5817	1.0146
206.7989	1.1004
207.0162	1.0067
207.2334	0.9355
207.4506	0.9292
207.6678	1.1077
207.885	0.9619
208.1022	1.0914
208.3194	1.0457
208.5365	1.0373
208.7537	1.0579
208.9708	1.0536
209.1879	1.0782
209.405	0.9945
209.6222	0.9921
209.8392	1.1702
210.0563	0.9876
210.2734	1.0167
210.4905	1.0506
210.7075	0.9675
210.9245	0.9756
211.1416	1.0186
211.3586	1.0987
211.5756	1.0841
211.7926	1.0618
212.0096	1.0419
212.2265	1.0836
212.4435	1.0442
212.6604	1.051
212.8774	0.9909
213.0943	1.0406
213.3112	0.9407
213.5281	0.9566
213.745	1.01
213.9619	0.9624
214.1788	0.9559
214.3956	0.9318
214.6125	0.9388
214.8293	0.8833
215.0461	0.884
215.2629	0.8986
215.4798	0.8535
215.6965	0.8399
215.9133	0.893
216.1301	0.7988
216.3469	0.7911
216.5636	0.7571
216.7803	0.7849
216.9971	0.7766
217.2138	0.7
217.4305	0.7143
217.6472	0.6868
217.8639	0.6545
218.0805	0.6286
218.2972	0.5424
218.5138	0.5395
218.7305	0.518
218.9471	0.4848
219.1637	0.439
219.3803	0.4377
219.5969	0.3972
219.8135	0.3675
220.0301	0.3559
220.2466	0.3536
220.4632	0.3442
220.6797	0.3261
220.8962	0.3068
221.1127	0.2966
221.3292	0.2973
221.5457	0.2909
221.7622	0.3087
221.9787	0.2549
222.1951	0.2873
222.4116	0.2762
222.628	0.2853
222.8444	0.2618
223.0608	0.2713
223.2772	0.2819
223.4936	0.2533
223.71	0.2755
223.9264	0.28
224.1427	0.2726
224.3591	0.2708
224.5754	0.2686
224.7917	0.2753
225.008	0.2724
225.2243	0.2711
225.4406	0.2803
225.6569	0.2805
225.8732	0.2966
226.0894	0.2705
226.3057	0.2959
226.5219	0.2876
226.7381	0.2928
226.9543	0.2773
227.1705	0.284
227.3867	0.2892
227.6029	0.2994
227.8191	0.2917
228.0352	0.3048
228.2513	0.3042
228.4675	0.3055
228.6836	0.3291
228.8997	0.3148
229.1158	0.3138
229.3319	0.3257
229.548	0.3165
229.764	0.3246
229.9801	0.3237
230.1961	0.3219
230.4121	0.3336
230.6282	0.3374
230.8442	0.338
231.0602	0.3393
231.2761	0.3414
231.4921	0.3438
231.7081	0.3583
231.924	0.353
232.14	0.3478
232.3559	0.3706
232.5718	0.358
232.7877	0.3596
233.0036	0.3641
233.2195	0.3543
233.4353	0.3673
233.6512	0.3736
233.867	0.3635
234.0829	0.385
234.2987	0.377
234.5145	0.3773
234.7303	0.3971
234.9461	0.4062
235.1619	0.3795
235.3776	0.3706
235.5934	0.3946
235.8091	0.3905
236.0249	0.3926
236.2406	0.3988
236.4563	0.3945
236.672	0.3997
236.8877	0.3998
237.1034	0.4008
237.319	0.4019
237.5347	0.396
237.7503	0.419
237.966	0.413
238.1816	0.4125
238.3972	0.4058
238.6128	0.4025
238.8284	0.4181
239.0439	0.4079
239.2595	0.4245
239.475	0.415
239.6906	0.4233
239.9061	0.4107
240.1216	0.4188
240.3371	0.4178
240.5526	0.4245
240.7681	0.4107
240.9836	0.4185
241.199	0.4006
241.4145	0.402
241.6299	0.4125
241.8453	0.3957
242.0607	0.3925
242.2761	0.3951
242.4915	0.387
242.7069	0.384
242.9223	0.3685
243.1376	0.3807
243.353	0.3607
243.5683	0.3652
243.7836	0.3507
243.9989	0.3487
244.2142	0.3371
244.4295	0.3323
244.6448	0.323
244.86	0.3233
245.0753	0.3149
245.2905	0.3035
245.5057	0.3063
245.721	0.2959
245.9362	0.2775
246.1514	0.2903
246.3665	0.2891
246.5817	0.2703
246.7969	0.2848
247.012	0.2779
247.2271	0.2581
247.4423	0.2635
247.6574	0.258
247.8725	0.2566
248.0876	0.2573
248.3026	0.25
248.5177	0.2492
248.7328	0.2342
248.9478	0.2341
249.1628	0.2409
249.3779	0.2313
249.5929	0.2255
249.8079	0.2292
250.0228	0.2333
250.2378	0.2297
250.4528	0.2154
250.6677	0.2199
250.8827	0.2144
251.0976	0.2091
251.3125	0.2159
251.5274	0.2043
251.7423	0.2064
251.9572	0.2137
252.172	0.211
252.3869	0.203
252.6017	0.2093
252.8166	0.2016
253.0314	0.2088
253.2462	0.2041
253.461	0.2073
253.6758	0.1961
253.8906	0.1998
254.1053	0.2056
254.3201	0.2027
254.5348	0.199
254.7496	0.2043
254.9643	0.1965
255.179	0.1986
255.3937	0.1995
255.6083	0.2002
255.823	0.1997
256.0377	0.1846
256.2523	0.1882
256.467	0.1963
256.6816	0.1927
256.8962	0.1991
257.1108	0.1965
257.3254	0.197
257.54	0.1934
257.7545	0.1952
257.9691	0.2056
258.1836	0.1933
258.3981	0.1937
258.6127	0.1926
258.8272	0.1971
259.0417	0.1955
259.2561	0.1921
259.4706	0.1852
259.6851	0.1921
259.8995	0.19
260.114	0.1926
260.3284	0.2029
260.5428	0.1969
260.7572	0.2017
260.9716	0.1916
261.186	0.1977
261.4003	0.1974
261.6147	0.1963
261.829	0.2069
262.0433	0.1991
262.2577	0.2
262.472	0.1942
262.6863	0.191
262.9005	0.198
263.1148	0.1937
263.3291	0.1918
263.5433	0.1947
263.7576	0.1879
263.9718	0.1917
264.186	0.1855
264.4002	0.1847
264.6144	0.1856
264.8286	0.1782
265.0427	0.1843
265.2569	0.1847
265.471	0.1757
265.6851	0.1763
265.8993	0.1764
266.1134	0.1768
266.3275	0.1771
266.5415	0.175
266.7556	0.1871
266.9697	0.1788
267.1837	0.1797
267.3978	0.1818
267.6118	0.1933
267.8258	0.1963
268.0398	0.1973
268.2538	0.1898
268.4677	0.1907
268.6817	0.1923
268.8957	0.1852
269.1096	0.181
269.3235	0.1755
269.5374	0.1837
269.7514	0.1752
269.9652	0.1711
270.1791	0.1614
270.393	0.1583
270.6068	0.1497
270.8207	0.149
271.0345	0.1493
271.2483	0.1583
271.4622	0.1504
271.676	0.1485
271.8897	0.1469
272.1035	0.1338
272.3173	0.1517
272.531	0.147
272.7448	0.1447
272.9585	0.1485
273.1722	0.1413
273.3859	0.1435
273.5996	0.1397
273.8133	0.1502
274.0269	0.1398
274.2406	0.14
274.4542	0.1472
274.6679	0.1431
274.8815	0.1483
275.0951	0.1478
275.3087	0.1332
275.5223	0.1354
275.7358	0.1413
275.9494	0.1589
276.1629	0.1402
276.3765	0.1462
276.59	0.152
276.8035	0.1423
277.017	0.1406
277.2305	0.1484
277.444	0.1422
277.6574	0.1435
277.8709	0.1521
278.0843	0.1525
278.2978	0.1512
278.5112	0.1488
278.7246	0.1519
278.938	0.1497
279.1513	0.1428
279.3647	0.15
279.5781	0.1481
279.7914	0.1512
280.0047	0.1512
280.2181	0.151
280.4314	0.1527
280.6447	0.1509
280.8579	0.1527
281.0712	0.1458
281.2845	0.1526
281.4977	0.1557
281.711	0.1489
281.9242	0.1546
282.1374	0.1534
282.3506	0.149
282.5638	0.1529
282.7769	0.1595
282.9901	0.1632
283.2033	0.1536
283.4164	0.1528
283.6295	0.1572
283.8426	0.1593
284.0557	0.1587
284.2688	0.1541
284.4819	0.1447
284.695	0.1595
284.908	0.161
285.1211	0.1584
285.3341	0.1543
285.5471	0.1538
285.7601	0.1488
285.9731	0.1497
286.1861	0.1627
286.3991	0.1602
286.612	0.1559
286.825	0.1641
287.0379	0.1566
287.2508	0.1544
287.4637	0.1619
287.6766	0.1473
287.8895	0.161
288.1024	0.1652
288.3152	0.1578
288.5281	0.1579
288.7409	0.1542
288.9538	0.1582
289.1666	0.1676
289.3794	0.1646
289.5922	0.1623
289.8049	0.1545
290.0177	0.1616
290.2304	0.1595
290.4432	0.1552
290.6559	0.1609
290.8686	0.1563
291.0813	0.156
291.294	0.1639
291.5067	0.1556
291.7194	0.1571
291.932	0.1608
292.1447	0.1555
292.3573	0.1576
292.5699	0.1675
292.7825	0.162
292.9951	0.1564
293.2077	0.1557
293.4203	0.1555
293.6328	0.1717
293.8454	0.1505
294.0579	0.1587
294.2704	0.1595
294.4829	0.1634
294.6954	0.1595
294.9079	0.1578
295.1204	0.1613
295.3328	0.162
295.5453	0.1532
295.7577	0.1583
295.9701	0.1587
296.1825	0.1639
296.3949	0.1564
296.6073	0.1675
296.8197	0.1594
297.0321	0.1609
297.2444	0.1528
297.4567	0.1583
297.6691	0.1558
297.8814	0.1577
298.0937	0.1571
298.306	0.1575
298.5182	0.1473
298.7305	0.1616
298.9428	0.1545
299.155	0.1526
299.3672	0.1636
299.5794	0.1541
299.7916	0.156
300.0038	0.1576
300.216	0.1638
300.4282	0.1628
300.6403	0.1545
300.8525	0.1559
301.0646	0.1551
301.2767	0.1598
301.4888	0.1512
301.7009	0.1557
301.913	0.1629
302.125	0.1602
302.3371	0.1618
302.5491	0.1503
302.7612	0.1608
302.9732	0.1618
303.1852	0.1644
303.3972	0.1589
303.6092	0.158
303.8211	0.156
304.0331	0.1494
304.245	0.1524
304.457	0.1533
304.6689	0.1505
304.8808	0.1516
305.0927	0.1475
305.3046	0.148
305.5164	0.1512
305.7283	0.1471
305.9401	0.1438
306.152	0.1464
306.3638	0.159
306.5756	0.1421
306.7874	0.1422
306.9992	0.1388
307.2109	0.1329
307.4227	0.1356
307.6344	0.1319
307.8462	0.1332
308.0579	0.1329
308.2696	0.1244
308.4813	0.134
308.693	0.1293
308.9046	0.1141
309.1163	0.1183
309.328	0.1184
309.5396	0.1245
309.7512	0.1276
309.9628	0.1136
310.1744	0.1192
310.386	0.1149
310.5976	0.1202
310.8091	0.1165
311.0207	0.1127
311.2322	0.1155
311.4437	0.1273
311.6552	0.1094
311.8667	0.1076
312.0782	0.1068
312.2897	0.1
312.5012	0.1077
312.7126	0.1028
312.924	0.1042
313.1355	0.1001
313.3469	0.1051
313.5583	0.103
313.7696	0.1083
313.981	0.0952
314.1924	0.0919
314.4037	0.0997
314.6151	0.0904
314.8264	0.1054
315.0377	0.0981
315.249	0.1039
315.4603	0.105
315.6716	0.0957
315.8828	0.0973
316.0941	0.0985
316.3053	0.0987
316.5165	0.0975
316.7277	0.0883
316.9389	0.0967
317.1501	0.0917
317.3613	0.0946
317.5724	0.0961
317.7836	0.0992
317.9947	0.0982
318.2058	0.0912
318.417	0.0911
318.6281	0.0931
318.8391	0.0935
319.0502	0.091
319.2613	0.0967
319.4723	0.0957
319.6834	0.0976
319.8944	0.0975
320.1054	0.095
320.3164	0.1035
320.5274	0.1001
320.7383	0.0961
320.9493	0.0974
321.1602	0.0898
321.3712	0.0991
321.5821	0.0966
321.793	0.0935
322.0039	0.0978
322.2148	0.0939
322.4257	0.0938
322.6365	0.0984
322.8474	0.0974
323.0582	0.1045
323.269	0.1014
323.4798	0.1028
323.6906	0.1009
323.9014	0.0959
324.1122	0.0972
324.3229	0.1038
324.5337	0.0902
324.7444	0.0986
324.9551	0.1029
325.1658	0.0968
325.3765	0.1003
325.5872	0.0925
325.7979	0.1033
326.0085	0.1033
326.2192	0.0999
326.4298	0.1065
326.6404	0.1007
326.851	0.0952
327.0616	0.1066
327.2722	0.0995
327.4828	0.0998
327.6933	0.1069
327.9039	0.1025
328.1144	0.1043
328.3249	0.104
328.5354	0.1
328.7459	0.1001
328.9564	0.0979
329.1669	0.1018
329.3773	0.1044
329.5878	0.1004
329.7982	0.1048
330.0086	0.1003
330.219	0.1068
330.4294	0.1027
330.6398	0.1065
330.8502	0.1085
331.0605	0.1
331.2708	0.1043
331.4812	0.1071
331.6915	0.1052
331.9018	0.0977
332.1121	0.1079
332.3224	0.0986
332.5326	0.0953
332.7429	0.1029
332.9531	0.1093
333.1633	0.1125
333.3735	0.1053
333.5837	0.1003
333.7939	0.1058
334.0041	0.1067
334.2143	0.1119
334.4244	0.1066
334.6346	0.1011
334.8447	0.1109
335.0548	0.1105
335.2649	0.098
335.475	0.1011
335.685	0.1065
335.8951	0.1096
336.1051	0.0984
336.3152	0.1068
336.5252	0.1062
336.7352	0.1089
336.9452	0.1
337.1552	0.1052
337.3652	0.1131
337.5751	0.108
337.7851	0.1075
337.995	0.1094
338.2049	0.1117
338.4148	0.1113
338.6247	0.1118
338.8346	0.1194
339.0445	0.1084
339.2543	0.1153
339.4642	0.1082
339.674	0.1121
339.8838	0.1055
340.0936	0.111
340.3034	0.1126
340.5132	0.1093
340.7229	0.1215
340.9327	0.1187
341.1424	0.1234
341.3522	0.1146
341.5619	0.1234
341.7716	0.1246
341.9813	0.114
342.1909	0.1204
342.4006	0.1212
342.6102	0.1199
342.8199	0.1209
343.0295	0.1166
343.2391	0.1278
343.4487	0.1192
343.6583	0.1179
343.8679	0.1179
344.0774	0.1254
344.287	0.1249
344.4965	0.1163
344.706	0.1295
344.9155	0.1219
345.125	0.1247
345.3345	0.1223
345.544	0.1163
345.7534	0.1222
345.9629	0.1302
346.1723	0.1311
346.3817	0.1298
346.5911	0.1324
346.8005	0.1317
347.0099	0.1247
347.2193	0.1288
347.4286	0.1302
347.638	0.1313
347.8473	0.13
348.0566	0.1402
348.2659	0.1263
348.4752	0.138
348.6845	0.1348
348.8937	0.1411
349.103	0.1286
349.3122	0.1361
349.5214	0.1409
349.7306	0.1348
349.9398	0.1354
350.149	0.1435
350.3582	0.1352
350.5674	0.1421
350.7765	0.1367
350.9856	0.1328
351.1948	0.142
351.4039	0.1386
351.613	0.1353
351.822	0.1456
352.0311	0.1394
352.2402	0.1376
352.4492	0.138
352.6582	0.1415
352.8672	0.1358
353.0762	0.1559
353.2852	0.1546
353.4942	0.1471
353.7032	0.1493
353.9121	0.145
354.1211	0.1464
354.33	0.1344
354.5389	0.1588
354.7478	0.1524
354.9567	0.1533
355.1655	0.1579
355.3744	0.1476
355.5833	0.1519
355.7921	0.1477
356.0009	0.1433
356.2097	0.1504
356.4185	0.1554
356.6273	0.1555
356.8361	0.152
357.0448	0.1576
357.2536	0.1564
357.4623	0.1508
357.671	0.1586
357.8797	0.1647
358.0884	0.1635
358.2971	0.1593
358.5057	0.1603
358.7144	0.1604
358.923	0.1601
359.1316	0.1637
359.3402	0.1729
359.5488	0.1525
359.7574	0.1728
359.966	0.1673
360.1746	0.1767
360.3831	0.1809
360.5916	0.177
360.8002	0.1684
361.0087	0.1765
361.2172	0.1717
361.4256	0.1796
361.6341	0.1812
361.8426	0.187
362.051	0.1703
362.2594	0.1835
362.4678	0.1779
362.6762	0.1753
362.8846	0.1902
363.093	0.187
363.3014	0.1899
363.5097	0.1847
363.718	0.2001
363.9264	0.1955
364.1347	0.1956
364.343	0.1754
364.5513	0.1918
364.7595	0.1898
364.9678	0.1958
365.176	0.2013
365.3842	0.1847
365.5925	0.1822
365.8007	0.1902
366.0089	0.201
366.217	0.1975
366.4252	0.2032
366.6333	0.1894
366.8415	0.1926
367.0496	0.1999
367.2577	0.1906
367.4658	0.2046
367.6739	0.2034
367.882	0.2035
368.09	0.1955
368.2981	0.2032
368.5061	0.1999
368.7141	0.2029
368.9221	0.2031
369.1301	0.2129
369.3381	0.2173
369.5461	0.21
369.754	0.2132
369.962	0.208
370.1699	0.2011
370.3778	0.2065
370.5857	0.2072
370.7936	0.2009
371.0015	0.2191
371.2093	0.2057
371.4172	0.2123
371.625	0.2141
371.8328	0.2123
372.0406	0.2226
372.2484	0.2061
372.4562	0.211
372.664	0.2183
372.8717	0.2087
373.0795	0.2186
373.2872	0.2312
373.4949	0.2073
373.7026	0.2196
373.9103	0.2201
374.118	0.2336
374.3256	0.2153
374.5333	0.2196
374.7409	0.2163
374.9485	0.22
375.1561	0.2161
375.3637	0.225
375.5713	0.2297
375.7789	0.2263
375.9864	0.2225
376.194	0.2199
376.4015	0.2433
376.609	0.2249
376.8165	0.2284
377.024	0.2181
377.2315	0.2351
377.4389	0.2257
377.6464	0.225
377.8538	0.2332
378.0612	0.2325
378.2686	0.2344
378.476	0.2374
378.6834	0.2381
378.8908	0.2437
379.0981	0.2414
379.3055	0.2331
379.5128	0.2308
379.7201	0.2377
379.9274	0.2387
380.1347	0.2403
380.342	0.235
380.5492	0.2427
380.7565	0.2446
380.9637	0.2505
381.1709	0.2472
381.3781	0.2317
381.5853	0.2529
381.7925	0.2526
381.9997	0.2422
382.2068	0.2439
382.4139	0.2397
382.6211	0.24
382.8282	0.2365
383.0353	0.2498
383.2424	0.2484
383.4494	0.246
383.6565	0.2413
383.8635	0.2535
384.0706	0.2479
384.2776	0.2419
384.4846	0.2466
384.6916	0.2433
384.8986	0.2594
385.1055	0.2497
385.3125	0.2526
385.5194	0.251
385.7263	0.2447
385.9333	0.2456
386.1402	0.2484
386.347	0.2597
386.5539	0.2567
386.7608	0.2398
386.9676	0.2454
387.1744	0.2449
387.3813	0.2415
387.5881	0.2375
387.7948	0.2456
388.0016	0.2408
388.2084	0.2553
388.4151	0.246
388.6219	0.2536
388.8286	0.2428
389.0353	0.2368
389.242	0.244
389.4487	0.2377
389.6553	0.238
389.862	0.2314
390.0686	0.2424
390.2753	0.2437
390.4819	0.2327
390.6885	0.2301
390.8951	0.233
391.1016	0.2349
391.3082	0.2258
391.5147	0.2406
391.7213	0.2237
391.9278	0.2256
392.1343	0.2299
392.3408	0.2131
392.5473	0.224
392.7537	0.227
392.9602	0.2247
393.1666	0.2273
393.373	0.2301
393.5794	0.2178
393.7858	0.2113
393.9922	0.2146
394.1986	0.2137
394.4049	0.2236
394.6113	0.216
394.8176	0.2063
395.0239	0.22
395.2302	0.2153
395.4365	0.2171
395.6428	0.2122
395.8491	0.209
396.0553	0.2024
396.2615	0.214
396.4678	0.221
396.674	0.2072
396.8802	0.2074
397.0863	0.2155
397.2925	0.1992
397.4987	0.2118
397.7048	0.1983
397.9109	0.2141
398.117	0.213
398.3231	0.2031
398.5292	0.203
398.7353	0.1954
398.9413	0.2165
399.1474	0.1936
399.3534	0.2021
399.5594	0.2011
399.7654	0.2046
399.9714	0.2117
400.1774	0.1995
400.3833	0.2058
400.5893	0.2035
400.7952	0.1993
401.0011	0.2065
401.207	0.205
401.4129	0.1925
401.6188	0.2054
401.8247	0.2063
402.0305	0.1963
402.2364	0.2167
402.4422	0.2029
402.648	0.2096
402.8538	0.1994
403.0596	0.2026
403.2654	0.2051
403.4711	0.1978
403.6768	0.2063
403.8826	0.201
404.0883	0.2097
404.294	0.2084
404.4997	0.2054
404.7054	0.198
404.911	0.2038
405.1167	0.2032
405.3223	0.1999
405.5279	0.2016
405.7335	0.2042
405.9391	0.2076
406.1447	0.199
406.3502	0.1982
406.5558	0.2029
406.7613	0.197
406.9668	0.2019
407.1724	0.1999
407.3778	0.2058
407.5833	0.1938
407.7888	0.223
407.9942	0.2019
408.1997	0.2003
408.4051	0.2071
408.6105	0.2039
408.8159	0.2067
409.0213	0.194
409.2267	0.1986
409.432	0.2112
409.6374	0.2037
409.8427	0.2093
410.048	0.1997
410.2533	0.1992
410.4586	0.1978
410.6639	0.1963
410.8691	0.1923
411.0744	0.1973
411.2796	0.2116
411.4848	0.1926
411.69	0.2093
411.8952	0.1914
412.1004	0.1931
412.3056	0.204
412.5107	0.2115
412.7158	0.1942
412.921	0.2066
413.1261	0.1921
413.3312	0.2171
413.5362	0.1969
413.7413	0.1981
413.9464	0.2013
414.1514	0.1852
414.3564	0.2019
414.5614	0.2027
414.7664	0.1966
414.9714	0.1981
415.1764	0.1899
415.3813	0.1967
415.5863	0.1924
415.7912	0.1934
415.9961	0.1987
416.201	0.2003
416.4059	0.1808
416.6108	0.1923
416.8156	0.1898
417.0205	0.2009
417.2253	0.198
417.4301	0.1994
417.6349	0.1939
417.8397	0.1853
418.0445	0.1968
418.2492	0.1934
418.454	0.1907
418.6587	0.1884
418.8634	0.1855
419.0681	0.1861
419.2728	0.1946
419.4775	0.1864
419.6822	0.1884
419.8868	0.1849
420.0915	0.1824
420.2961	0.1823
420.5007	0.1871
420.7053	0.1841
420.9099	0.1692
421.1144	0.1795
421.319	0.1719
421.5235	0.1916
421.728	0.1804
421.9325	0.182
422.137	0.1809
422.3415	0.1998
422.546	0.1867
422.7504	0.1731
422.9549	0.1849
423.1593	0.1749
423.3637	0.1812
423.5681	0.1885
423.7725	0.1783
423.9769	0.1723
424.1812	0.1699
424.3856	0.1676
424.5899	0.1828
424.7942	0.1726
424.9985	0.1748
425.2028	0.168
425.4071	0.1644
425.6113	0.1651
425.8156	0.1631
426.0198	0.1699
426.224	0.1614
426.4282	0.1505
426.6324	0.1688
426.8366	0.1548
427.0407	0.1567
427.2449	0.1637
427.449	0.1587
427.6531	0.1554
427.8572	0.1496
428.0613	0.1446
428.2654	0.1442
428.4694	0.1582
428.6735	0.1618
428.8775	0.1401
429.0815	0.1577
429.2855	0.1589
429.4895	0.137
429.6935	0.1457
429.8975	0.1448
430.1014	0.1429
430.3053	0.1462
430.5093	0.1429
430.7132	0.1456
430.9171	0.1339
431.1209	0.1438
431.3248	0.1356
431.5286	0.1385
431.7325	0.129
431.9363	0.1329
432.1401	0.1204
432.3439	0.1215
432.5477	0.1261
432.7514	0.137
432.9552	0.12
433.1589	0.1231
433.3627	0.1162
433.5664	0.1175
433.7701	0.114
433.9737	0.1044
434.1774	0.12
434.3811	0.1057
434.5847	0.1081
434.7883	0.1087
434.9919	0.104
435.1955	0.098
435.3991	0.1058
435.6027	0.0942
435.8062	0.1032
436.0098	0.1037
436.2133	0.0888
436.4168	0.0966
436.6203	0.1022
436.8238	0.0916
437.0272	0.0893
437.2307	0.0897
437.4341	0.0936
437.6375	0.0941
437.841	0.0811
438.0443	0.082
438.2477	0.0855
438.4511	0.0904
438.6545	0.0779
438.8578	0.0834
439.0611	0.0746
439.2644	0.0856
439.4677	0.0846
439.671	0.066
439.8743	0.0854
440.0775	0.0673
440.2808	0.058
440.484	0.0712
440.6872	0.0674
440.8904	0.0628
441.0936	0.0644
441.2967	0.0631
441.4999	0.0569
441.703	0.0572
441.9062	0.0673
442.1093	0.0566
442.3124	0.063
442.5155	0.061
442.7185	0.0422
442.9216	0.0509
443.1246	0.0568
443.3276	0.0609
443.5307	0.045
443.7337	0.0566
443.9366	0.0579
444.1396	0.0424
444.3426	0.0424
444.5455	0.0424
444.7484	0.0372
444.9513	0.0402
445.1542	0.0593
445.3571	0.0381
445.56	0.0389
445.7628	0.0391
445.9657	0.0499
446.1685	0.0454
446.3713	0.0353
446.5741	0.0443
446.7769	0.0351
446.9797	0.0352
447.1824	0.0365
447.3852	0.0359
447.5879	0.0303
447.7906	0.0272
447.9933	0.0265
448.196	0.0365
448.3986	0.0304
448.6013	0.0157
448.8039	0.0244
449.0066	0.0225
449.2092	0.0258
449.4118	0.0218
449.6143	0.0198
449.8169	0.0156
450.0195	0.0262
450.222	0.0141
450.4245	0.0175
450.627	0.0286
450.8295	0.0178
451.032	0.0268
451.2345	0.006
451.4369	0.0211
451.6394	0.0209
451.8418	0.0149
452.0442	0.0121
452.2466	0.0217
452.449	0.0175
452.6513	0.0233
452.8537	0.0228
453.056	0.0105
453.2583	0.0097
453.4607	0.0183
453.663	0.0159
453.8652	0.0071
454.0675	0.0156
454.2697	0.0157
454.472	0.0133
454.6742	0.016
454.8764	0.0149
455.0786	0.0283
455.2808	0.0133
455.4829	0.0095
455.6851	0.0076
455.8872	0.0132
456.0893	0.0001
456.2915	0.0061
456.4935	0.0088
456.6956	0.0174
456.8977	0.0032
457.0997	0.0088
457.3018	0.0092
457.5038	0.0073
457.7058	0.0034
457.9078	0.0027
458.1098	0.0004
458.3117	0.0069
458.5137	0.0146
458.7156	0.0159
458.9175	0.0048
459.1194	0.0075
459.3213	0.0114
459.5232	0.0063
459.725	-0.006
459.9269	-0.0073
460.1287	0.0031
460.3305	-0.0015
460.5323	0.0087
460.7341	0.0071
460.9359	-0.0012
461.1376	-0.0025
461.3394	-0.0021
461.5411	0.0028
461.7428	-0.0071
461.9445	0.0028
462.1462	-0.0009
462.3479	-0.0014
462.5495	0.0015
462.7512	-0.0038
462.9528	-0.0004
463.1544	0.0037
463.356	0.0067
463.5576	0.0025
463.7592	-0.0038
463.9607	0.0042
464.1623	0.0036
464.3638	0.0006
464.5653	-0.0057
464.7668	-0.0057
464.9683	0.0032
465.1697	0.0009
465.3712	-0.001
465.5726	-0.008
465.7741	-0.0098
465.9755	-0.0053
466.1769	-0.0231
466.3782	-0.0045
466.5796	-0.0067
466.7809	-0.0024
466.9823	-0.0011
467.1836	-0.0049
467.3849	-0.0008
467.5862	-0.0075
467.7875	-0.0041
467.9887	0.0052
468.19	-0.006
468.3912	-0.0063
468.5924	-0.0006
468.7936	-0.0068
468.9948	0.0055
469.196	-0.003
469.3972	0.0038
469.5983	0.0103
469.7994	-0.0029
470.0006	-0.0077
470.2017	0.0073
470.4027	-0.0006
470.6038	-0.0002
470.8049	-0.0077
471.0059	-0.0043
471.2069	0.0027
471.408	-0.0051
471.6089	-0.008
471.8099	-0.0054
472.0109	-0.006
472.2119	-0.0166
472.4128	0.0007
472.6137	-0.0106
472.8146	-0.0048
473.0155	-0.0066
473.2164	-0.0179
473.4173	-0.0033
473.6181	-0.0015
473.819	-0.0079
474.0198	-0.0029
474.2206	-0.0062
474.4214	-0.0073
474.6222	-0.0093
474.8229	-0.0131
475.0237	-0.002
475.2244	-0.0044
475.4251	-0.0086
475.6258	0.0038
475.8265	0.0004
476.0272	-0.0068
476.2278	0.0052
476.4285	0.0042
476.6291	-0.0055
476.8297	-0.01
477.0303	-0.0104
477.2309	-0.0047
477.4315	0.0014
477.632	-0.0075
477.8326	0.0001
478.0331	-0.0143
478.2336	-0.0077
478.4341	-0.0151
478.6346	-0.0005
478.8351	-0.0073
479.0355	-0.0142
479.236	-0.014
479.4364	-0.0059
479.6368	-0.0047
479.8372	-0.0084
480.0376	-0.0062
480.2379	-0.0071
480.4383	-0.0029
480.6386	-0.0089
480.8389	-0.0073
481.0392	-0.0058
481.2395	-0.0098
481.4398	0.006
481.6401	-0.0069
481.8403	-0.0003
482.0405	-0.0098
482.2408	0.0069
482.441	0.0015
482.6411	-0.0035
482.8413	-0.0047
483.0415	-0.0084
483.2416	-0.0015
483.4417	-0.0098
483.6419	0.0065
483.8419	-0.0084
484.042	-0.003
484.2421	-0.0064
484.4422	-0.0081
484.6422	-0.0131
484.8422	-0.0185
485.0422	-0.0037
485.2422	-0.0056
485.4422	-0.0091
485.6422	-0.009
485.8421	-0.008
486.042	0.0031
486.242	-0.0099
486.4419	-0.0012
486.6417	-0.0099
486.8416	0.0031
487.0415	-0.0065
487.2413	-0.0075
487.4411	-0.004
487.641	-0.0087
487.8408	-0.0115
488.0405	-0.0055
488.2403	-0.0041
488.4401	-0.0081
488.6398	-0.0126
488.8395	-0.0117
489.0392	-0.0049
489.2389	-0.0118
489.4386	-0.0123
489.6383	-0.0101
489.8379	-0.0043
490.0376	-0.0046
490.2372	-0.0043
490.4368	-0.0133
490.6364	0.0058
490.836	-0.004
491.0355	-0.0042
491.2351	-0.0148
491.4346	-0.0031
491.6341	-0.0032
491.8336	-0.0072
492.0331	-0.0121
492.2326	-0.0074
492.432	-0.0069
492.6315	-0.0109
492.8309	-0.009
493.0303	-0.0057
493.2297	-0.0058
493.4291	-0.0088
493.6284	-0.0013
493.8278	-0.0033
494.0271	-0.0024
494.2264	-0.0076
494.4257	-0.0036
494.625	-0.0025
494.8243	-0.005
495.0236	-0.0084
495.2228	-0.0097
495.422	-0.0101
495.6213	-0.0152
495.8205	-0.001
496.0196	-0.0099
496.2188	-0.0042
496.418	0.0007
496.6171	-0.0018
496.8162	-0.0114
497.0153	-0.0076
497.2144	-0.0063
497.4135	-0.0094
497.6126	-0.0005
497.8116	0.0023
498.0107	-0.0079
498.2097	-0.0051
498.4087	0.0037
498.6077	-0.0083
498.8067	-0.0103
499.0056	-0.0087
499.2046	0.0012
499.4035	-0.0086
499.6024	-0.004
499.8013	0.0001
500.0002	-0.0066
500.199	-0.0059
500.3979	-0.0039
500.5967	-0.0142
500.7956	-0.013
500.9944	-0.0083
501.1932	-0.0075
501.3919	-0.0088
501.5907	-0.0019
501.7895	-0.0021
501.9882	-0.0093
502.1869	-0.0034
502.3856	-0.0044
502.5843	-0.0089
502.783	-0.007
502.9816	-0.0091
503.1803	0.0015
503.3789	-0.004
503.5775	-0.0009
503.7761	-0.0114
503.9747	-0.0053
504.1732	-0.0033
504.3718	-0.0061
504.5703	-0.006
504.7689	-0.0026
504.9674	-0.0004
505.1658	-0.0094
505.3643	-0.0028
505.5628	0.0032
505.7612	-0.0132
505.9597	-0.0049
506.1581	-0.001
506.3565	-0.0054
506.5549	-0.0046
506.7532	-0.0104
506.9516	-0.0071
507.1499	-0.0054
507.3482	-0.0084
507.5465	-0.0027
507.7448	-0.0056
507.9431	-0.0097
508.1414	-0.003
508.3396	-0.0066
508.5379	-0.0046
508.7361	-0.004
508.9343	-0.0079
509.1325	-0.0039
509.3306	-0.0001
509.5288	-0.0021
509.7269	-0.0164
509.9251	-0.0082
510.1232	-0.0018
510.3213	-0.0131
510.5193	-0.0026
510.7174	-0.0052
510.9154	-0.0072
511.1135	-0.0079
511.3115	-0.0046
511.5095	-0.0121
511.7075	-0.002
511.9055	-0.0053
512.1034	-0.0085
512.3014	-0.01
512.4993	-0.0078
512.6972	-0.0037
512.8951	-0.0094
513.093	-0.0159
513.2908	-0.0037
513.4887	-0.0104
513.6865	-0.0053
513.8844	-0.0068
514.0822	-0.0093
514.2799	-0.0051
514.4777	-0.0066
514.6755	-0.0062
514.8732	-0.007
515.0709	-0.0072
515.2687	-0.0121
515.4664	-0.0105
515.664	-0.0043
515.8617	-0.0117
516.0594	-0.0064
516.257	-0.001
516.4546	-0.0161
516.6522	-0.0056
516.8498	-0.0141
517.0474	-0.0027
517.2449	-0.0091
517.4425	-0.0036
517.64	-0.0073
517.8375	-0.0081
518.035	-0.0038
518.2325	-0.0012
518.43	-0.0052
518.6274	-0.0083
518.8249	-0.0071
519.0223	-0.0102
519.2197	-0.0031
519.4171	-0.0052
519.6145	-0.002
519.8118	-0.0115
520.0092	0.0012
520.2065	-0.0117
520.4038	-0.0038
520.6011	-0.0117
520.7984	-0.0076
520.9956	-0.0095
521.1929	-0.0056
521.3901	-0.0085
521.5874	0.0003
521.7846	-0.0008
521.9818	-0.0064
522.1789	-0.0096
522.3761	-0.0123
522.5732	-0.0074
522.7704	-0.0002
522.9675	-0.0042
523.1646	-0.0062
523.3617	-0.0069
523.5587	-0.0035
523.7558	0.0004
523.9528	-0.0077
524.1498	-0.0097
524.3468	0.0038
524.5438	-0.0045
524.7408	-0.0086
524.9378	-0.0126
525.1347	-0.0009
525.3316	-0.0026
525.5285	-0.0078
525.7254	-0.0065
525.9223	-0.0015
526.1192	-0.0087
526.316	-0.0111
526.5129	-0.0044
526.7097	-0.0093
526.9065	-0.0058
527.1033	-0.0033
527.3	-0.009
527.4968	-0.0146
527.6935	-0.0077
527.8903	-0.0031
528.087	-0.0172
528.2837	0.0007
528.4804	-0.0074
528.677	-0.0053
528.8737	-0.0097
529.0703	-0.005
529.2669	-0.0038
529.4635	-0.0021
529.6601	-0.0034
529.8567	-0.0021
530.0532	0.001
530.2498	-0.0002
530.4463	-0.008
530.6428	0.0016
530.8393	-0.0009
531.0358	-0.0119
531.2322	-0.0091
531.4287	-0.0138
531.6251	-0.0097
531.8215	-0.0029
532.0179	-0.0125
532.2143	-0.0068
532.4107	-0.0031
532.607	-0.0089
532.8034	-0.0094
532.9997	-0.0051
533.196	-0.0143
533.3923	-0.0033
533.5886	0.0017
533.7848	-0.0085
533.9811	-0.0089
534.1773	-0.0114
534.3735	-0.0009
534.5697	-0.0071
534.7659	-0.0022
534.9621	-0.0054
535.1582	-0.0036
535.3544	-0.0101
535.5505	-0.0017
535.7466	0.0007
535.9427	-0.0038
536.1387	-0.0034
536.3348	0.0037
536.5308	-0.0078
536.7269	-0.0048
536.9229	-0.0026
537.1189	-0.0062
537.3148	0.0017
537.5108	0.0019
537.7068	-0.0042
537.9027	-0.0107
538.0986	0.0035
538.2945	-0.0049
538.4904	-0.0141
538.6863	-0.0057
538.8821	-0.0046
539.078	-0.0056
539.2738	-0.0091
539.4696	-0.0073
539.6654	-0.0065
539.8611	-0.0073
540.0569	-0.0006
540.2526	-0.0022
540.4484	0.004
540.6441	-0.0042
540.8398	-0.0081
541.0355	-0.0031
541.2311	-0.0016
541.4268	-0.0055
541.6224	0.0026
541.818	-0.0071
542.0136	-0.0049
542.2092	-0.0103
542.4048	-0.0036
542.6003	-0.0053
542.7959	-0.003
542.9914	-0.0041
543.1869	-0.0052
543.3824	-0.0058
543.5779	-0.0145
543.7734	-0.0054
543.9688	-0.0152
544.1642	-0.0117
544.3596	-0.0099
544.555	-0.0074
544.7504	-0.0097
544.9458	0.0007
545.1411	0.0009
545.3365	0
545.5318	0.0024
545.7271	-0.004
545.9224	-0.0027
546.1177	-0.0053
546.3129	-0.003
546.5081	-0.0037
546.7034	-0.0049
546.8986	-0.0049
547.0938	-0.006
547.289	-0.0069
547.4841	-0.0016
547.6793	-0.0079
547.8744	-0.003
548.0695	-0.0099
548.2646	-0.0038
548.4597	-0.0029
548.6548	0.0035
548.8498	-0.006
549.0448	0.0007
549.2399	-0.0031
549.4349	-0.0024
549.6298	-0.0058
549.8248	-0.0009
550.0198	-0.001
550.2147	-0.0047
550.4096	-0.0073
550.6045	-0.0075
550.7994	0.0003
550.9943	-0.0006
551.1892	-0.0048
551.384	-0.0088
551.5788	-0.011
551.7737	0.0049
551.9685	-0.0047
552.1632	-0.0063
552.358	-0.0097
552.5528	-0.0055
552.7475	-0.0057
552.9422	-0.0055
553.1369	-0.0048
553.3316	-0.0051
553.5263	-0.0074
553.7209	-0.0109
553.9156	-0.0029
554.1102	-0.0089
554.3048	-0.0115
554.4994	-0.005
554.694	-0.0001
554.8885	-0.0084
555.0831	-0.0066
555.2776	-0.0021
555.4721	-0.0081
555.6666	-0.0055
555.8611	-0.0058
556.0555	-0.0094
556.25	-0.0028
556.4444	-0.0098
556.6388	-0.0088
556.8332	-0.0073
557.0276	-0.0054
557.222	-0.0061
557.4163	0.0023
557.6107	-0.0093
557.805	-0.0077
557.9993	-0.008
558.1936	-0.0053
558.3879	0.0033
558.5821	-0.0064
558.7764	-0.0116
558.9706	-0.0066
559.1648	-0.0015
559.359	-0.0069
559.5532	-0.0036
559.7473	-0.0068
559.9415	-0.0061
560.1356	-0.0058
560.3297	-0.011
560.5238	-0.0054
560.7179	-0.0019
560.9119	-0.0013
561.106	0.0001
561.3	-0.0003
561.494	-0.0064
561.688	-0.0041
561.882	-0.0093
562.076	-0.0067
562.2699	-0.0082
562.4639	-0.0022
562.6578	-0.0084
562.8517	-0.0058
563.0456	0.0022
563.2395	-0.0078
563.4333	-0.0031
563.6272	-0.0041
563.821	-0.002
564.0148	0.0037
564.2086	-0.0049
564.4024	-0.0061
564.5961	0.0011
564.7899	0.0025
564.9836	0.0034
565.1773	-0.0043
565.371	-0.0024
565.5647	0.0022
565.7584	-0.0037
565.952	0.0018
566.1456	-0.0014
566.3393	-0.0019
566.5329	0.003
566.7264	0.0016
566.92	-0.0036
567.1136	-0.0028
567.3071	-0.003
567.5006	-0.0003
567.6941	-0.0005
567.8876	-0.0029
568.0811	-0.0071
568.2745	-0.0052
568.468	-0.009
568.6614	-0.0117
568.8548	-0.0078
569.0482	-0.0069
569.2416	-0.004
569.4349	-0.0029
569.6283	-0.0117
569.8216	-0.0059
570.0149	-0.0056
570.2082	-0.0038
570.4015	-0.0049
570.5947	-0.0037
570.788	-0.0052
570.9812	-0.0062
571.1744	-0.0083
571.3676	-0.005
571.5608	-0.0028
571.754	-0.006
571.9471	-0.006
572.1402	-0.0048
572.3333	-0.0029
572.5264	0.0001
572.7195	0.0007
572.9126	-0.0037
573.1057	-0.0074
573.2987	-0.0028
573.4917	-0.0087
573.6847	-0.0014
573.8777	-0.0066
574.0707	-0.0008
574.2636	-0.0041
574.4566	-0.002
574.6495	-0.0011
574.8424	-0.0047
575.0353	-0.0014
575.2281	0.0025
575.421	-0.0078
575.6138	-0.0059
575.8067	-0.0053
575.9995	-0.0034
576.1923	-0.0044
576.385	-0.0038
576.5778	-0.0021
576.7706	-0.0005
576.9633	-0.0019
577.156	0
577.3487	-0.0015
577.5414	0.0004
577.734	0.0013
577.9267	0.0013
578.1193	-0.0056
578.3119	-0.0014
578.5045	-0.0026
578.6971	-0.0002
578.8897	-0.0054
579.0822	-0.0038
579.2747	0.0067
579.4673	0.0006
579.6598	0.0005
579.8522	-0.003
580.0447	-0.0045
580.2372	-0.0029
580.4296	0.0071
580.622	0.0001
580.8144	-0.0048
581.0068	-0.0082
581.1992	0.0023
581.3915	-0.0007
581.5839	-0.0066
581.7762	-0.0071
581.9685	-0.0029
582.1608	-0.0063
582.353	0.0007
582.5453	-0.007
582.7375	0.0032
582.9298	-0.0057
583.122	0.0018
583.3142	-0.004
583.5063	-0.0038
583.6985	-0.0052
583.8906	-0.0033
584.0827	-0.0048
584.2749	-0.0042
584.4669	-0.0076
584.659	-0.0096
584.8511	-0.0084
585.0431	0.001
585.2352	-0.0049
585.4272	-0.0052
585.6192	-0.0049
585.8111	-0.006
586.0031	0.0008
586.195	-0.0054
586.387	-0.0004
586.5789	-0.0016
586.7708	-0.0065
586.9627	-0.0018
587.1545	-0.0094
587.3464	-0.0092
587.5382	-0.0032
587.73	-0.0056
587.9218	-0.0061
588.1136	-0.0066
588.3053	0.0028
588.4971	-0.0111
588.6888	-0.0073
588.8805	-0.0041
589.0722	0.0023
589.2639	-0.0043
589.4556	-0.0069
589.6472	-0.0019
589.8389	-0.0035
590.0305	-0.0011
590.2221	-0.001
590.4137	-0.0027
590.6052	-0.0068
590.7968	-0.0008
590.9883	-0.002
591.1798	-0.0076
591.3713	-0.0016
591.5628	-0.005
591.7543	-0.002
591.9458	-0.004
592.1372	-0.0057
592.3286	-0.0017
592.52	-0.0047
592.7114	0.0038
592.9028	-0.0054
593.0941	0.0026
593.2855	-0.0022
593.4768	-0.0011
593.6681	-0.0028
593.8594	0.0044
594.0506	0.0023
594.2419	0.0026
594.4331	-0.0026
594.6244	-0.0025
594.8156	-0.005
595.0067	-0.0044
595.1979	-0.0029
595.3891	-0.0019
595.5802	-0.0041
595.7713	-0.0051
595.9624	-0.0017
596.1535	0.0008
596.3446	-0.0043
596.5357	-0.0042
596.7267	-0.0005
596.9177	0.0003
597.1087	0.0026
597.2997	0.0024
597.4907	0.0004
597.6817	-0.0068
597.8726	-0.006
598.0635	-0.0074
598.2544	-0.0053
598.4453	-0.0053
598.6362	-0.0044
598.827	-0.007
599.0179	-0.0015
599.2087	-0.0083
599.3995	-0.0114
599.5903	-0.0001
599.7811	-0.0021
599.9718	-0.0008
600.1626	0.0008
600.3533	-0.0015
600.544	-0.0028
600.7347	0.0003
600.9254	-0.0039
601.116	-0.0077
601.3067	-0.0053
601.4973	-0.0057
601.6879	-0.0017
601.8785	-0.0043
602.0691	-0.0012
602.2596	0.0004
602.4502	-0.0028
602.6407	-0.0021
602.8312	-0.0024
603.0217	-0.0026
603.2122	-0.0052
603.4027	-0.0006
603.5931	-0.006
603.7835	-0.001
603.9739	0.0005
604.1643	-0.0024
604.3547	-0.0009
604.5451	-0.0008
604.7354	-0.0002
604.9257	-0.0065
605.116	-0.0042
605.3063	-0.0017
605.4966	-0.0001
605.6869	-0.0043
605.8771	-0.0019
606.0673	-0.0043
606.2575	-0.0068
606.4477	-0.0051
606.6379	-0.008
606.8281	-0.0104
607.0182	-0.0099
607.2083	-0.004
607.3985	-0.0095
607.5885	-0.0058
607.7786	-0.0015
607.9687	-0.0034
608.1587	-0.0086
608.3488	-0.0064
608.5388	-0.002
608.7288	-0.0052
608.9187	0.0027
609.1087	-0.0072
609.2986	-0.0014
609.4886	-0.0032
609.6785	0.0011
609.8684	-0.0019
610.0582	-0.0003
610.2481	-0.0041
610.4379	0.0024
610.6278	-0.0039
610.8176	0.0034
611.0074	-0.0054
611.1971	-0.002
611.3869	-0.002
611.5766	0.0032
611.7664	0.0001
611.9561	-0.0017
612.1458	0.003
612.3354	-0.0041
612.5251	-0.0094
612.7147	-0.0034
612.9044	-0.0065
613.094	-0.001
613.2836	-0.0039
613.4731	-0.0088
613.6627	-0.0036
613.8522	-0.0038
614.0417	-0.0054
614.2313	-0.004
614.4207	-0.0015
614.6102	-0.0013
614.7997	-0.004
614.9891	-0.0051
615.1785	-0.0035
615.3679	-0.0012
615.5573	-0.0008
615.7467	0.0028
615.9361	-0.0021
616.1254	-0.0068
616.3147	-0.0055
616.504	-0.0032
616.6933	-0.0081
616.8826	-0.0074
617.0718	-0.0045
617.2611	0.0006
617.4503	0.0071
617.6395	-0.0034
617.8287	0.0017
618.0179	0.0047
618.207	-0.0049
618.3961	-0.0015
618.5853	-0.0045
618.7744	-0.0028
618.9634	0.0024
619.1525	-0.0049
619.3416	-0.0059
619.5306	-0.0041
619.7196	0.0007
619.9086	-0.0011
620.0976	-0.0001
620.2866	-0.0034
620.4755	-0.0051
620.6645	-0.0036
620.8534	-0.0008
621.0423	-0.0069
621.2312	-0.0094
621.42	-0.0017
621.6089	-0.0021
621.7977	-0.0064
621.9865	-0.0041
622.1753	-0.0024
622.3641	0.0038
622.5529	-0.0018
622.7416	-0.0088
622.9303	0.002
623.1191	-0.0027
623.3078	-0.0034
623.4964	0.0009
623.6851	-0.0004
623.8737	-0.0056
624.0624	-0.001
624.251	0.0025
624.4396	-0.0051
624.6282	-0.0035
624.8167	-0.0009
625.0053	-0.006
625.1938	0.002
625.3823	0.0006
625.5708	-0.0028
625.7593	-0.0017
625.9477	-0.0066
626.1362	-0.0061
626.3246	-0.0049
626.513	-0.0104
626.7014	-0.0032
626.8898	-0.0024
627.0781	-0.0017
627.2665	-0.0047
627.4548	-0.0052
627.6431	-0.0045
627.8314	-0.0039
628.0197	-0.0005
628.2079	0.0027
628.3962	0.0043
628.5844	0.0028
628.7726	0.0001
628.9608	-0.001
629.1489	0.0012
629.3371	0.0019
629.5252	0.0047
629.7134	0.0003
629.9015	-0.0014
630.0895	-0.0023
630.2776	0.0014
630.4657	-0.001
630.6537	0.0001
630.8417	0.0002
631.0297	-0.003
631.2177	0.0034
631.4057	0.0053
631.5936	-0.0026
631.7815	-0.0059
631.9695	-0.0017
632.1574	-0.0086
632.3452	-0.0063
632.5331	-0.0039
632.7209	-0.0054
632.9088	-0.0048
633.0966	-0.0047
633.2844	-0.0049
633.4722	-0.0008
633.6599	-0.0006
633.8477	-0.0021
634.0354	-0.0045
634.2231	-0.0027
634.4108	-0.0037
634.5985	-0.0027
634.7861	-0.0031
634.9738	-0.0088
635.1614	-0.0023
635.349	-0.0045
635.5366	-0.0045
635.7242	-0.0023
635.9117	0.0031
636.0993	-0.0039
636.2868	0.0003
636.4743	-0.0021
636.6618	-0.0041
636.8492	0.0012
637.0367	-0.0036
637.2241	-0.0023
637.4115	-0.0034
637.5989	-0.0054
637.7863	0.0017
637.9737	-0.0049
638.161	-0.0044
638.3484	-0.0037
638.5357	-0.0028
638.723	-0.0029
638.9103	0.0041
639.0975	0.0002
639.2848	-0.0011
639.472	0.0022
639.6592	0.0005
639.8464	-0.0007
640.0336	-0.003
640.2208	0.0028
640.4079	-0.0002
640.595	0.0007
640.7821	-0.0027
640.9692	0.0023
641.1563	0.0041
641.3434	-0.0017
641.5304	-0.0001
641.7174	-0.0014
641.9044	0.0045
642.0914	-0.001
642.2784	0.0004
642.4653	0.005
642.6523	-0.0003
642.8392	0.0069
643.0261	0.0069
643.213	0.0002
643.3999	-0.0036
643.5867	-0.0013
643.7735	-0.0024
643.9604	-0.0031
644.1472	-0.0015
644.3339	0.0036
644.5207	-0.0019
644.7075	-0.0009
644.8942	-0.0033
645.0809	-0.0003
645.2676	-0.0088
645.4543	0.0028
645.6409	-0.0017
645.8276	-0.0018
646.0142	-0.003
646.2008	-0.0076
646.3874	-0.0027
646.574	-0.0058
646.7605	-0.0014
646.9471	-0.0041
647.1336	0.0013
647.3201	-0.004
647.5066	-0.0005
647.6931	0.003
647.8795	-0.0012
648.0659	-0.001
648.2524	-0.0025
648.4388	0.0003
648.6252	-0.0048
648.8115	-0.013
648.9979	-0.0037
649.1842	-0.0071
649.3705	-0.0016
649.5568	-0.0055
649.7431	-0.0076
649.9294	-0.0055
650.1156	-0.0016
650.3018	-0.0051
650.488	-0.0085
650.6742	-0.0065
650.8604	-0.0001
651.0466	0.0002
651.2327	-0.0036
651.4188	0.0001
651.6049	0.0034
651.791	0.0014
651.9771	0.0008
652.1632	0.0011
652.3492	-0.0005
652.5352	-0.0025
652.7212	0.0023
652.9072	0.0034
653.0932	-0.0003
653.2791	-0.0018
653.465	-0.0022
653.651	-0.0018
653.8369	-0.0004
654.0227	0.0029
654.2086	0.0004
654.3944	-0.0068
654.5803	-0.0066
654.7661	-0.0051
654.9519	-0.0064
655.1377	-0.0012
655.3234	-0.0001
655.5092	-0.0001
655.6949	-0.0001
655.8806	-0.0001
656.0663	-0.0001
656.2519	-0.0001
656.4376	-0.0032
656.6232	-0.0038
656.8088	-0.0036
656.9945	-0.004
657.18	0.004
657.3656	0.0015
657.5511	-0.0024
657.7367	-0.0077
657.9222	0.0036
658.1077	-0.0025
658.2932	-0.0047
658.4786	-0.002
658.6641	-0.0024
658.8495	-0.0039
659.0349	-0.0022
659.2203	-0.0062
659.4057	-0.0068
659.591	-0.0025
659.7764	-0.0068
659.9617	-0.0052
660.147	-0.0047
660.3323	-0.0066
660.5176	-0.0086
660.7028	-0.0062
660.888	-0.0039
661.0733	0.0053
661.2585	-0.0024
661.4436	-0.0035
661.6288	-0.0079
661.8139	0.0022
661.9991	-0.0019
662.1842	-0.0026
662.3693	-0.0037
662.5544	0.0005
662.7394	-0.0001
662.9245	0.0019
663.1095	0.0027
663.2945	-0.0034
663.4795	-0.0071
663.6644	-0.0039
663.8494	-0.0045
664.0343	-0.0028
664.2193	-0.0103
664.4042	-0.0089
664.589	-0.0012
664.7739	-0.0059
664.9587	0.0019
665.1436	0.0013
665.3284	-0.0038
665.5132	-0.0009
665.698	0.0037
665.8827	-0.0026
666.0675	-0.0062
666.2522	-0.0077
666.4369	-0.0028
666.6216	-0.0061
666.8063	-0.0062
666.9909	-0.0097
667.1756	-0.0044
667.3602	-0.0097
667.5448	-0.0096
667.7294	-0.006
667.9139	-0.0098
668.0985	-0.0153
668.283	-0.0088
668.4675	-0.0117
668.652	-0.0074
668.8365	-0.0091
669.0209	-0.0112
669.2054	-0.005
669.3898	-0.0072
669.5742	-0.0083
669.7586	-0.0031
669.943	-0.0056
670.1273	-0.0088
670.3117	-0.0048
670.496	-0.0074
670.6803	-0.0001
670.8646	-0.006
671.0488	-0.003
671.2331	-0.0045
671.4173	0.0008
671.6015	-0.0003
671.7857	-0.0089
671.9699	-0.005
672.1541	-0.0065
672.3382	-0.008
672.5223	-0.0092
672.7064	-0.0078
672.8905	-0.0131
673.0746	-0.0119
673.2587	-0.0128
673.4427	-0.0143
673.6267	-0.0095
673.8107	-0.0117
673.9947	-0.0108
674.1787	-0.0045
674.3626	-0.0075
674.5465	-0.0024
674.7304	0.0046
674.9143	-0.0065
675.0982	-0.0061
675.2821	-0.0028
675.4659	-0.0064
675.6497	-0.0001
675.8335	-0.0017
676.0173	-0.0093
676.2011	-0.0061
676.3849	-0.0052
676.5686	-0.0028
676.7523	-0.0022
676.936	-0.0048
677.1197	-0.0055
677.3034	-0.0034
677.487	-0.0032
677.6706	-0.0081
677.8542	-0.0019
678.0378	-0.0064
678.2214	-0.005
678.405	-0.0078
678.5885	-0.0086
678.772	-0.0004
678.9555	-0.0031
679.139	-0.0079
679.3225	-0.01
679.5059	-0.0045
679.6894	-0.001
679.8728	-0.0017
680.0562	-0.0012
680.2395	-0.0003
680.4229	-0.0004
680.6062	0.0012
680.7896	0.001
680.9729	-0.0015
681.1562	-0.0015
681.3394	-0.0041
681.5227	-0.0037
681.7059	-0.0066
681.8891	-0.0019
682.0723	-0.0097
682.2555	-0.0025
682.4387	-0.0043
682.6218	-0.0067
682.805	-0.0072
682.9881	-0.001
683.1712	0.0031
683.3542	-0.0006
683.5373	-0.006
683.7203	-0.0002
683.9034	-0.0014
684.0864	-0.0045
684.2694	-0.004
684.4523	-0.0021
684.6353	-0.0016
684.8182	-0.0004
685.0011	-0.0036
685.184	-0.0023
685.3669	0.0014
685.5498	0.0059
685.7326	-0.0032
685.9154	-0.0067
686.0982	-0.0017
686.281	-0.0044
686.4638	-0.0013
686.6465	-0.0043
686.8293	-0.0063
687.012	-0.0008
687.1947	-0.0065
687.3774	-0.0065
687.56	-0.0054
687.7427	-0.0038
687.9253	-0.004
688.1079	0.0011
688.2905	-0.005
688.4731	-0.0011
688.6556	-0.0041
688.8382	-0.0005
689.0207	0.0011
689.2032	-0.002
689.3857	0.0007
689.5681	0.0017
689.7506	0.0005
689.933	0.0002
690.1154	-0.0001
690.2978	-0.0002
690.4802	-0.0018
690.6626	0.0045
690.8449	0.0002
691.0272	0.0055
691.2095	-0.0029
691.3918	-0.0017
691.5741	-0.0063
691.7563	0.0018
691.9386	-0.0022
692.1208	-0.0072
692.303	-0.0037
692.4852	0.0009
692.6673	-0.0037
692.8495	-0.0053
693.0316	-0.0033
693.2137	-0.0027
693.3958	-0.0052
693.5778	-0.0025
693.7599	-0.001
693.9419	-0.0111
694.1239	-0.0082
694.3059	-0.0085
694.4879	-0.0063
694.6699	-0.0091
694.8518	-0.0125
695.0337	-0.0025
695.2157	0.0035
695.3975	-0.0079
695.5794	-0.0049
695.7613	-0.0115
695.9431	-0.006
696.1249	-0.0055
696.3067	-0.0084
696.4885	-0.0016
696.6703	-0.0044
696.852	-0.0076
697.0337	0.0042
697.2154	-0.003
697.3971	-0.0075
697.5788	-0.0033
697.7605	-0.0022
697.9421	-0.0077
698.1237	-0.0039
698.3053	-0.0037
698.4869	-0.0036
698.6685	-0.0076
698.85	-0.0055
699.0315	-0.0005
699.213	-0.0039
699.3945	-0.0039
699.576	0.0042
699.7575	0.0008
699.9389	0.0005
700.1203	-0.002
700.3017	-0.0062
700.4831	-0.0018
700.6645	-0.0085
700.8458	-0.0025
701.0271	-0.0017
701.2084	-0.0087
701.3897	-0.0061
701.571	-0.0023
701.7523	-0.0023
701.9335	0.0055
702.1147	0.0088
702.2959	-0.0028
702.4771	-0.0038
702.6583	-0.0015
702.8394	-0.0042
703.0205	0.0032
703.2016	-0.0015
703.3827	0.0015
703.5638	-0.0106
703.7449	-0.0015
703.9259	-0
704.1069	-0.0022
704.2879	-0.0028
704.4689	-0.0063
704.6499	-0.0052
704.8308	0.0005
705.0117	-0.004
705.1927	-0.0053
705.3735	0.0042
705.5544	-0.0029
705.7353	-0.0004
705.9161	0.0015
706.0969	0.0051
706.2777	-0.0061
706.4585	-0.0026
706.6393	0.0007
706.82	-0.0036
707.0007	-0.0076
707.1815	-0.0005
707.3621	-0.0014
707.5428	-0.003
707.7235	-0
707.9041	0.0034
708.0847	0.0017
708.2653	-0.0072
708.4459	-0.0052
708.6265	-0.0074
708.807	-0.0008
708.9875	-0.0001
709.168	-0.004
709.3485	-0.0034
709.529	-0.0077
709.7095	-0.0008
709.8899	-0.0131
710.0703	-0.0025
710.2507	-0.0046
710.4311	0.002
710.6115	-0.0012
710.7918	-0.0014
710.9721	0.0025
711.1524	-0.0013
711.3327	0.0015
711.513	-0.0041
711.6932	-0.011
711.8735	-0.0003
712.0537	-0.0029
712.2339	-0.0039
712.4141	-0.0062
712.5942	0.0056
712.7744	0.0008
712.9545	0
713.1346	-0.0002
713.3147	0.0058
713.4947	0.0051
713.6748	-0.0057
713.8548	-0.0068
714.0348	-0.0016
714.2148	-0.0026
714.3948	-0.0062
714.5748	-0.0079
714.7547	-0.0044
714.9346	-0.0029
715.1145	-0.0036
715.2944	-0.0043
715.4743	-0.006
715.6541	-0.0046
715.834	-0.0042
716.0138	-0.0028
716.1936	0.0014
716.3733	-0.0092
716.5531	-0.0067
716.7328	-0.0017
716.9126	-0.0053
717.0923	-0.004
717.2719	-0.0086
717.4516	-0.0062
717.6312	0.0047
717.8109	-0.0009
717.9905	-0.0132
718.1701	-0.0024
718.3496	-0.0037
718.5292	0.0015
718.7087	-0.0045
718.8882	-0.01
719.0677	-0.0017
719.2472	-0.0027
719.4267	-0.0116
719.6061	-0.0127
719.7856	-0.0044
719.965	-0.0098
720.1443	-0.0069
720.3237	-0.0045
720.5031	-0.0064
720.6824	-0.0017
720.8617	-0.0079
721.041	0.0005
721.2203	-0.0084
721.3995	-0.0009
721.5788	-0.0077
721.758	-0.0033
721.9372	-0.0001
722.1164	-0.0119
722.2956	-0.0093
722.4747	-0.0061
722.6538	-0.0061
722.8329	-0.0048
723.012	-0.0074
723.1911	-0.0025
723.3702	0.0028
723.5492	-0.0037
723.7282	-0.0048
723.9072	-0.0069
724.0862	0.001
724.2652	-0.0081
724.4441	-0.0081
724.623	-0.0006
724.8019	0.0007
724.9808	0.0004
725.1597	0.0068
725.3385	0.0026
725.5174	0.0013
725.6962	-0.0052
725.875	0.0017
726.0538	0.0069
726.2325	-0.0067
726.4112	-0.0014
726.59	-0.0008
726.7687	-0.0041
726.9474	-0.0051
727.126	-0.0056
727.3047	-0.0036
727.4833	-0.0022
727.6619	-0.011
727.8405	0.0001
728.0191	-0.0066
728.1976	-0.0036
728.3762	-0.0073
728.5547	-0.0015
728.7332	-0.0078
728.9116	-0.0071
729.0901	-0.0114
729.2686	-0.0089
729.447	-0.0059
729.6254	-0.012
729.8038	-0.0075
729.9821	-0.0082
730.1605	-0.0038
730.3388	0.0022
730.5171	0.0001
730.6954	-0.0024
730.8737	-0.0039
731.0519	0.0012
731.2302	-0.0013
731.4084	0.0004
731.5866	0.0013
731.7648	0.0014
731.9429	0.0004
732.1211	-0
732.2992	0.0011
732.4773	0.0044
732.6554	-0.0079
732.8335	-0.0068
733.0115	-0.0051
733.1896	-0.0076
733.3676	-0.0059
733.5456	-0.0046
733.7235	-0.0032
733.9015	0.0007
734.0794	-0.005
734.2574	-0.0008
734.4353	-0.0059
734.6131	0.0001
734.791	-0.0092
734.9689	-0.0049
735.1467	0.0063
735.3245	-0.0044
735.5023	-0.003
735.68	-0.0029
735.8578	0.0003
736.0355	0.0043
736.2132	-0.0024
736.3909	-0.0069
736.5686	-0.0022
736.7463	-0.0078
736.9239	-0.0026
737.1015	-0.0065
737.2791	-0.012
737.4567	-0.0099
737.6343	-0.0015
737.8118	-0.0063
737.9894	0.0034
738.1669	-0.0058
738.3444	-0.0007
738.5218	-0.0007
738.6993	-0.0004
738.8767	-0.0003
739.0541	-0.0096
739.2315	-0.0028
739.4089	-0.0001
739.5863	-0.0096
739.7636	-0.0033
739.9409	-0.0058
740.1182	0.0027
740.2955	-0.0024
740.4728	-0.0066
740.65	-0.0025
740.8272	0.0037
741.0044	-0.0005
741.1816	0.0002
741.3588	0.0038
741.5359	0.0047
741.7131	-0.0008
741.8902	0.001
742.0673	-0.0001
742.2444	-0.0065
742.4214	-0.0063
742.5985	-0.0039
742.7755	-0.0048
742.9525	-0.0034
743.1295	-0.0048
743.3064	-0.0054
743.4834	-0.0029
743.6603	-0.008
743.8372	0.0053
744.0141	-0.0056
744.191	-0.0008
744.3678	0.0019
744.5446	-0.0028
744.7215	-0.0072
744.8982	0.0045
745.075	-0.001
745.2518	-0.004
745.4285	0.0003
745.6052	0.0046
745.7819	-0.0025
745.9586	0.0002
746.1353	-0.0025
746.3119	0.0032
746.4885	-0.0082
746.6651	-0.0042
746.8417	-0.0069
747.0183	-0.0035
747.1948	-0.0075
747.3714	-0.0075
747.5479	-0.0059
747.7244	0.005
747.9008	0.0018
748.0773	0.0036
748.2537	0.0073
748.4301	-0.0017
748.6065	0.0016
748.7829	0.0047
748.9593	-0.0007
749.1356	-0.0064
749.3119	-0.0004
749.4882	0.003
749.6645	-0.005
749.8408	0.0005
750.017	-0.0086
750.1933	-0.0071
750.3695	-0.0055
750.5457	-0.0056
750.7218	-0.0062
750.898	-0.0049
751.0741	-0.0069
751.2502	-0.0094
751.4263	-0.0019
751.6024	-0.0034
751.7784	0.0056
751.9545	0.0033
752.1305	-0.0003
752.3065	-0.0035
752.4825	-0.0039
752.6584	-0.0009
752.8344	0.0002
753.0103	-0.0033
753.1862	0.0031
753.3621	-0.0039
753.5379	-0.0103
753.7138	0.0004
753.8896	-0.009
754.0654	-0.0102
754.2412	-0.0103
754.417	-0.0075
754.5927	-0.0051
754.7685	-0.0093
754.9442	-0.005
755.1199	-0.0086
755.2956	-0.0024
755.4712	-0.0052
755.6469	-0.0126
755.8225	-0.0078
755.9981	-0.0094
756.1736	-0.0047
756.3492	-0.0096
756.5248	-0.002
756.7003	-0.0156
756.8758	-0.0157
757.0513	-0.0072
757.2267	-0.0116
757.4022	-0.0052
757.5776	-0.0114
757.753	-0.0125
757.9284	-0.0097
758.1038	-0.01
758.2791	-0.0148
758.4545	-0.0123
758.6298	-0.003
758.8051	-0.0075
758.9803	-0.0105
759.1556	-0.0102
759.3308	-0.0022
759.506	-0.0091
759.6812	-0.0074
759.8564	-0.0085
760.0316	-0.01
760.2067	-0.0112
760.3819	-0.0057
760.557	-0.0123
760.732	-0.0064
760.9071	-0.0122
761.0821	-0.0091
761.2572	-0.0122
761.4322	-0.0096
761.6072	-0.0072
761.7821	-0.0114
761.9571	-0.0129
762.132	-0.0059
762.3069	-0.0048
762.4818	-0.0027
762.6567	-0.0106
762.8316	0.0008
763.0064	0.0018
763.1812	-0.0022
763.356	0.0008
763.5308	0.0062
763.7055	0.0054
763.8803	-0.0026
764.055	-0.0031
764.2297	-0.001
764.4044	-0.005
764.579	0.0027
764.7537	-0.0074
764.9283	-0.0106
765.1029	0.0053
765.2775	0.0067
765.4521	0.0014
765.6266	0.0025
765.8011	0.0013
765.9756	0.0027
766.1501	0.0049
766.3246	-0.0018
766.4991	-0.0043
766.6735	-0.0047
766.8479	-0.0121
767.0223	-0.0012
767.1967	-0.0115
767.371	-0.0075
767.5454	-0.0008
767.7197	-0.0014
767.894	-0.0013
768.0683	-0.0079
768.2425	-0.0013
768.4168	-0.0071
768.591	0.004
768.7652	0.0038
768.9394	0.0044
769.1135	0.0088
769.2877	-0.0013
769.4618	0.009
769.6359	-0.0032
769.81	0.0033
769.984	-0.0065
770.1581	-0.0025
770.3321	0.0005
770.5061	-0.0023
770.6801	0.0065
770.8541	0.0036
771.028	0.0005
771.202	-0.0006
771.3759	-0.0004
771.5498	0.0018
771.7236	0.0001
771.8975	-0.0023
772.0713	0.0014
772.2451	0.0033
772.4189	-0.0026
772.5927	-0.0057
772.7665	-0.0019
772.9402	0.0006
773.1139	0.0034
773.2876	0.0012
773.4613	-0.0069
773.635	0.0026
773.8086	0.0028
773.9822	-0.0005
774.1558	-0.0029
774.3294	0.0054
774.503	-0.0012
774.6765	0.0011
774.8501	0.0034
775.0236	-0.0143
775.1971	-0.0044
775.3705	-0.0015
775.544	-0.0036
775.7174	-0.0021
775.8908	-0.0036
776.0642	-0.0017
776.2376	-0.0053
776.4109	-0.0029
776.5843	0.0083
776.7576	-0.0021
776.9309	-0.0004
777.1041	-0.0008
777.2774	0.0062
777.4506	-0.0029
777.6238	-0.0023
777.797	-0.0007
777.9702	0.003
778.1434	-0.0051
778.3165	0.0028
778.4896	-0.0224
778.6627	-0.0005
778.8358	-0.0033
779.0089	-0.0062
779.1819	-0.003
779.3549	0.004
779.5279	-0.0021
779.7009	-0.0103
779.8739	-0.0058
780.0468	-0.002
780.2197	-0.0108
780.3926	-0.0028
780.5655	-0.0088
780.7384	-0.0097
780.9112	-0.0024
781.0841	0.0012
781.2569	-0.0005
781.4297	0.0009
781.6024	0.002
781.7752	-0.0004
781.9479	-0.0051
782.1206	0.0001
782.2933	-0.0016
782.466	-0.0033
782.6386	0.0054
782.8113	-0.0131
782.9839	-0.0083
783.1565	-0.0068
783.329	-0.0107
783.5016	-0.0007
783.6741	-0.006
783.8466	-0.0088
784.0191	-0.0046
784.1916	-0.0025
784.3641	-0.0027
784.5365	0.0026
784.7089	-0.0033
784.8813	0.0118
785.0537	0.0039
785.2261	0.0003
785.3984	-0.0004
785.5707	0.0027
785.743	0.0038
785.9153	0.0002
786.0876	-0.0068
786.2598	0.0137
786.432	0.011
786.6042	0.0081
786.7764	0.0043
786.9486	-0.0004
787.1207	-0.0039
787.2928	0.004
787.4649	-0.0108
787.637	-0.0097
787.8091	-0
787.9811	0.0053
788.1532	-0.0045
788.3252	-0.0054
788.4972	0.0007
788.6691	-0.0058
788.8411	0.012
789.013	-0.0003
789.1849	0.0063
789.3568	-0.0055
789.5287	-0.0027
789.7005	-0.0035
789.8723	-0.0111
790.0442	-0.0077
790.2159	-0.0092
790.3877	-0.0045
790.5595	-0.0004
790.7312	0.0051
790.9029	0.0025
791.0746	-0.0019
791.2463	-0.0025
791.4179	-0.0027
791.5896	0.0006
791.7612	-0.0016
791.9328	-0.0047
792.1044	-0.0063
792.2759	0.0071
792.4474	-0.0024
792.619	-0.0084
792.7905	-0.0061
792.9619	-0.0017
793.1334	-0.0103
793.3048	-0.0037
793.4762	-0.0033
793.6476	-0.0179
793.819	-0.0086
793.9904	-0.0154
794.1617	-0.0131
794.333	-0.0024
794.5043	-0.0023
794.6756	0.0044
794.8469	0.0039
795.0181	-0.0079
795.1893	0.0023
795.3605	-0.0081
795.5317	-0.005
795.7029	-0.012
795.874	-0.0085
796.0452	-0.0041
796.2163	-0.0078
796.3873	-0.0084
796.5584	-0.0098
796.7294	-0.0132
796.9005	-0.0083
797.0715	-0.0185
797.2425	-0.0131
797.4134	-0.0083
797.5844	-0.0144
797.7553	-0.0118
797.9262	-0.0067
798.0971	-0.0163
798.2679	-0.0104
798.4388	-0.017
798.6096	-0.0109
798.7804	-0.0089
798.9512	-0.0102
799.122	-0.0059
799.2927	-0.0066
799.4635	-0.0063
799.6342	-0.0211
799.8049	-0.0158
799.9755	-0.0111
800.1462	-0.0149
800.3168	-0.0113
800.4874	-0.0145
800.658	-0.0119
800.8286	-0.0195
800.9991	-0.0183
801.1696	-0.0056
801.3402	-0.016
801.5106	-0.0198
801.6811	-0.0228
801.8516	-0.0176
802.022	-0.0265
802.1924	-0.0266
802.3628	-0.0229
802.5332	-0.0153
802.7035	-0.0181
802.8739	-0.0152
803.0442	-0.0179
803.2145	-0.0135
803.3847	-0.0229
803.555	-0.0112
803.7252	-0.0121
803.8954	-0.0188
804.0656	-0.0012
804.2358	-0.0127
804.4059	-0.0056
804.5761	-0.0111
804.7462	-0.008
804.9163	-0.0134
805.0864	-0.0063
805.2564	-0.0079
805.4264	-0.0185
805.5965	-0.0031
805.7665	-0.0108
805.9364	-0.011
806.1064	-0.0127
806.2763	-0.0188
806.4462	-0.0013
806.6161	-0.0089
806.786	-0.0039
806.9559	-0.0196
807.1257	-0.0089
807.2955	-0.0153
807.4653	-0.0081
807.6351	-0.0023
807.8048	0.0054
807.9746	-0.0013
808.1443	-0.0071
808.314	0.0003
808.4837	0.0027
808.6533	-0.0032
808.8229	0.0044
808.9926	0.008
809.1622	-0.0058
809.3317	0.0129
809.5013	0.005
809.6708	0.005
809.8403	0.0028
810.0098	0.0106
810.1793	-0.0041
810.3488	0.0107
810.5182	-0.0047
810.6876	-0.0044
810.857	-0.0059
811.0264	-0.0139
811.1958	0.004
811.3651	-0.0052
811.5344	0.0048
811.7037	-0.0107
811.873	0.0032
812.0422	-0.0058
812.2115	-0.0058
812.3807	-0.0011
812.5499	0.0023
812.7191	-0.0055
812.8882	0.0027
813.0574	-0.0036
813.2265	0.0113
813.3956	0.0051
813.5646	-0.0142
813.7337	0.0031
813.9027	-0.0018
814.0718	-0.0009
814.2407	0.0047
814.4097	-0.0004
814.5787	0.0069
814.7476	0.0015
814.9165	0.0071
815.0854	-0.0132
815.2543	0.0081
815.4232	-0.0021
815.592	0.005
815.7608	0.0046
815.9296	-0.007
816.0984	0.0028
816.2671	0.005
816.4359	-0.0059
816.6046	0.0004
816.7733	-0.0105
816.942	-0.008
817.1106	-0.0011
817.2793	-0.0123
817.4479	-0.0099
817.6165	-0.0044
817.785	-0.0111
817.9536	-0.01
818.1221	-0.0032
818.2906	-0.013
818.4591	-0.0237
818.6276	-0.0011
818.7961	-0
818.9645	-0.012
819.1329	0.0002
819.3013	-0.0016
819.4697	-0.0026
819.638	0.0022
819.8064	-0.0115
819.9747	-0.014
820.143	-0.0126
820.3113	-0.0082
820.4795	0.0072
820.6477	-0.0158
820.816	-0.0045
820.9842	-0.0177
821.1523	-0.0285
821.3205	-0.0046
821.4886	-0.0096
821.6567	-0.0031
821.8248	-0.0137
821.9929	-0.0105
822.1609	-0.0017
822.329	-0
822.497	-0.0186
822.665	-0.0104
822.833	-0.0335
823.0009	-0.0138
823.1688	-0.0173
823.3367	-0
823.5046	-0.0037
823.6725	-0.0196
823.8404	-0.0038
824.0082	-0.0025
824.176	-0.0005
824.3438	-0.0159
824.5116	0.0051
824.6793	-0.0137
824.847	-0.0081
825.0147	0.0042
825.1824	-0.0248
825.3501	-0.0019
825.5177	-0.0171
825.6854	-0.0013
825.853	-0.0063
826.0206	-0.001
826.1881	-0.0012
826.3557	0.0033
826.5232	-0.0002
826.6907	0.0056
826.8582	-0.0042
827.0257	-0.0089
827.1931	0.014
827.3605	-0.0039
827.528	0.0058
827.6953	-0.0077
827.8627	-0.0182
828.03	-0.0108
828.1974	-0.0094
828.3647	-0.0013
828.532	-0.0017
828.6992	-0.013
828.8665	-0.019
829.0337	-0.0083
829.2009	-0.0143
829.3681	-0.0239
829.5352	-0.0112
829.7024	-0.0115
829.8695	-0.0205
830.0366	-0.0138
830.2037	-0.0019
830.3707	-0.0136
830.5378	-0.019
830.7048	-0.0278
830.8718	0.0001
831.0388	-0.0026
831.2057	-0.0207
831.3727	-0.0145
831.5396	0.0005
831.7065	0.0161
831.8734	0.0027
832.0402	-0.0179
832.2071	0.0132
832.3739	0.0041
832.5407	-0.0003
832.7075	-0.0024
832.8742	0.0023
833.041	0.009
833.2077	-0.0229
833.3744	0.0012
833.541	0.0031
833.7077	-0.0155
833.8743	0.0051
834.0409	0.0084
834.2075	-0.0003
834.3741	-0.0022
834.5407	0.0014
834.7072	-0.0113
834.8737	0.0136
835.0402	-0.0274
835.2067	-0.0125
835.3731	-0.0078
835.5395	-0.0008
835.706	-0.0108
835.8723	-0.0185
836.0387	-0.0166
836.2051	-0.0096
836.3714	0.0117
836.5377	0.0089
836.704	0.0011
836.8703	-0.0392
837.0365	0.025
837.2027	-0.0148
837.3689	-0.0145
837.5351	-0.0094
837.7013	-0.0048
837.8674	-0.0144
838.0335	-0.0147
838.1997	0.0094
838.3657	0.0067
838.5318	0.0047
838.6978	-0.0189
838.8639	-0.009
839.0299	-0.0142
839.1958	0.0133
839.3618	0.0189
839.5277	-0.0125
839.6937	-0.0048
839.8596	-0.0099
840.0254	0.0142
840.1913	0.0148
840.3571	0.0158
840.523	0.0034
840.6888	0.0008
840.8545	-0.0402
841.0203	-0.0042
841.186	-0.0007
841.3517	0.0105
841.5174	-0.0162
841.6831	-0.0155
841.8488	0.0039
842.0144	0.028
842.18	-0.0029
842.3456	-0.0209
842.5112	0.0199
842.6767	-0.0201
842.8422	-0.0055
843.0077	-0.0014
843.1732	-0.0102
843.3387	-0.0143
843.5042	0.0174
843.6696	0.0026
843.835	-0.0182
844.0004	-0.0201
844.1657	-0.0042
844.3311	0.0222
844.4964	-0.0308
844.6617	0.0128
844.827	-0.0076
844.9923	-0.0159
845.1575	-0.0012
845.3227	-0.0165
845.4879	-0.0183
845.6531	-0.0193
845.8183	-0.0234
845.9834	0.0078
846.1485	0.0089
846.3136	-0.0619
846.4787	-0.0208
846.6438	-0.018
846.8088	0.0138
846.9738	-0.0292
847.1388	-0.0195
847.3038	0.0088
847.4687	0.0063
847.6337	0.0184
847.7986	0.0148
847.9635	0.022
848.1284	-0.0257
848.2932	-0.0067
848.458	0.0148
848.6228	0.0287
848.7876	-0.0587
848.9524	0.019
849.1172	-0.0099
849.2819	-0.0145
849.4466	0.0196
849.6113	-0.0109
849.7759	-0.0282
849.9406	0.0004
850.1052	0.0055
850.2698	-0.0304
850.4344	-0.0034
850.599	-0.0235
850.7635	0.0225
850.928	-0.0298
851.0925	0.0446
851.257	-0.0058
851.4215	0.0089
851.5859	0.0166
851.7503	0.0056
851.9147	-0.0172
852.0791	-0.0009
852.2434	-0.012
852.4078	0.037
852.5721	0.0033
852.7364	-0.0409
852.9007	0.0133
853.0649	-0.011
853.2291	-0.028
853.3934	-0.0036
853.5575	-0.0242
853.7217	-0.0445
853.8859	-0.0194
854.05	-0.008
854.2141	-0.0242
854.3782	-0.0156
854.5423	-0.027
854.7063	0.0087
854.8703	0.0064
855.0343	-0.0019
855.1983	-0.0338
855.3623	0.0234
855.5262	0.0064
855.6901	-0.028
855.854	0.0333
856.0179	0.0777
856.1818	-0.0365
856.3456	-0.0032
856.5094	-0.0116
856.6732	-0.0282
856.837	-0.0287
857.0008	0.0037
857.1645	-0.032
857.3282	-0.0343
857.4919	-0.053
857.6556	0.0639
857.8192	0.0441
857.9828	0.0096
858.1465	0.0787
858.31	-0.0625
858.4736	-0.0808
858.6372	-0.0182
858.8007	-0.013
858.9642	-0.0344
859.1277	0.0812
859.2911	-0.003
859.4546	-0.0081
859.618	-0.0525
859.7814	0.0461
859.9448	-0.0946
860.1081	0.0162
860.2715	0.0275
860.4348	-0.0807
860.5981	-0.0326
860.7614	-0.1114
860.9246	-0.0422
861.0879	0.0221
861.2511	0.061
861.4143	-0.0926
861.5774	-0.0327
861.7406	0.0379
861.9037	-0.0927
862.0668	-0.1058
862.2299	-0.0352
862.393	-0.0645
862.556	0.0473
862.7191	0.0039
862.8821	0.0057
863.0451	0.0048
863.208	-0.1261
863.371	0.1178
863.5339	-0.0536
863.6968	-0.0775
863.8597	-0.0008
864.0225	-0.2652
864.1854	0.0754
864.3482	-0.2022
864.511	0.0528
864.6737	0.1239
864.8365	-0.0007
864.9992	-0.066
865.1619	-0.0673
865.3246	-0.1388
865.4873	0.1971
865.65	0.0127
865.8126	-0.0362
865.9752	0.0069
866.1378	-0.055
866.3004	-0.0068
866.4629	-0.2277
866.6254	-0.0677
866.7879	-0.0376
866.9504	-0.0343
867.1129	-0.0087
867.2753	-0.0592
867.4377	-0.0554
867.6001	-0.338
867.7625	0.06
867.9249	-0.0536
868.0872	-0.0181
868.2495	-0.1493
868.4118	-0.0502
868.5741	-0.1183
868.7363	0.1451
868.8986	-0.0978
869.0608	-0.1893
869.223	-0.1156
869.3851	-0.0932
869.5473	-0.2841
869.7094	-0.2795
869.8715	0.2663
870.0336	-0.1125
870.1957	-0.1187
870.3577	-0.0739
870.5197	-0.3872
870.6817	-0.0495
870.8437	-0.2127
871.0057	-0.0032
871.1676	-0.2271
871.3295	-0.1892
871.4914	-0.0567
871.6533	-0.0645
871.8151	-0.2139
871.977	0.226
872.1388	-0.2054
872.3006	0.0438
872.4623	-0.2462
872.6241	-0.0469
872.7858	0.2097
872.9475	-0.0762
873.1092	-0.1248
873.2709	-0.148
873.4325	-0.1783
873.5941	-0.1575
873.7557	0.1884
873.9173	-0.1438
874.0789	-0.2647
874.2404	-0.2906
874.4019	-0.3279
874.5634	-0.1012
874.7249	-0.291
874.8863	-0.116
875.0478	-0.3498
875.2092	-0.4294
875.3706	-0.1886
875.5319	0.0311
875.6933	-0.0808
875.8546	0.0077
876.0159	-0.139
876.1772	-0.314
876.3385	-0
876.4997	-0.1883
876.6609	-0.1876
876.8221	0.0131
876.9833	-0.449
877.1445	-0.2494
877.3056	-0.1536
877.4667	-0.8774
877.6278	0.1615
877.7889	0.1629
877.9499	-0.467
878.111	0.062
878.272	-0.0095
878.433	0.4118
878.5939	0.0319
878.7549	-0.0824
878.9158	-0.2476
879.0767	-0.0216
879.2376	0.1353
879.3984	-0.2322
879.5593	-0.4994
879.7201	-0
879.8809	-0.025
880.0417	-0.0945
880.2024	0.0833
880.3632	-0.5074
880.5239	-0
880.6846	-0.1422
880.8452	-0.0558
881.0059	-0.3409
881.1665	-0
881.3271	-0.115
881.4877	-0.2045
881.6483	-0
881.8088	-0.0158
881.9693	0.1809
882.1298	0.1809
882.2903	0.1809
