Data from MonoPyChalIsomerACN10uM450nmA_Absorbance_13-11-28-691.txt Node
Date: Tue Jul 09 13:11:28 BST 2024
User: LASERRRRR
Spectrometer: FLMT03099
Trigger mode: 0
Integration Time (sec): 2.000000E-1
Scans to average: 1
Electric dark correction enabled: true
Nonlinearity correction enabled: false
Boxcar width: 0
XAxis mode: Wavelengths
Number of Pixels in Spectrum: 3648
>>>>>Begin Spectral Data<<<<<
179.3399	-0.1009
179.5586	-0.1009
179.7771	-0.1009
179.9957	-0.5062
180.2143	1.0442
180.4329	0.5425
180.6514	0.4652
180.8699	-0
181.0885	-0
181.307	-0
181.5255	1.2856
181.744	0.4496
181.9625	-0
182.181	-0
182.3994	-0.0107
182.6179	-0.1396
182.8363	-0
183.0547	0.2558
183.2732	0.042
183.4916	0.1131
183.71	0.1081
183.9284	0.0321
184.1467	0.0512
184.3651	0.0353
184.5835	0.047
184.8018	0.0319
185.0201	0.1804
185.2385	0.0748
185.4568	-0.146
185.6751	0.2015
185.8934	-0.0702
186.1117	0.0482
186.3299	-0.14
186.5482	-0.1194
186.7664	-0.0476
186.9847	0.0611
187.2029	0.1541
187.4211	0.0835
187.6393	-0.0703
187.8575	0.1611
188.0757	0.0062
188.2939	0.0417
188.512	-0.0439
188.7302	0.0413
188.9483	0.0666
189.1665	0.1171
189.3846	0.1078
189.6027	0.2956
189.8208	0.1316
190.0389	0.2488
190.257	0.1877
190.475	0.2286
190.6931	0.0722
190.9111	0.2291
191.1292	0.2507
191.3472	0.2629
191.5652	0.3315
191.7832	0.3158
192.0012	0.2837
192.2192	0.4542
192.4371	0.3712
192.6551	0.498
192.873	0.4414
193.091	0.4596
193.3089	0.4555
193.5268	0.723
193.7447	0.4542
193.9626	0.4567
194.1805	0.526
194.3984	0.5654
194.6162	0.5246
194.8341	0.5373
195.0519	0.5227
195.2697	0.5798
195.4875	0.5396
195.7054	0.6238
195.9231	0.642
196.1409	0.7031
196.3587	0.6922
196.5765	0.7103
196.7942	0.5953
197.012	0.6738
197.2297	0.7535
197.4474	0.7332
197.6651	0.7404
197.8828	0.7033
198.1005	0.817
198.3182	0.7957
198.5358	0.6444
198.7535	0.8033
198.9711	0.7865
199.1888	0.7568
199.4064	0.7469
199.624	0.7715
199.8416	0.7243
200.0592	0.7587
200.2767	0.7727
200.4943	0.817
200.7119	0.768
200.9294	0.8703
201.1469	0.8914
201.3645	0.8838
201.582	0.946
201.7995	0.8249
202.017	0.8929
202.2344	0.8046
202.4519	0.9409
202.6694	0.867
202.8868	0.9266
203.1042	0.9824
203.3217	0.8707
203.5391	0.8959
203.7565	0.8911
203.9739	0.9148
204.1913	0.8499
204.4086	0.971
204.626	0.9799
204.8433	0.9111
205.0607	0.8452
205.278	0.8344
205.4953	1.0379
205.7126	0.9108
205.9299	1.013
206.1472	1.0064
206.3644	0.9331
206.5817	1.0265
206.7989	0.9902
207.0162	1.0823
207.2334	0.9207
207.4506	0.9479
207.6678	1.0433
207.885	1.1117
208.1022	1.053
208.3194	1.0807
208.5365	0.9676
208.7537	1.0571
208.9708	1.0644
209.1879	1.0102
209.405	0.9317
209.6222	1.0309
209.8392	1.1316
210.0563	0.993
210.2734	1.007
210.4905	1.1068
210.7075	0.9917
210.9245	1.0228
211.1416	1.1134
211.3586	1.0672
211.5756	1.0555
211.7926	1.0335
212.0096	0.993
212.2265	1.0287
212.4435	1.076
212.6604	1.0444
212.8774	1.0006
213.0943	1.0442
213.3112	1.0119
213.5281	1.0443
213.745	0.9547
213.9619	0.9608
214.1788	0.9967
214.3956	0.9117
214.6125	0.9231
214.8293	0.8229
215.0461	0.8882
215.2629	0.8386
215.4798	0.8866
215.6965	0.8044
215.9133	0.8416
216.1301	0.8283
216.3469	0.8404
216.5636	0.7943
216.7803	0.7853
216.9971	0.7442
217.2138	0.7208
217.4305	0.6887
217.6472	0.6586
217.8639	0.6484
218.0805	0.6226
218.2972	0.5771
218.5138	0.528
218.7305	0.5118
218.9471	0.4758
219.1637	0.4547
219.3803	0.4278
219.5969	0.3882
219.8135	0.3883
220.0301	0.3534
220.2466	0.3508
220.4632	0.3264
220.6797	0.3194
220.8962	0.3074
221.1127	0.297
221.3292	0.3122
221.5457	0.2804
221.7622	0.2759
221.9787	0.2837
222.1951	0.2811
222.4116	0.273
222.628	0.2606
222.8444	0.2737
223.0608	0.2829
223.2772	0.261
223.4936	0.2714
223.71	0.2677
223.9264	0.2892
224.1427	0.2607
224.3591	0.2644
224.5754	0.2628
224.7917	0.2758
225.008	0.2747
225.2243	0.2716
225.4406	0.2875
225.6569	0.2832
225.8732	0.2902
226.0894	0.2651
226.3057	0.2869
226.5219	0.2814
226.7381	0.2777
226.9543	0.2885
227.1705	0.2796
227.3867	0.2934
227.6029	0.289
227.8191	0.2881
228.0352	0.305
228.2513	0.31
228.4675	0.306
228.6836	0.3165
228.8997	0.3045
229.1158	0.3135
229.3319	0.3249
229.548	0.3164
229.764	0.3253
229.9801	0.3338
230.1961	0.3338
230.4121	0.3276
230.6282	0.3419
230.8442	0.3402
231.0602	0.3497
231.2761	0.3379
231.4921	0.3639
231.7081	0.3505
231.924	0.3565
232.14	0.3574
232.3559	0.3545
232.5718	0.3663
232.7877	0.3479
233.0036	0.3721
233.2195	0.3603
233.4353	0.3573
233.6512	0.3728
233.867	0.3697
234.0829	0.3736
234.2987	0.37
234.5145	0.373
234.7303	0.3876
234.9461	0.3916
235.1619	0.378
235.3776	0.3774
235.5934	0.392
235.8091	0.381
236.0249	0.3769
236.2406	0.3885
236.4563	0.3956
236.672	0.4008
236.8877	0.3965
237.1034	0.3935
237.319	0.4078
237.5347	0.389
237.7503	0.3957
237.966	0.4091
238.1816	0.4048
238.3972	0.4037
238.6128	0.4158
238.8284	0.4158
239.0439	0.4137
239.2595	0.4302
239.475	0.4273
239.6906	0.4328
239.9061	0.4098
240.1216	0.4138
240.3371	0.4102
240.5526	0.4129
240.7681	0.4153
240.9836	0.425
241.199	0.4084
241.4145	0.4051
241.6299	0.4142
241.8453	0.3964
242.0607	0.3901
242.2761	0.399
242.4915	0.3912
242.7069	0.3865
242.9223	0.3727
243.1376	0.3688
243.353	0.3634
243.5683	0.3591
243.7836	0.3485
243.9989	0.3484
244.2142	0.3383
244.4295	0.3404
244.6448	0.3283
244.86	0.3247
245.0753	0.3059
245.2905	0.3155
245.5057	0.3133
245.721	0.3065
245.9362	0.289
246.1514	0.2784
246.3665	0.2826
246.5817	0.2771
246.7969	0.2821
247.012	0.2748
247.2271	0.2656
247.4423	0.2636
247.6574	0.2706
247.8725	0.2505
248.0876	0.2615
248.3026	0.2601
248.5177	0.2531
248.7328	0.2387
248.9478	0.2447
249.1628	0.2481
249.3779	0.2343
249.5929	0.2279
249.8079	0.2362
250.0228	0.2331
250.2378	0.2285
250.4528	0.219
250.6677	0.2305
250.8827	0.2155
251.0976	0.2155
251.3125	0.2139
251.5274	0.2047
251.7423	0.212
251.9572	0.2173
252.172	0.2075
252.3869	0.2039
252.6017	0.2072
252.8166	0.2054
253.0314	0.2024
253.2462	0.2094
253.461	0.2004
253.6758	0.2039
253.8906	0.2063
254.1053	0.2028
254.3201	0.2091
254.5348	0.2049
254.7496	0.201
254.9643	0.1966
255.179	0.1948
255.3937	0.2033
255.6083	0.1997
255.823	0.1969
256.0377	0.1886
256.2523	0.1914
256.467	0.1942
256.6816	0.1966
256.8962	0.1961
257.1108	0.195
257.3254	0.1978
257.54	0.1957
257.7545	0.1968
257.9691	0.1987
258.1836	0.1906
258.3981	0.1969
258.6127	0.1905
258.8272	0.1932
259.0417	0.1911
259.2561	0.1933
259.4706	0.1901
259.6851	0.1975
259.8995	0.1918
260.114	0.1906
260.3284	0.2053
260.5428	0.1963
260.7572	0.1994
260.9716	0.193
261.186	0.194
261.4003	0.2048
261.6147	0.1957
261.829	0.2039
262.0433	0.1955
262.2577	0.2041
262.472	0.19
262.6863	0.1847
262.9005	0.1999
263.1148	0.1969
263.3291	0.1877
263.5433	0.1913
263.7576	0.1993
263.9718	0.1961
264.186	0.1879
264.4002	0.1805
264.6144	0.186
264.8286	0.1879
265.0427	0.181
265.2569	0.1786
265.471	0.1767
265.6851	0.1795
265.8993	0.1803
266.1134	0.176
266.3275	0.1801
266.5415	0.1821
266.7556	0.1839
266.9697	0.1824
267.1837	0.1789
267.3978	0.1849
267.6118	0.1941
267.8258	0.1943
268.0398	0.1988
268.2538	0.1868
268.4677	0.1929
268.6817	0.192
268.8957	0.1939
269.1096	0.1843
269.3235	0.1842
269.5374	0.183
269.7514	0.1614
269.9652	0.1684
270.1791	0.1635
270.393	0.1622
270.6068	0.1533
270.8207	0.1513
271.0345	0.1599
271.2483	0.1548
271.4622	0.1583
271.676	0.1454
271.8897	0.1446
272.1035	0.1537
272.3173	0.1426
272.531	0.1493
272.7448	0.1427
272.9585	0.1493
273.1722	0.1407
273.3859	0.1413
273.5996	0.1403
273.8133	0.1437
274.0269	0.1449
274.2406	0.1488
274.4542	0.1487
274.6679	0.1443
274.8815	0.1513
275.0951	0.142
275.3087	0.1483
275.5223	0.1469
275.7358	0.1413
275.9494	0.1504
276.1629	0.1438
276.3765	0.1463
276.59	0.1512
276.8035	0.1493
277.017	0.1518
277.2305	0.1537
277.444	0.1409
277.6574	0.1499
277.8709	0.1558
278.0843	0.1517
278.2978	0.154
278.5112	0.1465
278.7246	0.1484
278.938	0.1517
279.1513	0.1538
279.3647	0.1568
279.5781	0.153
279.7914	0.1549
280.0047	0.1555
280.2181	0.1522
280.4314	0.1556
280.6447	0.1419
280.8579	0.162
281.0712	0.1537
281.2845	0.1523
281.4977	0.1577
281.711	0.1555
281.9242	0.1554
282.1374	0.154
282.3506	0.1453
282.5638	0.1571
282.7769	0.1581
282.9901	0.1551
283.2033	0.1623
283.4164	0.1601
283.6295	0.1659
283.8426	0.1566
284.0557	0.1557
284.2688	0.1586
284.4819	0.1526
284.695	0.1557
284.908	0.1603
285.1211	0.162
285.3341	0.1541
285.5471	0.1603
285.7601	0.1559
285.9731	0.1581
286.1861	0.1559
286.3991	0.159
286.612	0.1601
286.825	0.1619
287.0379	0.1557
287.2508	0.1618
287.4637	0.1585
287.6766	0.153
287.8895	0.1555
288.1024	0.1581
288.3152	0.1528
288.5281	0.1616
288.7409	0.158
288.9538	0.1557
289.1666	0.1573
289.3794	0.1616
289.5922	0.1625
289.8049	0.1555
290.0177	0.1613
290.2304	0.1594
290.4432	0.1569
290.6559	0.1586
290.8686	0.1583
291.0813	0.1596
291.294	0.1604
291.5067	0.1608
291.7194	0.1585
291.932	0.163
292.1447	0.1606
292.3573	0.1573
292.5699	0.1621
292.7825	0.1608
292.9951	0.1605
293.2077	0.1552
293.4203	0.1522
293.6328	0.1634
293.8454	0.1476
294.0579	0.1556
294.2704	0.16
294.4829	0.1612
294.6954	0.1526
294.9079	0.1631
295.1204	0.1622
295.3328	0.1627
295.5453	0.1582
295.7577	0.1473
295.9701	0.1503
296.1825	0.16
296.3949	0.1524
296.6073	0.1584
296.8197	0.1553
297.0321	0.1587
297.2444	0.1517
297.4567	0.1541
297.6691	0.1567
297.8814	0.1546
298.0937	0.1507
298.306	0.153
298.5182	0.1447
298.7305	0.1574
298.9428	0.1421
299.155	0.1539
299.3672	0.1494
299.5794	0.1538
299.7916	0.1569
300.0038	0.1543
300.216	0.155
300.4282	0.1552
300.6403	0.1505
300.8525	0.1487
301.0646	0.1513
301.2767	0.1556
301.4888	0.1542
301.7009	0.1582
301.913	0.1605
302.125	0.1555
302.3371	0.1535
302.5491	0.1591
302.7612	0.153
302.9732	0.1529
303.1852	0.1557
303.3972	0.157
303.6092	0.1444
303.8211	0.1592
304.0331	0.1406
304.245	0.1504
304.457	0.1514
304.6689	0.1503
304.8808	0.1445
305.0927	0.1512
305.3046	0.1474
305.5164	0.1449
305.7283	0.1449
305.9401	0.1483
306.152	0.1456
306.3638	0.1504
306.5756	0.1398
306.7874	0.1315
306.9992	0.1398
307.2109	0.1375
307.4227	0.1385
307.6344	0.1342
307.8462	0.1358
308.0579	0.1302
308.2696	0.1224
308.4813	0.1278
308.693	0.1216
308.9046	0.1229
309.1163	0.1244
309.328	0.1202
309.5396	0.1217
309.7512	0.1212
309.9628	0.1172
310.1744	0.1213
310.386	0.1093
310.5976	0.1127
310.8091	0.1153
311.0207	0.1221
311.2322	0.1199
311.4437	0.1218
311.6552	0.1073
311.8667	0.1117
312.0782	0.1107
312.2897	0.1119
312.5012	0.1101
312.7126	0.0993
312.924	0.0968
313.1355	0.0997
313.3469	0.1066
313.5583	0.0972
313.7696	0.1087
313.981	0.0992
314.1924	0.0953
314.4037	0.1049
314.6151	0.0918
314.8264	0.0968
315.0377	0.1021
315.249	0.1016
315.4603	0.0985
315.6716	0.1018
315.8828	0.1058
316.0941	0.0995
316.3053	0.0939
316.5165	0.0976
316.7277	0.0931
316.9389	0.1025
317.1501	0.1031
317.3613	0.0977
317.5724	0.0955
317.7836	0.0982
317.9947	0.098
318.2058	0.0962
318.417	0.09
318.6281	0.1034
318.8391	0.0898
319.0502	0.0894
319.2613	0.0984
319.4723	0.0962
319.6834	0.0896
319.8944	0.1028
320.1054	0.0964
320.3164	0.0976
320.5274	0.1006
320.7383	0.0935
320.9493	0.0898
321.1602	0.0988
321.3712	0.1062
321.5821	0.0978
321.793	0.095
322.0039	0.0975
322.2148	0.1007
322.4257	0.1013
322.6365	0.1024
322.8474	0.0978
323.0582	0.1136
323.269	0.1005
323.4798	0.1026
323.6906	0.1045
323.9014	0.1028
324.1122	0.1091
324.3229	0.1043
324.5337	0.0971
324.7444	0.1064
324.9551	0.0989
325.1658	0.101
325.3765	0.1014
325.5872	0.0977
325.7979	0.1043
326.0085	0.112
326.2192	0.1015
326.4298	0.1078
326.6404	0.1011
326.851	0.1047
327.0616	0.0973
327.2722	0.1075
327.4828	0.1008
327.6933	0.1076
327.9039	0.1091
328.1144	0.1037
328.3249	0.1142
328.5354	0.1054
328.7459	0.1075
328.9564	0.1032
329.1669	0.1092
329.3773	0.1104
329.5878	0.108
329.7982	0.1079
330.0086	0.1084
330.219	0.1048
330.4294	0.106
330.6398	0.1086
330.8502	0.1059
331.0605	0.1032
331.2708	0.1094
331.4812	0.1084
331.6915	0.1035
331.9018	0.0971
332.1121	0.1117
332.3224	0.1082
332.5326	0.1016
332.7429	0.1109
332.9531	0.1062
333.1633	0.1186
333.3735	0.1075
333.5837	0.1051
333.7939	0.1051
334.0041	0.1068
334.2143	0.1053
334.4244	0.0988
334.6346	0.1078
334.8447	0.1122
335.0548	0.1076
335.2649	0.0987
335.475	0.1043
335.685	0.1145
335.8951	0.1087
336.1051	0.1018
336.3152	0.1046
336.5252	0.1076
336.7352	0.1086
336.9452	0.1175
337.1552	0.1086
337.3652	0.1204
337.5751	0.1234
337.7851	0.1035
337.995	0.1071
338.2049	0.1126
338.4148	0.1032
338.6247	0.1116
338.8346	0.1039
339.0445	0.1114
339.2543	0.1092
339.4642	0.1153
339.674	0.1143
339.8838	0.1066
340.0936	0.122
340.3034	0.1245
340.5132	0.1204
340.7229	0.1206
340.9327	0.1223
341.1424	0.1214
341.3522	0.1112
341.5619	0.133
341.7716	0.1279
341.9813	0.1233
342.1909	0.1268
342.4006	0.1164
342.6102	0.1195
342.8199	0.1241
343.0295	0.119
343.2391	0.1312
343.4487	0.1233
343.6583	0.1265
343.8679	0.12
344.0774	0.1337
344.287	0.1356
344.4965	0.1232
344.706	0.1261
344.9155	0.1251
345.125	0.1309
345.3345	0.1279
345.544	0.1226
345.7534	0.1272
345.9629	0.1295
346.1723	0.1336
346.3817	0.1374
346.5911	0.1321
346.8005	0.1291
347.0099	0.1281
347.2193	0.1348
347.4286	0.1343
347.638	0.1402
347.8473	0.1311
348.0566	0.1353
348.2659	0.1294
348.4752	0.1357
348.6845	0.1409
348.8937	0.1362
349.103	0.1313
349.3122	0.1312
349.5214	0.1285
349.7306	0.1341
349.9398	0.1318
350.149	0.1373
350.3582	0.1318
350.5674	0.1427
350.7765	0.1361
350.9856	0.1397
351.1948	0.141
351.4039	0.1378
351.613	0.134
351.822	0.1369
352.0311	0.1408
352.2402	0.146
352.4492	0.14
352.6582	0.137
352.8672	0.1488
353.0762	0.1539
353.2852	0.1541
353.4942	0.1504
353.7032	0.1437
353.9121	0.1476
354.1211	0.1539
354.33	0.1455
354.5389	0.1471
354.7478	0.1415
354.9567	0.1434
355.1655	0.15
355.3744	0.157
355.5833	0.1512
355.7921	0.1502
356.0009	0.1566
356.2097	0.1567
356.4185	0.1489
356.6273	0.1583
356.8361	0.1412
357.0448	0.1557
357.2536	0.1476
357.4623	0.156
357.671	0.1668
357.8797	0.1686
358.0884	0.1668
358.2971	0.1646
358.5057	0.162
358.7144	0.1733
358.923	0.1712
359.1316	0.1618
359.3402	0.1782
359.5488	0.1632
359.7574	0.1675
359.966	0.1705
360.1746	0.1705
360.3831	0.171
360.5916	0.1754
360.8002	0.1726
361.0087	0.1714
361.2172	0.1811
361.4256	0.1722
361.6341	0.1824
361.8426	0.1834
362.051	0.1624
362.2594	0.1782
362.4678	0.1747
362.6762	0.1833
362.8846	0.1883
363.093	0.1906
363.3014	0.1865
363.5097	0.1785
363.718	0.1905
363.9264	0.1811
364.1347	0.1889
364.343	0.1847
364.5513	0.1884
364.7595	0.1789
364.9678	0.1961
365.176	0.1812
365.3842	0.1812
365.5925	0.1822
365.8007	0.1893
366.0089	0.203
366.217	0.1895
366.4252	0.2016
366.6333	0.1904
366.8415	0.1956
367.0496	0.2005
367.2577	0.1971
367.4658	0.2008
367.6739	0.196
367.882	0.1983
368.09	0.198
368.2981	0.2114
368.5061	0.2056
368.7141	0.2007
368.9221	0.1952
369.1301	0.2005
369.3381	0.2072
369.5461	0.2104
369.754	0.2033
369.962	0.2078
370.1699	0.2049
370.3778	0.2008
370.5857	0.2043
370.7936	0.1949
371.0015	0.2061
371.2093	0.2039
371.4172	0.2068
371.625	0.2069
371.8328	0.2219
372.0406	0.2141
372.2484	0.2003
372.4562	0.2088
372.664	0.2136
372.8717	0.1999
373.0795	0.2032
373.2872	0.2218
373.4949	0.2016
373.7026	0.2179
373.9103	0.209
374.118	0.22
374.3256	0.2084
374.5333	0.2133
374.7409	0.2163
374.9485	0.2153
375.1561	0.2209
375.3637	0.2112
375.5713	0.2236
375.7789	0.2134
375.9864	0.2234
376.194	0.2261
376.4015	0.2254
376.609	0.2251
376.8165	0.2156
377.024	0.2133
377.2315	0.2195
377.4389	0.2166
377.6464	0.2051
377.8538	0.2273
378.0612	0.2211
378.2686	0.2256
378.476	0.2175
378.6834	0.2359
378.8908	0.2325
379.0981	0.228
379.3055	0.2353
379.5128	0.2218
379.7201	0.2286
379.9274	0.2355
380.1347	0.2334
380.342	0.2358
380.5492	0.2264
380.7565	0.2333
380.9637	0.2398
381.1709	0.2344
381.3781	0.2242
381.5853	0.2336
381.7925	0.2327
381.9997	0.2323
382.2068	0.2419
382.4139	0.2267
382.6211	0.2403
382.8282	0.2273
383.0353	0.2345
383.2424	0.2401
383.4494	0.2416
383.6565	0.2293
383.8635	0.2441
384.0706	0.2313
384.2776	0.2321
384.4846	0.2404
384.6916	0.2414
384.8986	0.2415
385.1055	0.2405
385.3125	0.2523
385.5194	0.2442
385.7263	0.2428
385.9333	0.2339
386.1402	0.2313
386.347	0.2366
386.5539	0.2374
386.7608	0.238
386.9676	0.2425
387.1744	0.2379
387.3813	0.2197
387.5881	0.2368
387.7948	0.2282
388.0016	0.2308
388.2084	0.2477
388.4151	0.2264
388.6219	0.2356
388.8286	0.2351
389.0353	0.2286
389.242	0.2334
389.4487	0.2317
389.6553	0.2261
389.862	0.2294
390.0686	0.2205
390.2753	0.2281
390.4819	0.2238
390.6885	0.2253
390.8951	0.2206
391.1016	0.2193
391.3082	0.226
391.5147	0.2244
391.7213	0.2135
391.9278	0.2161
392.1343	0.2268
392.3408	0.2031
392.5473	0.2209
392.7537	0.2262
392.9602	0.2079
393.1666	0.2104
393.373	0.2148
393.5794	0.2218
393.7858	0.2169
393.9922	0.2169
394.1986	0.2053
394.4049	0.2285
394.6113	0.2123
394.8176	0.2052
395.0239	0.2138
395.2302	0.2035
395.4365	0.2115
395.6428	0.1996
395.8491	0.201
396.0553	0.2047
396.2615	0.1985
396.4678	0.2185
396.674	0.1969
396.8802	0.2044
397.0863	0.1862
397.2925	0.2068
397.4987	0.2003
397.7048	0.1901
397.9109	0.2119
398.117	0.2028
398.3231	0.2017
398.5292	0.1939
398.7353	0.1998
398.9413	0.1996
399.1474	0.2007
399.3534	0.1882
399.5594	0.187
399.7654	0.1849
399.9714	0.203
400.1774	0.1928
400.3833	0.2023
400.5893	0.1943
400.7952	0.188
401.0011	0.1972
401.207	0.1955
401.4129	0.1805
401.6188	0.1928
401.8247	0.1903
402.0305	0.1872
402.2364	0.1964
402.4422	0.1904
402.648	0.2059
402.8538	0.1839
403.0596	0.1888
403.2654	0.1856
403.4711	0.186
403.6768	0.2031
403.8826	0.2017
404.0883	0.1981
404.294	0.1909
404.4997	0.1956
404.7054	0.1922
404.911	0.1966
405.1167	0.2034
405.3223	0.1975
405.5279	0.1952
405.7335	0.1933
405.9391	0.1971
406.1447	0.1955
406.3502	0.1969
406.5558	0.1865
406.7613	0.188
406.9668	0.1909
407.1724	0.1898
407.3778	0.2036
407.5833	0.1848
407.7888	0.1926
407.9942	0.1848
408.1997	0.1974
408.4051	0.1972
408.6105	0.1926
408.8159	0.2048
409.0213	0.2037
409.2267	0.1904
409.432	0.2019
409.6374	0.1997
409.8427	0.2022
410.048	0.1934
410.2533	0.1946
410.4586	0.1907
410.6639	0.1883
410.8691	0.196
411.0744	0.1794
411.2796	0.1999
411.4848	0.1698
411.69	0.193
411.8952	0.1862
412.1004	0.1892
412.3056	0.202
412.5107	0.1912
412.7158	0.1828
412.921	0.1847
413.1261	0.1867
413.3312	0.2011
413.5362	0.1871
413.7413	0.1886
413.9464	0.1889
414.1514	0.1801
414.3564	0.193
414.5614	0.1991
414.7664	0.1984
414.9714	0.1763
415.1764	0.1847
415.3813	0.1938
415.5863	0.186
415.7912	0.1831
415.9961	0.1888
416.201	0.1899
416.4059	0.1736
416.6108	0.1887
416.8156	0.1812
417.0205	0.1834
417.2253	0.1826
417.4301	0.1903
417.6349	0.1891
417.8397	0.181
418.0445	0.1885
418.2492	0.1853
418.454	0.181
418.6587	0.1804
418.8634	0.1794
419.0681	0.1782
419.2728	0.1877
419.4775	0.1852
419.6822	0.1742
419.8868	0.1634
420.0915	0.1703
420.2961	0.1754
420.5007	0.1799
420.7053	0.1754
420.9099	0.1728
421.1144	0.1725
421.319	0.1661
421.5235	0.1798
421.728	0.1747
421.9325	0.1658
422.137	0.1655
422.3415	0.1774
422.546	0.1645
422.7504	0.1665
422.9549	0.175
423.1593	0.1694
423.3637	0.1688
423.5681	0.1739
423.7725	0.1619
423.9769	0.1626
424.1812	0.1586
424.3856	0.1647
424.5899	0.166
424.7942	0.1651
424.9985	0.1646
425.2028	0.1496
425.4071	0.1561
425.6113	0.1633
425.8156	0.1622
426.0198	0.1722
426.224	0.1524
426.4282	0.1574
426.6324	0.1603
426.8366	0.1582
427.0407	0.1586
427.2449	0.1619
427.449	0.1466
427.6531	0.1417
427.8572	0.1379
428.0613	0.1307
428.2654	0.1333
428.4694	0.1456
428.6735	0.1472
428.8775	0.1423
429.0815	0.1412
429.2855	0.1444
429.4895	0.1423
429.6935	0.1329
429.8975	0.1405
430.1014	0.1325
430.3053	0.124
430.5093	0.135
430.7132	0.1184
430.9171	0.1282
431.1209	0.1316
431.3248	0.1294
431.5286	0.1267
431.7325	0.1239
431.9363	0.1336
432.1401	0.1228
432.3439	0.1132
432.5477	0.1159
432.7514	0.1245
432.9552	0.1113
433.1589	0.1092
433.3627	0.1112
433.5664	0.1036
433.7701	0.1134
433.9737	0.0981
434.1774	0.1055
434.3811	0.0939
434.5847	0.11
434.7883	0.0992
434.9919	0.1047
435.1955	0.094
435.3991	0.0889
435.6027	0.0962
435.8062	0.0952
436.0098	0.1036
436.2133	0.0907
436.4168	0.0859
436.6203	0.0945
436.8238	0.0821
437.0272	0.0823
437.2307	0.0876
437.4341	0.0823
437.6375	0.083
437.841	0.0803
438.0443	0.0825
438.2477	0.0784
438.4511	0.0829
438.6545	0.0702
438.8578	0.0781
439.0611	0.0681
439.2644	0.0787
439.4677	0.0745
439.671	0.0776
439.8743	0.0739
440.0775	0.0637
440.2808	0.0564
440.484	0.0679
440.6872	0.0583
440.8904	0.0594
441.0936	0.0636
441.2967	0.0574
441.4999	0.0564
441.703	0.0566
441.9062	0.0585
442.1093	0.0579
442.3124	0.0542
442.5155	0.0624
442.7185	0.0419
442.9216	0.0493
443.1246	0.0522
443.3276	0.0537
443.5307	0.0419
443.7337	0.0481
443.9366	0.0538
444.1396	0.0448
444.3426	0.0444
444.5455	0.0371
444.7484	0.0367
444.9513	0.0367
445.1542	0.0477
445.3571	0.0338
445.56	0.0402
445.7628	0.0365
445.9657	0.0411
446.1685	0.0306
446.3713	0.0379
446.5741	0.0364
446.7769	0.0361
446.9797	0.0236
447.1824	0.0378
447.3852	0.0421
447.5879	0.0352
447.7906	0.0312
447.9933	0.0378
448.196	0.0297
448.3986	0.0315
448.6013	0.0298
448.8039	0.0255
449.0066	0.0262
449.2092	0.0297
449.4118	0.0259
449.6143	0.016
449.8169	0.0047
450.0195	0.0168
450.222	0.0176
450.4245	0.0168
450.627	0.0144
450.8295	0.0163
451.032	0.0166
451.2345	0.016
451.4369	0.0224
451.6394	0.0179
451.8418	0.0115
452.0442	0.01
452.2466	0.0153
452.449	0.0105
452.6513	0.0214
452.8537	0.0249
453.056	0.0182
453.2583	0.0219
453.4607	0.0174
453.663	0.0237
453.8652	0.0034
454.0675	0.0027
454.2697	0.0168
454.472	0.0144
454.6742	0.0093
454.8764	0.0109
455.0786	0.0122
455.2808	0.0087
455.4829	0.0024
455.6851	0.0107
455.8872	0.0024
456.0893	0.0022
456.2915	0.005
456.4935	0.0107
456.6956	0.0131
456.8977	0.0095
457.0997	-0.0007
457.3018	0.0103
457.5038	0.0023
457.7058	-0.0048
457.9078	0.0027
458.1098	0.0049
458.3117	0.0071
458.5137	0.0044
458.7156	0.0174
458.9175	-0.0024
459.1194	-0.0064
459.3213	0.0107
459.5232	0.0013
459.725	-0.0074
459.9269	0.0095
460.1287	0.0047
460.3305	-0.0052
460.5323	0.0012
460.7341	0.0026
460.9359	-0.0053
461.1376	0.0042
461.3394	0.0016
461.5411	0.0045
461.7428	-0.0042
461.9445	0.0005
462.1462	-0.0098
462.3479	-0.0004
462.5495	0.0038
462.7512	-0.0034
462.9528	-0.0011
463.1544	0.0093
463.356	-0.004
463.5576	0.0003
463.7592	-0.0057
463.9607	-0.0016
464.1623	-0.0057
464.3638	0.0085
464.5653	0.0024
464.7668	-0.0043
464.9683	-0.0017
465.1697	-0.0068
465.3712	-0.0004
465.5726	-0.0051
465.7741	-0.0039
465.9755	0.004
466.1769	-0.0196
466.3782	-0.0056
466.5796	-0.0041
466.7809	-0.0018
466.9823	-0.011
467.1836	0.0004
467.3849	0.0008
467.5862	-0.0087
467.7875	-0.0132
467.9887	-0.0028
468.19	-0.0045
468.3912	-0.0052
468.5924	0.0068
468.7936	-0.016
468.9948	0.0079
469.196	-0.0054
469.3972	0.0052
469.5983	0.0062
469.7994	0.0003
470.0006	0.0001
470.2017	0.0077
470.4027	0.009
470.6038	-0.0054
470.8049	-0.0166
471.0059	0.0022
471.2069	0.0017
471.408	-0.0044
471.6089	-0.0067
471.8099	-0.0117
472.0109	-0.0018
472.2119	-0.0094
472.4128	-0.0025
472.6137	-0.0127
472.8146	-0.0093
473.0155	-0.0123
473.2164	-0.018
473.4173	-0.0105
473.6181	-0.0012
473.819	-0.0013
474.0198	0.0006
474.2206	-0.0069
474.4214	0.0023
474.6222	-0.0043
474.8229	-0.0099
475.0237	-0.0018
475.2244	-0.0019
475.4251	-0.0026
475.6258	-0.0032
475.8265	0.0073
476.0272	-0.0054
476.2278	-0.0002
476.4285	-0.0041
476.6291	-0.0056
476.8297	-0.0061
477.0303	-0.0053
477.2309	0.0051
477.4315	0.0036
477.632	-0.01
477.8326	-0.005
478.0331	-0.0099
478.2336	-0.0063
478.4341	-0.0121
478.6346	-0.0041
478.8351	-0.0106
479.0355	-0.0034
479.236	-0.0083
479.4364	-0.0092
479.6368	-0.0041
479.8372	-0.0038
480.0376	-0.0087
480.2379	-0.0081
480.4383	-0.0025
480.6386	-0.0147
480.8389	-0.0039
481.0392	-0.0087
481.2395	-0.0142
481.4398	0.0002
481.6401	-0.0116
481.8403	-0.0087
482.0405	-0.0118
482.2408	0.0016
482.441	-0.0057
482.6411	0.0009
482.8413	0.0026
483.0415	-0.0102
483.2416	-0.0014
483.4417	-0.0077
483.6419	-0.0029
483.8419	-0.0022
484.042	-0.003
484.2421	-0.0095
484.4422	-0.0116
484.6422	-0.0108
484.8422	-0.0066
485.0422	-0.0046
485.2422	-0.0046
485.4422	-0.0042
485.6422	-0.0055
485.8421	-0.0028
486.042	-0.004
486.242	-0.0128
486.4419	0.0047
486.6417	-0.0083
486.8416	-0.004
487.0415	-0.0017
487.2413	-0.0033
487.4411	-0.0074
487.641	-0.0048
487.8408	-0.0051
488.0405	-0.009
488.2403	-0.007
488.4401	-0.0133
488.6398	-0.0081
488.8395	-0.013
489.0392	-0.0047
489.2389	-0.0025
489.4386	-0.0084
489.6383	-0.0099
489.8379	-0.0069
490.0376	-0.0091
490.2372	-0.0037
490.4368	-0.015
490.6364	-0.0034
490.836	-0.0057
491.0355	-0.0085
491.2351	-0.0069
491.4346	-0.0125
491.6341	-0.009
491.8336	-0.004
492.0331	-0.0076
492.2326	-0.0113
492.432	-0.0034
492.6315	-0.0088
492.8309	-0.0038
493.0303	-0.0039
493.2297	-0.0069
493.4291	-0.0074
493.6284	-0.0007
493.8278	-0.0036
494.0271	-0.0032
494.2264	0.0005
494.4257	-0.0043
494.625	-0.0029
494.8243	-0.0088
495.0236	-0.0143
495.2228	-0.0068
495.422	-0.0039
495.6213	-0.0084
495.8205	-0.0056
496.0196	-0.009
496.2188	-0.0015
496.418	-0.0001
496.6171	-0.0036
496.8162	-0.0105
497.0153	0.0003
497.2144	-0.0016
497.4135	-0.0031
497.6126	-0.0085
497.8116	-0.0006
498.0107	-0.0052
498.2097	-0.0118
498.4087	-0.0044
498.6077	-0.0082
498.8067	-0.0125
499.0056	0.0004
499.2046	-0.0008
499.4035	-0.0149
499.6024	-0.0125
499.8013	0.0027
500.0002	-0.0071
500.199	-0.0082
500.3979	-0.007
500.5967	-0.0099
500.7956	-0.0063
500.9944	-0.0084
501.1932	-0.0061
501.3919	-0.0086
501.5907	-0.0074
501.7895	-0.0007
501.9882	-0.0057
502.1869	-0.0048
502.3856	-0.0024
502.5843	-0.0098
502.783	-0.0094
502.9816	-0.0103
503.1803	-0.008
503.3789	-0.0014
503.5775	-0.008
503.7761	-0.0042
503.9747	-0.0105
504.1732	-0.0024
504.3718	-0.0032
504.5703	-0.0027
504.7689	-0.0052
504.9674	-0.0003
505.1658	-0.0085
505.3643	-0.0034
505.5628	0.0069
505.7612	-0.0085
505.9597	-0.0085
506.1581	-0.0067
506.3565	-0.0101
506.5549	-0.0031
506.7532	-0.0106
506.9516	-0.0028
507.1499	-0.0042
507.3482	-0.0027
507.5465	-0.0051
507.7448	-0.0022
507.9431	0.0017
508.1414	-0.0046
508.3396	-0.0079
508.5379	-0.009
508.7361	-0.0055
508.9343	-0.0093
509.1325	-0.0079
509.3306	-0.0003
509.5288	0.0017
509.7269	-0.0119
509.9251	-0.0078
510.1232	-0.0043
510.3213	-0.0098
510.5193	-0.0045
510.7174	0.0003
510.9154	-0.0085
511.1135	-0.0109
511.3115	-0.0055
511.5095	-0.0064
511.7075	-0.0072
511.9055	-0.0138
512.1034	-0.0099
512.3014	-0.0073
512.4993	-0.0135
512.6972	-0.0019
512.8951	-0.0084
513.093	-0.0064
513.2908	-0.0027
513.4887	-0.0033
513.6865	-0.0102
513.8844	-0.0065
514.0822	0.0023
514.2799	-0.0111
514.4777	-0.0066
514.6755	-0.0016
514.8732	-0.0176
515.0709	-0.0043
515.2687	-0.0067
515.4664	-0.0046
515.664	-0.0104
515.8617	-0.0079
516.0594	0.0039
516.257	-0.0073
516.4546	-0.0179
516.6522	-0.0095
516.8498	-0.0123
517.0474	-0.004
517.2449	-0.0111
517.4425	-0.0082
517.64	-0.0085
517.8375	-0.0066
518.035	-0.0031
518.2325	-0.0087
518.43	-0.0049
518.6274	-0.0154
518.8249	-0.0056
519.0223	-0.0109
519.2197	-0.0061
519.4171	-0.0079
519.6145	-0.004
519.8118	-0.0114
520.0092	0.0009
520.2065	-0.0119
520.4038	-0.0026
520.6011	-0.012
520.7984	-0.0093
520.9956	-0.0099
521.1929	-0.0053
521.3901	-0.0078
521.5874	-0.0098
521.7846	0.0011
521.9818	-0.0002
522.1789	-0.0057
522.3761	-0.0127
522.5732	0.002
522.7704	-0.002
522.9675	-0.0072
523.1646	0.0041
523.3617	-0.0061
523.5587	-0.0087
523.7558	-0.005
523.9528	-0.0023
524.1498	-0.0047
524.3468	-0.0039
524.5438	-0.0082
524.7408	-0.0141
524.9378	-0.0111
525.1347	0.0029
525.3316	-0.0008
525.5285	-0.0074
525.7254	-0.0094
525.9223	0.0037
526.1192	-0.0089
526.316	-0.0049
526.5129	-0.001
526.7097	-0.0091
526.9065	-0.0057
527.1033	-0.0012
527.3	-0.0076
527.4968	-0.0075
527.6935	0.0003
527.8903	-0.0039
528.087	-0.0105
528.2837	-0.0056
528.4804	-0.0032
528.677	-0.0075
528.8737	-0.0086
529.0703	-0.0032
529.2669	0.0021
529.4635	-0.0077
529.6601	-0.0089
529.8567	-0.0045
530.0532	0.0039
530.2498	-0.0029
530.4463	-0.0032
530.6428	-0.0008
530.8393	-0.0021
531.0358	-0.0087
531.2322	-0.0084
531.4287	-0.014
531.6251	-0.0118
531.8215	-0.0012
532.0179	-0.0129
532.2143	0.0008
532.4107	0.0028
532.607	-0.0047
532.8034	-0.005
532.9997	-0.0028
533.196	-0.0123
533.3923	0.0064
533.5886	0.0021
533.7848	-0.0016
533.9811	-0.0067
534.1773	-0.0037
534.3735	-0.0035
534.5697	-0.0053
534.7659	-0.0011
534.9621	-0.0057
535.1582	-0.0118
535.3544	-0.0051
535.5505	-0.0043
535.7466	-0.0016
535.9427	0.0043
536.1387	-0.0027
536.3348	0.0023
536.5308	0.0004
536.7269	-0.002
536.9229	-0.0019
537.1189	-0.0057
537.3148	-0.0026
537.5108	0.0026
537.7068	-0.0071
537.9027	-0.0083
538.0986	-0.003
538.2945	-0.0114
538.4904	-0.01
538.6863	-0.0107
538.8821	-0.0092
539.078	-0.0132
539.2738	-0.012
539.4696	-0.0048
539.6654	0
539.8611	-0.0057
540.0569	-0.0027
540.2526	-0.0037
540.4484	0.0029
540.6441	-0.0033
540.8398	-0.0118
541.0355	-0.0065
541.2311	0.0003
541.4268	-0.0031
541.6224	-0.0022
541.818	-0.0074
542.0136	-0.0064
542.2092	-0.01
542.4048	-0.0036
542.6003	-0.0018
542.7959	-0.0013
542.9914	-0.0121
543.1869	-0.0063
543.3824	-0.0092
543.5779	-0.0072
543.7734	-0.0118
543.9688	-0.0037
544.1642	-0.0081
544.3596	-0.0034
544.555	-0.0064
544.7504	-0.0047
544.9458	-0.0095
545.1411	0.0037
545.3365	-0.0012
545.5318	0.003
545.7271	0.0004
545.9224	0.0003
546.1177	-0.0087
546.3129	-0.0006
546.5081	-0.0033
546.7034	-0.0059
546.8986	-0.0073
547.0938	-0.0027
547.289	-0.0033
547.4841	-0.0043
547.6793	-0.0086
547.8744	0.0009
548.0695	-0.0068
548.2646	-0.0094
548.4597	-0.0009
548.6548	-0.0016
548.8498	-0.0094
549.0448	-0.0003
549.2399	-0.0012
549.4349	-0.0034
549.6298	-0.0014
549.8248	-0.0057
550.0198	-0.002
550.2147	0.0034
550.4096	-0.0087
550.6045	-0.0017
550.7994	0.0014
550.9943	-0.0017
551.1892	-0.003
551.384	-0.0122
551.5788	-0.0081
551.7737	0.0009
551.9685	-0.0074
552.1632	-0.0057
552.358	-0.0093
552.5528	-0.0055
552.7475	-0.0129
552.9422	-0.0047
553.1369	-0.0077
553.3316	-0.0003
553.5263	-0.0084
553.7209	-0.0096
553.9156	-0.0042
554.1102	-0.0075
554.3048	-0.0134
554.4994	-0.0089
554.694	-0.0009
554.8885	-0.0109
555.0831	-0.0021
555.2776	-0.0022
555.4721	-0.0021
555.6666	-0.0067
555.8611	-0.0024
556.0555	-0.0092
556.25	-0.0056
556.4444	-0.0052
556.6388	-0.0109
556.8332	-0.0068
557.0276	-0.0062
557.222	-0.0037
557.4163	0.0006
557.6107	-0.0054
557.805	-0.0052
557.9993	-0.0035
558.1936	-0.0114
558.3879	0.0027
558.5821	-0.0065
558.7764	-0.008
558.9706	-0.0005
559.1648	-0.0023
559.359	-0.012
559.5532	-0.0056
559.7473	-0.0094
559.9415	-0.0047
560.1356	-0.0082
560.3297	-0.0141
560.5238	-0.013
560.7179	-0.0066
560.9119	-0.0037
561.106	-0.0052
561.3	-0.0055
561.494	-0.0067
561.688	-0.0075
561.882	-0.0089
562.076	-0.0065
562.2699	-0.0051
562.4639	-0.0019
562.6578	-0.0072
562.8517	-0.0065
563.0456	-0.0036
563.2395	-0.0084
563.4333	0
563.6272	-0.0063
563.821	-0.0062
564.0148	0.0052
564.2086	-0.0081
564.4024	-0.0017
564.5961	-0.0035
564.7899	0.0009
564.9836	0.0019
565.1773	-0.0045
565.371	-0.0039
565.5647	-0.0073
565.7584	-0.0018
565.952	-0.0007
566.1456	-0.0035
566.3393	-0.0061
566.5329	-0.0032
566.7264	-0.0024
566.92	-0.0034
567.1136	-0.0085
567.3071	-0.0031
567.5006	0.0023
567.6941	-0.0007
567.8876	-0.0035
568.0811	-0.0069
568.2745	-0.0079
568.468	-0.0067
568.6614	-0.003
568.8548	-0.0082
569.0482	-0.0088
569.2416	-0.0012
569.4349	-0.0034
569.6283	-0.0089
569.8216	-0.0058
570.0149	-0.0062
570.2082	-0.0047
570.4015	0.0006
570.5947	-0.0006
570.788	-0.0087
570.9812	-0.0058
571.1744	-0.006
571.3676	-0.0049
571.5608	-0.0043
571.754	-0.0044
571.9471	-0.0067
572.1402	-0.0055
572.3333	-0.0011
572.5264	-0.0059
572.7195	-0.0026
572.9126	-0.0013
573.1057	-0.0056
573.2987	0.0006
573.4917	-0.0061
573.6847	-0.0039
573.8777	-0.0069
574.0707	-0.0009
574.2636	-0.0047
574.4566	-0.0038
574.6495	-0.0029
574.8424	-0.0043
575.0353	-0.0037
575.2281	-0.003
575.421	-0.0064
575.6138	-0.004
575.8067	-0.0041
575.9995	0.0016
576.1923	-0.0052
576.385	-0.0071
576.5778	-0.0028
576.7706	-0.0015
576.9633	-0.0031
577.156	-0.0012
577.3487	0.0015
577.5414	-0.0014
577.734	0.0003
577.9267	0.0036
578.1193	-0.0064
578.3119	0.003
578.5045	-0.0073
578.6971	-0.0015
578.8897	-0.0095
579.0822	-0.0052
579.2747	0.0019
579.4673	-0.002
579.6598	-0.0042
579.8522	-0.004
580.0447	-0.0061
580.2372	0.002
580.4296	-0.0007
580.622	0.0024
580.8144	-0.0024
581.0068	-0.003
581.1992	0.0007
581.3915	-0.003
581.5839	-0.0046
581.7762	-0.0067
581.9685	-0.0019
582.1608	-0.0025
582.353	0.0002
582.5453	-0.0049
582.7375	-0.002
582.9298	-0.0049
583.122	0.0013
583.3142	-0
583.5063	0.0007
583.6985	-0.002
583.8906	-0.0032
584.0827	-0.0062
584.2749	-0.01
584.4669	-0.0046
584.659	-0.009
584.8511	-0.0037
585.0431	-0.0024
585.2352	-0.0068
585.4272	-0.0066
585.6192	-0.0042
585.8111	-0.0103
586.0031	-0.0018
586.195	-0.0039
586.387	0.0005
586.5789	-0.0053
586.7708	-0.0063
586.9627	-0.0054
587.1545	-0.002
587.3464	-0.0082
587.5382	-0.006
587.73	-0.0058
587.9218	-0.0069
588.1136	-0.0057
588.3053	-0.0002
588.4971	-0.0071
588.6888	-0.0049
588.8805	-0.0023
589.0722	0.0005
589.2639	0.0021
589.4556	0.0009
589.6472	-0.0066
589.8389	-0.0033
590.0305	-0.0037
590.2221	-0.0039
590.4137	-0.0025
590.6052	-0.006
590.7968	-0.0032
590.9883	-0.0021
591.1798	-0.006
591.3713	-0.0011
591.5628	-0.0055
591.7543	0.0015
591.9458	-0.0043
592.1372	-0.0037
592.3286	-0.0003
592.52	-0.002
592.7114	0.0051
592.9028	-0.0032
593.0941	-0.001
593.2855	0.002
593.4768	0.0003
593.6681	-0.0015
593.8594	0.0013
594.0506	-0.004
594.2419	0.0027
594.4331	-0.0053
594.6244	-0.0042
594.8156	-0.0046
595.0067	-0.0036
595.1979	-0.0063
595.3891	-0.0054
595.5802	-0.0071
595.7713	-0.0044
595.9624	-0.0012
596.1535	0.0013
596.3446	-0.0022
596.5357	-0.0019
596.7267	-0.0017
596.9177	0.0023
597.1087	-0
597.2997	0.0005
597.4907	-0.0019
597.6817	-0.0035
597.8726	-0.0036
598.0635	-0.0083
598.2544	-0.0035
598.4453	-0.0056
598.6362	-0.0025
598.827	-0.0071
599.0179	-0.0002
599.2087	-0.0131
599.3995	-0.0036
599.5903	-0.0021
599.7811	-0.0073
599.9718	-0.0044
600.1626	-0.0031
600.3533	-0.0025
600.544	-0.0033
600.7347	0.0004
600.9254	-0.0064
601.116	-0.0053
601.3067	-0.0096
601.4973	-0.007
601.6879	-0.0037
601.8785	-0.0067
602.0691	-0.0035
602.2596	-0.004
602.4502	-0.0027
602.6407	-0.0022
602.8312	-0.0035
603.0217	-0.0042
603.2122	-0.0035
603.4027	-0.0042
603.5931	-0.0052
603.7835	-0.0007
603.9739	0.0003
604.1643	-0.002
604.3547	-0.0041
604.5451	-0.002
604.7354	-0.0028
604.9257	-0.0031
605.116	-0.0028
605.3063	-0.0056
605.4966	-0.0047
605.6869	-0.0049
605.8771	-0.0046
606.0673	-0.0039
606.2575	-0.0052
606.4477	-0.0067
606.6379	-0.0102
606.8281	-0.0056
607.0182	-0.0093
607.2083	-0.0066
607.3985	-0.0101
607.5885	-0.0032
607.7786	-0.007
607.9687	0.0002
608.1587	-0.0054
608.3488	-0.0028
608.5388	-0.0012
608.7288	-0.004
608.9187	-0.0004
609.1087	-0.0025
609.2986	-0.0023
609.4886	-0.0036
609.6785	-0.0036
609.8684	-0.0005
610.0582	-0.003
610.2481	-0.0033
610.4379	-0.0006
610.6278	0.0016
610.8176	0.0011
611.0074	-0.0035
611.1971	-0.0026
611.3869	-0
611.5766	0.0006
611.7664	-0.0031
611.9561	-0.0002
612.1458	0.0037
612.3354	-0.0059
612.5251	-0.0054
612.7147	-0.003
612.9044	-0.0038
613.094	-0.0031
613.2836	-0.0012
613.4731	-0.0062
613.6627	-0.0092
613.8522	-0.0026
614.0417	-0.0027
614.2313	-0.0054
614.4207	-0.0036
614.6102	-0.0001
614.7997	-0.0051
614.9891	-0.0064
615.1785	-0.0064
615.3679	-0.0023
615.5573	-0.0026
615.7467	-0.0011
615.9361	-0.0033
616.1254	-0.0035
616.3147	-0.0007
616.504	0.0004
616.6933	-0.0051
616.8826	-0.0043
617.0718	-0.0025
617.2611	-0.0025
617.4503	-0.0042
617.6395	-0.004
617.8287	0.0013
618.0179	0.0022
618.207	-0.0042
618.3961	-0.002
618.5853	-0.0012
618.7744	-0.0027
618.9634	0
619.1525	-0.0077
619.3416	-0.0089
619.5306	-0.0037
619.7196	-0.0013
619.9086	0.0027
620.0976	-0.0019
620.2866	0.003
620.4755	-0.0038
620.6645	-0.0011
620.8534	0.0013
621.0423	-0.0085
621.2312	-0.0083
621.42	0.0016
621.6089	-0.0018
621.7977	-0.0035
621.9865	-0.003
622.1753	-0.0002
622.3641	-0.0008
622.5529	-0.0009
622.7416	-0.0032
622.9303	0.003
623.1191	-0.0059
623.3078	-0.0029
623.4964	0.0001
623.6851	0.0023
623.8737	-0.0055
624.0624	0.0003
624.251	0.0032
624.4396	-0.004
624.6282	0.0033
624.8167	0.0011
625.0053	0.0013
625.1938	0.0013
625.3823	-0.0003
625.5708	-0.0016
625.7593	-0.0028
625.9477	-0.0064
626.1362	0.0017
626.3246	-0.0068
626.513	-0.0035
626.7014	-0.0006
626.8898	-0.0049
627.0781	-0.0074
627.2665	-0.0056
627.4548	-0.0093
627.6431	-0.0038
627.8314	-0.0022
628.0197	0.0004
628.2079	0.0004
628.3962	0.0008
628.5844	0.0027
628.7726	0.002
628.9608	-0.0029
629.1489	0.005
629.3371	0
629.5252	0.0019
629.7134	-0.0039
629.9015	0.0024
630.0895	-0.0002
630.2776	0.0007
630.4657	-0.0049
630.6537	-0.0048
630.8417	-0.0023
631.0297	-0.0014
631.2177	0.0002
631.4057	0.0014
631.5936	0.0017
631.7815	-0.0003
631.9695	-0.0029
632.1574	-0.0075
632.3452	-0.0089
632.5331	-0.0021
632.7209	-0.0039
632.9088	-0.0038
633.0966	-0.0117
633.2844	-0.0019
633.4722	-0.0033
633.6599	-0.0001
633.8477	-0.0016
634.0354	-0.0088
634.2231	-0.0032
634.4108	0.0014
634.5985	-0.0058
634.7861	0.0002
634.9738	-0.0048
635.1614	-0.0042
635.349	-0.0005
635.5366	-0.0017
635.7242	0.0002
635.9117	-0.0003
636.0993	-0.0049
636.2868	-0.0025
636.4743	0.0003
636.6618	-0.0103
636.8492	-0.0036
637.0367	-0.0004
637.2241	-0.0065
637.4115	-0.0084
637.5989	-0.003
637.7863	-0.0034
637.9737	-0.0073
638.161	-0.0017
638.3484	-0.0043
638.5357	-0.0027
638.723	0.0017
638.9103	0.0027
639.0975	-0.0004
639.2848	-0.0061
639.472	0.0018
639.6592	0.0053
639.8464	-0.0065
640.0336	-0.0062
640.2208	-0.0055
640.4079	-0.0035
640.595	-0.0003
640.7821	-0.002
640.9692	0.004
641.1563	0.0016
641.3434	0.0017
641.5304	-0.0014
641.7174	0.0056
641.9044	-0.0005
642.0914	0.0003
642.2784	0.0015
642.4653	0.0012
642.6523	0.002
642.8392	0.0055
643.0261	0.0043
643.213	0.0016
643.3999	-0.006
643.5867	-0.0021
643.7735	0.0009
643.9604	-0.0037
644.1472	-0.0038
644.3339	-0.0041
644.5207	-0.0035
644.7075	-0.0079
644.8942	-0.0081
645.0809	-0.0043
645.2676	-0.0003
645.4543	0.0036
645.6409	-0.0027
645.8276	-0.0008
646.0142	-0.0031
646.2008	-0.0083
646.3874	-0.0043
646.574	-0
646.7605	-0.0017
646.9471	-0.0075
647.1336	-0.0023
647.3201	-0.0064
647.5066	0.0015
647.6931	0.0021
647.8795	-0.0059
648.0659	-0.0069
648.2524	-0.0066
648.4388	-0.003
648.6252	-0.0017
648.8115	-0.0068
648.9979	-0.0045
649.1842	-0.0071
649.3705	-0.0006
649.5568	-0.0053
649.7431	-0.0029
649.9294	-0.0027
650.1156	-0.003
650.3018	-0.0053
650.488	-0.0078
650.6742	-0.0042
650.8604	-0.0016
651.0466	-0.0009
651.2327	-0.0002
651.4188	0.0008
651.6049	0.0074
651.791	-0.0021
651.9771	-0.0013
652.1632	-0.0005
652.3492	0.0028
652.5352	-0.0033
652.7212	-0.0002
652.9072	0.0037
653.0932	-0.0012
653.2791	0.001
653.465	-0.0026
653.651	-0.0003
653.8369	-0.0018
654.0227	-0.0026
654.2086	-0.0025
654.3944	-0.0003
654.5803	-0.0059
654.7661	-0.0032
654.9519	-0.0028
655.1377	-0.0008
655.3234	-0.0001
655.5092	-0.0001
655.6949	-0.0001
655.8806	-0.0001
656.0663	-0.0001
656.2519	-0.0001
656.4376	-0.0036
656.6232	-0.0059
656.8088	-0.0037
656.9945	-0.0026
657.18	-0.0021
657.3656	-0.0046
657.5511	-0.0043
657.7367	-0.0048
657.9222	0.0004
658.1077	-0.001
658.2932	0.0011
658.4786	-0.0042
658.6641	-0.0066
658.8495	-0.0024
659.0349	-0.002
659.2203	-0.0078
659.4057	-0.0036
659.591	-0.0039
659.7764	-0.0057
659.9617	-0.0074
660.147	-0.0044
660.3323	-0.0059
660.5176	-0.0091
660.7028	-0.0055
660.888	-0.0022
661.0733	-0.0009
661.2585	-0.0061
661.4436	-0.0059
661.6288	-0.0042
661.8139	-0.0003
661.9991	-0.0027
662.1842	-0.0024
662.3693	-0.0031
662.5544	0.0004
662.7394	-0.0041
662.9245	-0.0042
663.1095	-0.0013
663.2945	-0.001
663.4795	-0.005
663.6644	-0.0072
663.8494	-0.0044
664.0343	-0.004
664.2193	-0.0073
664.4042	-0.0129
664.589	-0.0023
664.7739	-0.0074
664.9587	0.0004
665.1436	0.0008
665.3284	-0.0017
665.5132	-0.0024
665.698	0.0036
665.8827	0.001
666.0675	-0.0063
666.2522	-0.0072
666.4369	-0.0059
666.6216	-0.0095
666.8063	-0.0062
666.9909	-0.0097
667.1756	-0.007
667.3602	-0.0107
667.5448	-0.0073
667.7294	-0.005
667.9139	-0.0014
668.0985	-0.0086
668.283	-0.0083
668.4675	-0.0141
668.652	-0.0084
668.8365	-0.0108
669.0209	-0.0071
669.2054	-0.0054
669.3898	-0.0066
669.5742	-0.0081
669.7586	-0.0055
669.943	-0.0025
670.1273	-0.013
670.3117	-0.0049
670.496	-0.0076
670.6803	-0.0016
670.8646	-0.0026
671.0488	0.0019
671.2331	-0.0045
671.4173	0.0001
671.6015	-0.0033
671.7857	-0.0063
671.9699	0.0004
672.1541	-0.0081
672.3382	-0.0045
672.5223	-0.0058
672.7064	-0.0083
672.8905	-0.0159
673.0746	-0.0087
673.2587	-0.0137
673.4427	-0.0155
673.6267	-0.0103
673.8107	-0.0146
673.9947	-0.0141
674.1787	-0.0076
674.3626	-0.0034
674.5465	-0.0069
674.7304	-0.0016
674.9143	-0.0029
675.0982	-0.002
675.2821	-0.0025
675.4659	-0.0037
675.6497	0.0007
675.8335	-0.0025
676.0173	-0.0052
676.2011	-0.0067
676.3849	-0.0048
676.5686	-0.0026
676.7523	-0.0064
676.936	-0.0016
677.1197	-0.0066
677.3034	-0.0105
677.487	-0.0014
677.6706	-0.0055
677.8542	-0.0077
678.0378	-0.0059
678.2214	-0.0111
678.405	-0.0016
678.5885	-0.0094
678.772	-0.0005
678.9555	0.0002
679.139	-0.0043
679.3225	-0.007
679.5059	-0.007
679.6894	-0.0011
679.8728	-0.0031
680.0562	0.0002
680.2395	-0.0073
680.4229	0.003
680.6062	0.0004
680.7896	-0.0005
680.9729	-0.0026
681.1562	-0.0022
681.3394	0.0002
681.5227	-0.0062
681.7059	-0
681.8891	-0.0067
682.0723	-0.0093
682.2555	-0.0036
682.4387	0.0009
682.6218	-0.0053
682.805	-0.0026
682.9881	-0.0066
683.1712	0.0012
683.3542	-0.0011
683.5373	-0.0045
683.7203	-0.0075
683.9034	-0.003
684.0864	-0.0088
684.2694	-0.0046
684.4523	-0.0007
684.6353	-0.0052
684.8182	-0.0023
685.0011	-0.0065
685.184	-0.0045
685.3669	0.0018
685.5498	-0.0037
685.7326	0.0008
685.9154	-0.0065
686.0982	-0.0019
686.281	-0.0082
686.4638	-0.0021
686.6465	-0.0062
686.8293	0.0021
687.012	-0.0056
687.1947	-0.0019
687.3774	-0.0063
687.56	-0.0034
687.7427	-0.0023
687.9253	-0.0005
688.1079	-0.0008
688.2905	-0.0039
688.4731	-0.0051
688.6556	-0.0078
688.8382	0.0005
689.0207	-0.0008
689.2032	-0.0023
689.3857	-0.0013
689.5681	-0.0025
689.7506	-0.0005
689.933	-0.0026
690.1154	-0.003
690.2978	-0.0005
690.4802	-0.0045
690.6626	0.0037
690.8449	0.0035
691.0272	0.0005
691.2095	0.0039
691.3918	-0.0051
691.5741	-0.0053
691.7563	-0.0012
691.9386	-0.0056
692.1208	-0.0094
692.303	-0.0055
692.4852	0.0011
692.6673	-0.0037
692.8495	-0.0058
693.0316	-0.002
693.2137	-0.0065
693.3958	-0.0046
693.5778	-0.0058
693.7599	-0.0077
693.9419	-0.0082
694.1239	-0.0052
694.3059	-0.0075
694.4879	-0.0045
694.6699	-0.0055
694.8518	-0.0072
695.0337	-0.0072
695.2157	-0.001
695.3975	-0.0098
695.5794	-0.0059
695.7613	-0.0049
695.9431	-0.0066
696.1249	0.0005
696.3067	-0.0071
696.4885	-0.0012
696.6703	-0.0034
696.852	-0.0044
697.0337	-0.0042
697.2154	-0.0014
697.3971	-0.0088
697.5788	-0.0047
697.7605	-0.001
697.9421	-0.0059
698.1237	-0.0047
698.3053	-0.0049
698.4869	-0.0041
698.6685	-0.0108
698.85	-0.0023
699.0315	-0.0002
699.213	0.0023
699.3945	-0.002
699.576	0.0043
699.7575	-0.0058
699.9389	-0.0018
700.1203	-0.0117
700.3017	-0.0029
700.4831	-0.0004
700.6645	-0.0084
700.8458	-0.0054
701.0271	-0.0052
701.2084	-0.0134
701.3897	-0.0024
701.571	-0.0016
701.7523	-0.0007
701.9335	0.0048
702.1147	0.0092
702.2959	-0.0047
702.4771	-0.0031
702.6583	-0.0004
702.8394	0.0015
703.0205	0.0008
703.2016	-0.007
703.3827	0.0022
703.5638	-0.0079
703.7449	-0.0074
703.9259	-0.0032
704.1069	-0.0033
704.2879	-0.0058
704.4689	-0.0049
704.6499	-0.0046
704.8308	-0.0028
705.0117	-0.0016
705.1927	-0.0017
705.3735	0.0048
705.5544	0.0037
705.7353	0.0021
705.9161	0.0026
706.0969	0.0055
706.2777	-0.0087
706.4585	-0.0003
706.6393	-0.0012
706.82	-0.0043
707.0007	-0.0059
707.1815	0.0019
707.3621	-0.0029
707.5428	-0.0028
707.7235	-0.0019
707.9041	-0.0048
708.0847	-0.0051
708.2653	-0.0082
708.4459	-0.0011
708.6265	-0.0063
708.807	0.0017
708.9875	-0.0018
709.168	-0.0043
709.3485	-0.0058
709.529	-0.0079
709.7095	-0.0078
709.8899	-0.0097
710.0703	0.0056
710.2507	-0.0098
710.4311	0.0022
710.6115	0.0053
710.7918	-0.0028
710.9721	-0.0013
711.1524	0.0001
711.3327	-0.0022
711.513	-0.007
711.6932	-0.0057
711.8735	-0.001
712.0537	-0.001
712.2339	-0.0022
712.4141	-0.0028
712.5942	0.0049
712.7744	0.0001
712.9545	0.0013
713.1346	-0.0031
713.3147	0.0036
713.4947	0.0038
713.6748	-0.0031
713.8548	-0.0082
714.0348	0.0017
714.2148	-0.007
714.3948	-0.0059
714.5748	-0.0085
714.7547	-0.0077
714.9346	-0.003
715.1145	-0.0063
715.2944	0.0014
715.4743	-0.0019
715.6541	-0.0026
715.834	-0.0012
716.0138	-0.0001
716.1936	0.0034
716.3733	-0.009
716.5531	-0.005
716.7328	-0.0022
716.9126	-0.0016
717.0923	0.0005
717.2719	-0.0047
717.4516	-0.0079
717.6312	-0.0056
717.8109	-0.0003
717.9905	-0.0064
718.1701	-0.0047
718.3496	-0.0028
718.5292	-0.0057
718.7087	-0.0044
718.8882	-0.0018
719.0677	-0.0063
719.2472	-0.0052
719.4267	-0.0106
719.6061	-0.0017
719.7856	0.0009
719.965	-0.0079
720.1443	-0.0028
720.3237	-0.0041
720.5031	-0.0061
720.6824	-0.0035
720.8617	-0.0048
721.041	-0.0011
721.2203	-0.0093
721.3995	0.0006
721.5788	-0.0146
721.758	-0.0072
721.9372	-0.0054
722.1164	-0.0114
722.2956	-0.0159
722.4747	-0.0079
722.6538	-0.0102
722.8329	-0.0053
723.012	0.0009
723.1911	0.0001
723.3702	-0.0031
723.5492	-0.004
723.7282	-0.0017
723.9072	0.0012
724.0862	-0.0062
724.2652	-0.005
724.4441	-0.0092
724.623	-0.001
724.8019	-0.0015
724.9808	-0.0013
725.1597	0.0041
725.3385	0.0017
725.5174	-0.0019
725.6962	-0.011
725.875	0.0052
726.0538	-0.0009
726.2325	-0.0053
726.4112	-0.0059
726.59	-0.0041
726.7687	-0.0054
726.9474	-0.003
727.126	-0.0049
727.3047	-0.0032
727.4833	0.0011
727.6619	-0.0114
727.8405	-0.0007
728.0191	0.0023
728.1976	-0.0049
728.3762	-0.0057
728.5547	-0.0079
728.7332	-0.0055
728.9116	-0.0104
729.0901	-0.0151
729.2686	-0.0111
729.447	-0.0022
729.6254	-0.0077
729.8038	-0.0061
729.9821	-0.0013
730.1605	-0.0038
730.3388	-0.0007
730.5171	-0.0044
730.6954	0.0002
730.8737	-0.0028
731.0519	-0.0016
731.2302	0.0025
731.4084	0.0013
731.5866	0.0008
731.7648	0.0031
731.9429	-0.0011
732.1211	-0.003
732.2992	0.0011
732.4773	-0.0027
732.6554	-0.0066
732.8335	-0.0078
733.0115	-0.0025
733.1896	-0.0102
733.3676	-0.0025
733.5456	-0.002
733.7235	-0.0019
733.9015	-0.0036
734.0794	-0.0003
734.2574	-0.0058
734.4353	-0.0007
734.6131	0.001
734.791	-0.0015
734.9689	-0.0097
735.1467	0.0046
735.3245	-0.0018
735.5023	-0.0026
735.68	-0.0044
735.8578	-0.0042
736.0355	0.0081
736.2132	0.0031
736.3909	-0.0023
736.5686	-0.0046
736.7463	-0.0063
736.9239	-0.0065
737.1015	-0.0053
737.2791	-0.0113
737.4567	-0.0104
737.6343	0.0019
737.8118	-0.004
737.9894	0.0021
738.1669	-0.0046
738.3444	-0.0041
738.5218	0.0011
738.6993	-0.0015
738.8767	0.0007
739.0541	-0.0048
739.2315	-0.0087
739.4089	-0.0008
739.5863	-0.0079
739.7636	-0.0069
739.9409	-0.0032
740.1182	0.0024
740.2955	-0.0034
740.4728	-0.0009
740.65	-0.0006
740.8272	-0.0009
741.0044	-0.0031
741.1816	-0.002
741.3588	0.0063
741.5359	-0.0014
741.7131	0.0007
741.8902	0.0027
742.0673	0.002
742.2444	-0.0045
742.4214	-0.0056
742.5985	-0.0053
742.7755	-0.0099
742.9525	0.0005
743.1295	-0.003
743.3064	-0.0011
743.4834	-0.0041
743.6603	-0.0042
743.8372	0.0006
744.0141	-0.0057
744.191	-0.0029
744.3678	0.0009
744.5446	0.0059
744.7215	-0.0092
744.8982	-0.0073
745.075	0
745.2518	-0.0055
745.4285	0.0044
745.6052	0.0006
745.7819	-0.0004
745.9586	0.0055
746.1353	-0.0061
746.3119	0.0044
746.4885	-0.0014
746.6651	-0.0023
746.8417	-0.0086
747.0183	-0.0019
747.1948	-0.0083
747.3714	-0.0067
747.5479	-0.0029
747.7244	-0.0025
747.9008	-0.0002
748.0773	0.0008
748.2537	-0.0006
748.4301	0.003
748.6065	0.0052
748.7829	0.0044
748.9593	0.0021
749.1356	-0.007
749.3119	-0.0028
749.4882	0.0049
749.6645	-0.0032
749.8408	-0.0074
750.017	-0.007
750.1933	-0.0079
750.3695	-0.0101
750.5457	-0.006
750.7218	-0.0055
750.898	-0.0074
751.0741	-0.0116
751.2502	-0.0068
751.4263	-0.0019
751.6024	-0.0067
751.7784	0.0021
751.9545	-0.0066
752.1305	0.0003
752.3065	0.0002
752.4825	-0.0009
752.6584	-0.0057
752.8344	-0.0022
753.0103	-0.0055
753.1862	0.0046
753.3621	-0.0012
753.5379	-0.0095
753.7138	0.0021
753.8896	-0.0095
754.0654	-0.0058
754.2412	-0.0115
754.417	-0.0022
754.5927	-0.0049
754.7685	-0.0135
754.9442	-0.0089
755.1199	-0.0096
755.2956	-0.0074
755.4712	-0.0013
755.6469	-0.0134
755.8225	-0.0114
755.9981	-0.0072
756.1736	-0.0096
756.3492	-0.0115
756.5248	-0.0059
756.7003	-0.0066
756.8758	-0.0094
757.0513	-0.0122
757.2267	-0.0124
757.4022	-0.0143
757.5776	-0.0061
757.753	-0.0153
757.9284	-0.0059
758.1038	-0.0126
758.2791	-0.0139
758.4545	-0.0103
758.6298	-0.0087
758.8051	-0.007
758.9803	-0.0143
759.1556	-0.0116
759.3308	-0.0066
759.506	-0.0078
759.6812	-0.0034
759.8564	-0.0094
760.0316	-0.0051
760.2067	-0.0029
760.3819	-0.0037
760.557	-0.0101
760.732	-0.0136
760.9071	-0.0131
761.0821	-0.0105
761.2572	-0.0102
761.4322	-0.0054
761.6072	-0.0096
761.7821	-0.013
761.9571	-0.0117
762.132	-0.0126
762.3069	0.0006
762.4818	-0.0064
762.6567	-0.0127
762.8316	0.0029
763.0064	-0.0048
763.1812	0.0036
763.356	0.0014
763.5308	-0.0064
763.7055	0.0017
763.8803	-0.0024
764.055	-0.0019
764.2297	0.0012
764.4044	-0.0014
764.579	-0.0003
764.7537	-0.0058
764.9283	-0.0062
765.1029	0.0045
765.2775	-0.0002
765.4521	0.0071
765.6266	-0.0004
765.8011	0.0036
765.9756	0.0071
766.1501	0.0048
766.3246	-0.0031
766.4991	0
766.6735	-0.0047
766.8479	-0.007
767.0223	0.0001
767.1967	-0.0057
767.371	-0.0035
767.5454	-0.0075
767.7197	-0.0023
767.894	0.0004
768.0683	0.0005
768.2425	-0.0045
768.4168	-0.0087
768.591	0.0044
768.7652	-0.0017
768.9394	0.0067
769.1135	0.0055
769.2877	0.0019
769.4618	0.0084
769.6359	0.002
769.81	0.0014
769.984	-0.0063
770.1581	0.002
770.3321	0.0007
770.5061	-0.003
770.6801	0.0035
770.8541	-0.0038
771.028	-0.0055
771.202	-0.0013
771.3759	-0.0024
771.5498	0.0005
771.7236	-0.0001
771.8975	0.0022
772.0713	0.0029
772.2451	0.0038
772.4189	0.0032
772.5927	-0.0067
772.7665	-0.0047
772.9402	-0.0008
773.1139	-0.0022
773.2876	-0.0001
773.4613	-0.0038
773.635	0.0035
773.8086	0.0061
773.9822	0.0027
774.1558	-0.0049
774.3294	0.0054
774.503	0.0005
774.6765	-0.0113
774.8501	0.0074
775.0236	-0.014
775.1971	-0.0097
775.3705	0.0021
775.544	-0.0043
775.7174	-0.0024
775.8908	-0.0057
776.0642	-0.0025
776.2376	-0.0098
776.4109	-0.0091
776.5843	0.0058
776.7576	0.0043
776.9309	-0.002
777.1041	-0.0045
777.2774	0.0017
777.4506	-0.0076
777.6238	-0.0018
777.797	0.003
777.9702	-0.0062
778.1434	-0.0072
778.3165	-0.0046
778.4896	-0.0127
778.6627	-0.01
778.8358	-0.0067
779.0089	-0.0031
779.1819	0.0002
779.3549	-0.002
779.5279	-0.0068
779.7009	-0.0064
779.8739	0.0032
780.0468	-0.0034
780.2197	0.0032
780.3926	-0.0086
780.5655	-0.0114
780.7384	-0.0008
780.9112	-0.0054
781.0841	0.002
781.2569	0.0048
781.4297	-0.0007
781.6024	0.0057
781.7752	0.0014
781.9479	-0.01
782.1206	0.0044
782.2933	-0.0035
782.466	-0.0045
782.6386	0.0011
782.8113	-0.0124
782.9839	-0.0061
783.1565	-0.01
783.329	-0.0102
783.5016	-0.0014
783.6741	-0.0043
783.8466	-0.0096
784.0191	-0.0107
784.1916	-0.0031
784.3641	-0.0069
784.5365	-0.0023
784.7089	0.0013
784.8813	0.0071
785.0537	0.0108
785.2261	-0.0017
785.3984	-0.0025
785.5707	0.0002
785.743	0.0003
785.9153	0.0015
786.0876	-0.0023
786.2598	0.0011
786.432	0.0042
786.6042	0.0097
786.7764	0.0079
786.9486	0.0001
787.1207	-0.0102
787.2928	0.0079
787.4649	-0.0156
787.637	-0.0064
787.8091	0.003
787.9811	0.0103
788.1532	-0.003
788.3252	-0.0073
788.4972	0.0042
788.6691	-0.0091
788.8411	0.003
789.013	-0.0014
789.1849	0.0052
789.3568	-0.0048
789.5287	-0.0016
789.7005	-0.0027
789.8723	-0.0015
790.0442	-0.0038
790.2159	0.001
790.3877	-0.0075
790.5595	-0.0039
790.7312	-0.0062
790.9029	-0.0087
791.0746	-0.0127
791.2463	-0.0009
791.4179	-0.007
791.5896	-0.0018
791.7612	0.0062
791.9328	0.0021
792.1044	-0.0058
792.2759	0.0066
792.4474	-0.0078
792.619	-0.01
792.7905	-0.0122
792.9619	-0.0017
793.1334	-0.0049
793.3048	-0.0055
793.4762	0.0029
793.6476	-0.0111
793.819	-0.0191
793.9904	-0.0092
794.1617	-0.0179
794.333	-0.0148
794.5043	-0.0081
794.6756	0.0062
794.8469	-0.0044
795.0181	-0.0047
795.1893	-0.0032
795.3605	-0.0125
795.5317	-0.013
795.7029	-0.0082
795.874	-0.0101
796.0452	-0.0095
796.2163	-0.0122
796.3873	-0.0245
796.5584	-0.0135
796.7294	-0.0081
796.9005	-0.0117
797.0715	-0.0198
797.2425	-0.014
797.4134	-0.018
797.5844	-0.0204
797.7553	-0.0089
797.9262	-0.0203
798.0971	-0.0155
798.2679	-0.0125
798.4388	-0.0122
798.6096	-0.0119
798.7804	-0.017
798.9512	-0.0147
799.122	-0.0112
799.2927	-0.0108
799.4635	-0.0031
799.6342	-0.0022
799.8049	-0.0086
799.9755	-0.0105
800.1462	-0.022
800.3168	-0.01
800.4874	-0.0147
800.658	-0.0147
800.8286	-0.0161
800.9991	-0.0121
801.1696	-0.0176
801.3402	-0.015
801.5106	-0.0249
801.6811	-0.0164
801.8516	-0.0092
802.022	-0.0273
802.1924	-0.0243
802.3628	-0.016
802.5332	-0.0233
802.7035	-0.021
802.8739	-0.0157
803.0442	-0.0143
803.2145	-0.0094
803.3847	-0.0242
803.555	-0.0212
803.7252	-0.0138
803.8954	-0.0152
804.0656	-0.0053
804.2358	-0.0169
804.4059	-0.011
804.5761	-0.0114
804.7462	-0.0124
804.9163	-0.0099
805.0864	-0.0138
805.2564	-0.0058
805.4264	-0.0129
805.5965	-0.0082
805.7665	0.0004
805.9364	-0.013
806.1064	-0.0122
806.2763	-0.0218
806.4462	-0.0073
806.6161	-0.0134
806.786	-0.0117
806.9559	-0.0061
807.1257	-0.0096
807.2955	-0.019
807.4653	-0.0132
807.6351	-0.0054
807.8048	-0.0005
807.9746	-0.0045
808.1443	-0.0025
808.314	-0.0026
808.4837	0.008
808.6533	0.0019
808.8229	-0.0026
808.9926	0.0011
809.1622	-0.0058
809.3317	0.01
809.5013	0.0054
809.6708	0.004
809.8403	-0.0127
810.0098	0.0081
810.1793	-0.006
810.3488	0.002
810.5182	-0.0116
810.6876	-0.0011
810.857	-0.0105
811.0264	-0.0208
811.1958	0.0013
811.3651	-0.0101
811.5344	0.0027
811.7037	-0.0215
811.873	0.0011
812.0422	-0.0178
812.2115	-0.015
812.3807	-0.0056
812.5499	0.0007
812.7191	-0.0206
812.8882	0.0043
813.0574	-0.0097
813.2265	-0.0075
813.3956	-0.0045
813.5646	-0.0026
813.7337	0.0034
813.9027	-0.0012
814.0718	-0.005
814.2407	0.0078
814.4097	-0.0021
814.5787	0.005
814.7476	-0.0068
814.9165	0.0027
815.0854	-0.0097
815.2543	0.003
815.4232	-0.0187
815.592	-0.0041
815.7608	-0.0017
815.9296	0.0068
816.0984	-0.0081
816.2671	-0.0019
816.4359	0.0009
816.6046	0.0135
816.7733	0.0033
816.942	-0.003
817.1106	0.0064
817.2793	-0.0035
817.4479	-0.0087
817.6165	-0.0163
817.785	-0.0072
817.9536	-0.012
818.1221	-0.0121
818.2906	-0.0026
818.4591	-0.0244
818.6276	-0.0106
818.7961	-0.0032
818.9645	-0.0135
819.1329	-0.002
819.3013	-0.0113
819.4697	-0.0032
819.638	-0.0112
819.8064	-0.0068
819.9747	-0.0048
820.143	-0.0001
820.3113	-0.0091
820.4795	0.012
820.6477	-0.0012
820.816	-0.005
820.9842	-0.0101
821.1523	-0.0165
821.3205	-0.0149
821.4886	-0.0043
821.6567	-0.0079
821.8248	-0.0131
821.9929	-0.0131
822.1609	-0.0116
822.329	-0.0115
822.497	-0.0077
822.665	-0.0171
822.833	-0.0252
823.0009	-0.0131
823.1688	-0.0118
823.3367	-0.0117
823.5046	-0.0133
823.6725	-0.0175
823.8404	-0.0028
824.0082	0.0021
824.176	-0.0117
824.3438	-0.0057
824.5116	-0.0061
824.6793	-0.011
824.847	-0.0061
825.0147	-0.0187
825.1824	-0.0143
825.3501	-0.0102
825.5177	-0.0156
825.6854	-0.0121
825.853	-0.0009
826.0206	-0.0071
826.1881	-0.0006
826.3557	-0.011
826.5232	0.0089
826.6907	-0.005
826.8582	-0.0048
827.0257	-0.0225
827.1931	0.0136
827.3605	-0.006
827.528	-0.0011
827.6953	-0.0048
827.8627	-0.0103
828.03	-0.0031
828.1974	0.006
828.3647	0.0034
828.532	-0.0026
828.6992	-0.0085
828.8665	-0.0274
829.0337	-0.0067
829.2009	-0.0212
829.3681	-0.0282
829.5352	-0.0016
829.7024	-0.0001
829.8695	-0.0213
830.0366	-0.0208
830.2037	-0.0084
830.3707	-0.0203
830.5378	0.0042
830.7048	-0.0292
830.8718	-0.0027
831.0388	-0.0104
831.2057	0.0004
831.3727	-0.0299
831.5396	-0.0173
831.7065	0.0072
831.8734	0.0047
832.0402	-0.0318
832.2071	-0.0116
832.3739	0.0048
832.5407	0.002
832.7075	-0.0082
832.8742	0.0129
833.041	0.0165
833.2077	-0.0244
833.3744	0.0031
833.541	-0.005
833.7077	-0.0109
833.8743	-0.0087
834.0409	0.0104
834.2075	0.0127
834.3741	-0.0006
834.5407	-0.0029
834.7072	-0.0013
834.8737	0.0061
835.0402	-0.0343
835.2067	-0.0226
835.3731	-0.0153
835.5395	-0.0105
835.706	-0.0226
835.8723	-0.0202
836.0387	-0.0188
836.2051	-0.0081
836.3714	0.0255
836.5377	-0.0025
836.704	-0.0077
836.8703	-0.0369
837.0365	0.019
837.2027	0.0008
837.3689	0.005
837.5351	-0.0249
837.7013	-0.0075
837.8674	0.0273
838.0335	-0.0123
838.1997	-0.0033
838.3657	0.0006
838.5318	-0.0104
838.6978	-0.0052
838.8639	-0.0028
839.0299	-0.014
839.1958	0.014
839.3618	0.0123
839.5277	-0.0203
839.6937	-0.0047
839.8596	-0.0044
840.0254	-0.0209
840.1913	-0.0005
840.3571	-0.0053
840.523	0.0137
840.6888	-0.0049
840.8545	-0.0125
841.0203	-0.018
841.186	0.0089
841.3517	-0.0127
841.5174	-0.0293
841.6831	-0.0106
841.8488	0.0126
842.0144	0.0315
842.18	0.0076
842.3456	-0.0163
842.5112	0.0136
842.6767	-0.0205
842.8422	-0.0006
843.0077	-0.0205
843.1732	-0.0013
843.3387	-0.0276
843.5042	0.0179
843.6696	-0.0006
843.835	-0.0369
844.0004	0.0148
844.1657	0.0028
844.3311	0.004
844.4964	0.0054
844.6617	0.0085
844.827	0.0077
844.9923	-0.023
845.1575	0.0075
845.3227	-0.0328
845.4879	-0.0196
845.6531	0.0036
845.8183	-0.0255
845.9834	-0.0253
846.1485	-0.0015
846.3136	-0.0229
846.4787	-0.0077
846.6438	-0.0089
846.8088	0.0203
846.9738	-0.0028
847.1388	-0.0037
847.3038	0.0069
847.4687	-0.0134
847.6337	0.0299
847.7986	0.0592
847.9635	0.0001
848.1284	-0.0089
848.2932	0.018
848.458	0.0102
848.6228	0.0087
848.7876	-0.065
848.9524	0.0448
849.1172	-0.0509
849.2819	0.0075
849.4466	0.0027
849.6113	0.023
849.7759	-0.012
849.9406	0.0001
850.1052	0.0063
850.2698	0.0043
850.4344	0.0142
850.599	-0.0122
850.7635	0.0138
850.928	-0.004
851.0925	-0.0238
851.257	-0.0066
851.4215	-0.0444
851.5859	0.0033
851.7503	0.0105
851.9147	0.0008
852.0791	-0.0197
852.2434	0.0248
852.4078	0.0335
852.5721	0.0052
852.7364	-0.1016
852.9007	0.0364
853.0649	0.0248
853.2291	0.0047
853.3934	0.0126
853.5575	-0.0203
853.7217	-0.0361
853.8859	0.0112
854.05	0.0324
854.2141	-0.0344
854.3782	0.0444
854.5423	-0.0328
854.7063	0.0158
854.8703	0.0268
855.0343	-0.0117
855.1983	0.0009
855.3623	0.0019
855.5262	0.0146
855.6901	0.0105
855.854	-0.0294
856.0179	0.0174
856.1818	-0.0016
856.3456	-0.0426
856.5094	-0.0616
856.6732	-0.0495
856.837	-0.0716
857.0008	-0.0414
857.1645	-0.0065
857.3282	-0.0297
857.4919	-0.0544
857.6556	0.049
857.8192	-0.024
857.9828	0.0669
858.1465	0.0239
858.31	0.038
858.4736	-0.025
858.6372	-0.0652
858.8007	-0.0363
858.9642	-0.0557
859.1277	-0.0107
859.2911	0.0108
859.4546	-0.0595
859.618	-0.0466
859.7814	0.0331
859.9448	-0.1046
860.1081	-0.1049
860.2715	-0.005
860.4348	-0.0573
860.5981	-0.0348
860.7614	-0.0155
860.9246	-0.0218
861.0879	-0.0061
861.2511	-0.0369
861.4143	-0.0525
861.5774	-0.0536
861.7406	-0.0282
861.9037	-0.0914
862.0668	-0.08
862.2299	-0.0613
862.393	-0.0375
862.556	0.0386
862.7191	-0.1174
862.8821	0.0647
863.0451	-0.0084
863.208	-0.0831
863.371	0.0329
863.5339	0.027
863.6968	-0.263
863.8597	0.017
864.0225	-0.1202
864.1854	-0.0331
864.3482	-0.1635
864.511	-0.164
864.6737	0.0337
864.8365	0.0446
864.9992	-0.022
865.1619	-0.0732
865.3246	-0.1025
865.4873	0.1389
865.65	-0.0073
865.8126	-0.0429
865.9752	-0.1767
866.1378	-0.0236
866.3004	0.0346
866.4629	-0.2378
866.6254	0.0641
866.7879	0.0122
866.9504	-0.2396
867.1129	-0.0028
867.2753	0.1045
867.4377	-0.0412
867.6001	-0.3319
867.7625	-0.0901
867.9249	-0.1079
868.0872	-0.0874
868.2495	-0.1699
868.4118	-0.0771
868.5741	-0.1752
868.7363	0.2426
868.8986	0.024
869.0608	-0.2065
869.223	-0.1368
869.3851	-0.0538
869.5473	-0.1457
869.7094	-0.1832
869.8715	0.0833
870.0336	-0.0538
870.1957	-0.0046
870.3577	-0.05
870.5197	-0.2423
870.6817	-0.3062
870.8437	-0.219
871.0057	-0.2796
871.1676	-0.0253
871.3295	-0.4938
871.4914	0.0047
871.6533	0.0849
871.8151	-0.1306
871.977	0.1854
872.1388	-0.0715
872.3006	-0.3679
872.4623	-0.1426
872.6241	-0.0384
872.7858	0.2238
872.9475	-0.2572
873.1092	-0.1222
873.2709	-0.1626
873.4325	-0.3214
873.5941	-0.2254
873.7557	0.0474
873.9173	-0.0297
874.0789	-0.2322
874.2404	-0.0923
874.4019	-0.283
874.5634	-0.0875
874.7249	-0.2205
874.8863	-0.2237
875.0478	0.0928
875.2092	-0.1409
875.3706	-0.1083
875.5319	-0.1772
875.6933	-0.0583
875.8546	0.262
876.0159	-0.0581
876.1772	-0.4257
876.3385	0.695
876.4997	-0.1109
876.6609	-0.1453
876.8221	0.1378
876.9833	-0.0964
877.1445	-0.0107
877.3056	-0.1407
877.4667	-0.5943
877.6278	0.0963
877.7889	0.2539
877.9499	-0.6065
878.111	-0.3371
878.272	0.0641
878.433	0.3669
878.5939	0.2345
878.7549	-0.4585
878.9158	-0.0852
879.0767	0.1114
879.2376	0.062
879.3984	0.3056
879.5593	-0.3187
879.7201	-0.0029
879.8809	-0.1962
880.0417	0.1294
880.2024	-0.0581
880.3632	-0.25
880.5239	-0
880.6846	-0.4095
880.8452	-0.0852
881.0059	0.2357
881.1665	-0
881.3271	-0.3416
881.4877	0.0175
881.6483	-0
881.8088	-0.1817
881.9693	0.0378
882.1298	0.0378
882.2903	0.0378
