Data from MonoPyChalIsomerACN10uM450nmA_Absorbance_13-11-23-091.txt Node
Date: Tue Jul 09 13:11:23 BST 2024
User: LASERRRRR
Spectrometer: FLMT03099
Trigger mode: 0
Integration Time (sec): 2.000000E-1
Scans to average: 1
Electric dark correction enabled: true
Nonlinearity correction enabled: false
Boxcar width: 0
XAxis mode: Wavelengths
Number of Pixels in Spectrum: 3648
>>>>>Begin Spectral Data<<<<<
179.3399	0.1614
179.5586	0.1614
179.7771	0.1614
179.9957	0.2897
180.2143	-0.3755
180.4329	0.0422
180.6514	-0
180.8699	-0
181.0885	-0
181.307	-0
181.5255	-0.2303
181.744	-0
181.9625	-0.1337
182.181	-0
182.3994	-0.1781
182.6179	-0.2088
182.8363	-0
183.0547	0.2698
183.2732	0.1114
183.4916	0.1036
183.71	0.1371
183.9284	0.1365
184.1467	0.0222
184.3651	-0.0026
184.5835	0.1623
184.8018	-0.072
185.0201	0.168
185.2385	0.223
185.4568	0.0049
185.6751	0.2133
185.8934	-0.0691
186.1117	0.0313
186.3299	-0.0811
186.5482	0.0252
186.7664	0.0997
186.9847	0.1231
187.2029	0.2083
187.4211	0.0253
187.6393	0.0226
187.8575	0.1326
188.0757	-0.0007
188.2939	0.112
188.512	0.0144
188.7302	0.0645
188.9483	0.1434
189.1665	0.0643
189.3846	0.2411
189.6027	0.2322
189.8208	0.1088
190.0389	0.3447
190.257	0.2101
190.475	0.2501
190.6931	0.1573
190.9111	0.401
191.1292	0.3455
191.3472	0.366
191.5652	0.5726
191.7832	0.352
192.0012	0.2977
192.2192	0.5199
192.4371	0.5623
192.6551	0.4456
192.873	0.5139
193.091	0.5416
193.3089	0.5483
193.5268	0.6617
193.7447	0.4705
193.9626	0.5322
194.1805	0.6986
194.3984	0.7095
194.6162	0.5795
194.8341	0.6596
195.0519	0.6893
195.2697	0.5885
195.4875	0.5867
195.7054	0.7539
195.9231	0.607
196.1409	0.7018
196.3587	0.5443
196.5765	0.649
196.7942	0.7395
197.012	0.742
197.2297	0.7623
197.4474	0.7959
197.6651	0.648
197.8828	0.8376
198.1005	0.7042
198.3182	0.7257
198.5358	0.7782
198.7535	0.6891
198.9711	0.945
199.1888	0.7026
199.4064	0.856
199.624	0.7029
199.8416	0.7995
200.0592	0.7706
200.2767	0.8399
200.4943	0.818
200.7119	0.8127
200.9294	0.8447
201.1469	0.8369
201.3645	0.8148
201.582	0.9397
201.7995	0.7656
202.017	0.8918
202.2344	0.8109
202.4519	1.0546
202.6694	0.8524
202.8868	0.9522
203.1042	1.0536
203.3217	0.9804
203.5391	0.957
203.7565	0.8775
203.9739	0.8823
204.1913	0.8327
204.4086	0.97
204.626	1.046
204.8433	0.8851
205.0607	0.8883
205.278	0.929
205.4953	1.0658
205.7126	0.9232
205.9299	1.1162
206.1472	0.9686
206.3644	0.9274
206.5817	1.0519
206.7989	1.1381
207.0162	1.0666
207.2334	0.9673
207.4506	1.0321
207.6678	1.0424
207.885	1.1688
208.1022	1.0621
208.3194	1.1611
208.5365	1.0317
208.7537	1.0072
208.9708	1.0189
209.1879	1.1314
209.405	1.0674
209.6222	1.1236
209.8392	1.0863
210.0563	1.0465
210.2734	1.0325
210.4905	1.1173
210.7075	1.0039
210.9245	0.9826
211.1416	1.1415
211.3586	1.2624
211.5756	1.1483
211.7926	1.0619
212.0096	1.0659
212.2265	1.1046
212.4435	1.0429
212.6604	1.0542
212.8774	1.147
213.0943	1.0407
213.3112	0.9658
213.5281	1.0909
213.745	0.9948
213.9619	0.934
214.1788	0.9973
214.3956	0.9351
214.6125	0.9504
214.8293	0.8473
215.0461	0.8677
215.2629	0.8752
215.4798	0.903
215.6965	0.8447
215.9133	0.9097
216.1301	0.7989
216.3469	0.7905
216.5636	0.798
216.7803	0.8027
216.9971	0.7582
217.2138	0.7372
217.4305	0.6966
217.6472	0.7066
217.8639	0.6591
218.0805	0.6581
218.2972	0.5795
218.5138	0.5537
218.7305	0.4965
218.9471	0.4869
219.1637	0.4554
219.3803	0.4408
219.5969	0.4065
219.8135	0.3644
220.0301	0.3471
220.2466	0.3773
220.4632	0.337
220.6797	0.3232
220.8962	0.3112
221.1127	0.2973
221.3292	0.3268
221.5457	0.2866
221.7622	0.2981
221.9787	0.2903
222.1951	0.2898
222.4116	0.2757
222.628	0.2762
222.8444	0.2787
223.0608	0.2683
223.2772	0.2678
223.4936	0.2597
223.71	0.2595
223.9264	0.2789
224.1427	0.2766
224.3591	0.2715
224.5754	0.2781
224.7917	0.2779
225.008	0.2725
225.2243	0.2832
225.4406	0.2864
225.6569	0.2756
225.8732	0.2883
226.0894	0.272
226.3057	0.2922
226.5219	0.2902
226.7381	0.2938
226.9543	0.2976
227.1705	0.2951
227.3867	0.2967
227.6029	0.2908
227.8191	0.3016
228.0352	0.3116
228.2513	0.3204
228.4675	0.3175
228.6836	0.316
228.8997	0.3098
229.1158	0.3067
229.3319	0.3159
229.548	0.3316
229.764	0.3299
229.9801	0.3227
230.1961	0.3342
230.4121	0.329
230.6282	0.3531
230.8442	0.3383
231.0602	0.3371
231.2761	0.3607
231.4921	0.344
231.7081	0.354
231.924	0.3619
232.14	0.3627
232.3559	0.3654
232.5718	0.3544
232.7877	0.3692
233.0036	0.3802
233.2195	0.3635
233.4353	0.3663
233.6512	0.3521
233.867	0.3672
234.0829	0.378
234.2987	0.3847
234.5145	0.3731
234.7303	0.389
234.9461	0.3918
235.1619	0.3844
235.3776	0.3805
235.5934	0.4029
235.8091	0.3947
236.0249	0.3908
236.2406	0.3935
236.4563	0.3902
236.672	0.3913
236.8877	0.4078
237.1034	0.407
237.319	0.4022
237.5347	0.3921
237.7503	0.4044
237.966	0.4234
238.1816	0.4134
238.3972	0.4149
238.6128	0.4145
238.8284	0.416
239.0439	0.4126
239.2595	0.44
239.475	0.4182
239.6906	0.4209
239.9061	0.4286
240.1216	0.4227
240.3371	0.4171
240.5526	0.4364
240.7681	0.4019
240.9836	0.4164
241.199	0.4082
241.4145	0.4057
241.6299	0.4014
241.8453	0.3968
242.0607	0.3835
242.2761	0.401
242.4915	0.3968
242.7069	0.386
242.9223	0.3666
243.1376	0.3885
243.353	0.3597
243.5683	0.3665
243.7836	0.3472
243.9989	0.332
244.2142	0.3377
244.4295	0.3329
244.6448	0.3298
244.86	0.3206
245.0753	0.3095
245.2905	0.3082
245.5057	0.3049
245.721	0.3041
245.9362	0.2868
246.1514	0.2973
246.3665	0.283
246.5817	0.2823
246.7969	0.2826
247.012	0.2695
247.2271	0.2634
247.4423	0.2687
247.6574	0.2558
247.8725	0.2586
248.0876	0.2575
248.3026	0.2498
248.5177	0.2476
248.7328	0.2361
248.9478	0.2403
249.1628	0.2464
249.3779	0.2276
249.5929	0.2233
249.8079	0.2297
250.0228	0.2308
250.2378	0.2362
250.4528	0.2162
250.6677	0.2251
250.8827	0.2111
251.0976	0.2231
251.3125	0.2169
251.5274	0.2056
251.7423	0.211
251.9572	0.2108
252.172	0.2129
252.3869	0.2058
252.6017	0.2026
252.8166	0.2093
253.0314	0.2056
253.2462	0.2074
253.461	0.2049
253.6758	0.2008
253.8906	0.2039
254.1053	0.2009
254.3201	0.2018
254.5348	0.2015
254.7496	0.2065
254.9643	0.1998
255.179	0.2129
255.3937	0.1958
255.6083	0.1978
255.823	0.2009
256.0377	0.191
256.2523	0.1983
256.467	0.1967
256.6816	0.1929
256.8962	0.1925
257.1108	0.1972
257.3254	0.1895
257.54	0.1932
257.7545	0.2008
257.9691	0.2032
258.1836	0.1955
258.3981	0.1934
258.6127	0.195
258.8272	0.194
259.0417	0.1941
259.2561	0.1959
259.4706	0.1902
259.6851	0.1973
259.8995	0.1902
260.114	0.1959
260.3284	0.2021
260.5428	0.1976
260.7572	0.2071
260.9716	0.1967
261.186	0.1994
261.4003	0.2109
261.6147	0.1961
261.829	0.2061
262.0433	0.1937
262.2577	0.1945
262.472	0.2078
262.6863	0.1854
262.9005	0.1995
263.1148	0.1987
263.3291	0.1959
263.5433	0.1877
263.7576	0.1866
263.9718	0.1902
264.186	0.1895
264.4002	0.1877
264.6144	0.1872
264.8286	0.1819
265.0427	0.1846
265.2569	0.1798
265.471	0.176
265.6851	0.1802
265.8993	0.1837
266.1134	0.1762
266.3275	0.179
266.5415	0.1773
266.7556	0.1838
266.9697	0.1705
267.1837	0.1779
267.3978	0.1837
267.6118	0.1911
267.8258	0.1861
268.0398	0.1928
268.2538	0.1933
268.4677	0.1924
268.6817	0.1979
268.8957	0.1961
269.1096	0.1776
269.3235	0.1892
269.5374	0.1755
269.7514	0.1714
269.9652	0.176
270.1791	0.1615
270.393	0.1537
270.6068	0.1494
270.8207	0.1522
271.0345	0.1601
271.2483	0.1563
271.4622	0.1518
271.676	0.1485
271.8897	0.1441
272.1035	0.1405
272.3173	0.1469
272.531	0.1498
272.7448	0.1444
272.9585	0.1499
273.1722	0.1375
273.3859	0.145
273.5996	0.1453
273.8133	0.1457
274.0269	0.145
274.2406	0.142
274.4542	0.1441
274.6679	0.1367
274.8815	0.1478
275.0951	0.1435
275.3087	0.1378
275.5223	0.1435
275.7358	0.1421
275.9494	0.1453
276.1629	0.1395
276.3765	0.1431
276.59	0.1425
276.8035	0.1517
277.017	0.143
277.2305	0.1452
277.444	0.141
277.6574	0.1451
277.8709	0.152
278.0843	0.1526
278.2978	0.1483
278.5112	0.1506
278.7246	0.1515
278.938	0.1449
279.1513	0.1486
279.3647	0.1465
279.5781	0.1452
279.7914	0.1461
280.0047	0.147
280.2181	0.1485
280.4314	0.1554
280.6447	0.1477
280.8579	0.151
281.0712	0.1527
281.2845	0.1471
281.4977	0.1456
281.711	0.1568
281.9242	0.1497
282.1374	0.1534
282.3506	0.1455
282.5638	0.1587
282.7769	0.1615
282.9901	0.1529
283.2033	0.1549
283.4164	0.1487
283.6295	0.1557
283.8426	0.1586
284.0557	0.1543
284.2688	0.152
284.4819	0.1517
284.695	0.1552
284.908	0.1612
285.1211	0.1649
285.3341	0.1536
285.5471	0.1598
285.7601	0.1516
285.9731	0.1623
286.1861	0.1619
286.3991	0.154
286.612	0.1655
286.825	0.1604
287.0379	0.1558
287.2508	0.1537
287.4637	0.1611
287.6766	0.1557
287.8895	0.1593
288.1024	0.1534
288.3152	0.16
288.5281	0.1615
288.7409	0.1581
288.9538	0.1629
289.1666	0.1636
289.3794	0.1579
289.5922	0.1606
289.8049	0.1566
290.0177	0.1671
290.2304	0.1662
290.4432	0.1576
290.6559	0.1622
290.8686	0.1606
291.0813	0.1641
291.294	0.1628
291.5067	0.1597
291.7194	0.165
291.932	0.1649
292.1447	0.1666
292.3573	0.1568
292.5699	0.1621
292.7825	0.1678
292.9951	0.1633
293.2077	0.1534
293.4203	0.1647
293.6328	0.1705
293.8454	0.1607
294.0579	0.1648
294.2704	0.1589
294.4829	0.1631
294.6954	0.1623
294.9079	0.1631
295.1204	0.1582
295.3328	0.1627
295.5453	0.1534
295.7577	0.1577
295.9701	0.1554
296.1825	0.1603
296.3949	0.1539
296.6073	0.164
296.8197	0.1561
297.0321	0.162
297.2444	0.1561
297.4567	0.1522
297.6691	0.1632
297.8814	0.1555
298.0937	0.1561
298.306	0.1629
298.5182	0.1576
298.7305	0.1582
298.9428	0.1558
299.155	0.1585
299.3672	0.1601
299.5794	0.153
299.7916	0.1679
300.0038	0.1612
300.216	0.1666
300.4282	0.1525
300.6403	0.158
300.8525	0.1643
301.0646	0.1549
301.2767	0.1595
301.4888	0.1545
301.7009	0.1646
301.913	0.1561
302.125	0.1525
302.3371	0.1635
302.5491	0.1574
302.7612	0.1577
302.9732	0.1675
303.1852	0.1521
303.3972	0.1608
303.6092	0.1581
303.8211	0.1564
304.0331	0.152
304.245	0.1516
304.457	0.1592
304.6689	0.1513
304.8808	0.1493
305.0927	0.1569
305.3046	0.1531
305.5164	0.1493
305.7283	0.1486
305.9401	0.1456
306.152	0.1516
306.3638	0.154
306.5756	0.1416
306.7874	0.1411
306.9992	0.1424
307.2109	0.138
307.4227	0.1392
307.6344	0.1366
307.8462	0.1368
308.0579	0.1316
308.2696	0.1295
308.4813	0.1319
308.693	0.1306
308.9046	0.1275
309.1163	0.121
309.328	0.1199
309.5396	0.123
309.7512	0.1281
309.9628	0.1214
310.1744	0.1252
310.386	0.1107
310.5976	0.1173
310.8091	0.1208
311.0207	0.1224
311.2322	0.1117
311.4437	0.1194
311.6552	0.1132
311.8667	0.1138
312.0782	0.1158
312.2897	0.1039
312.5012	0.1088
312.7126	0.1009
312.924	0.0992
313.1355	0.1003
313.3469	0.1094
313.5583	0.1033
313.7696	0.1047
313.981	0.1014
314.1924	0.0988
314.4037	0.1062
314.6151	0.0925
314.8264	0.0943
315.0377	0.0995
315.249	0.1026
315.4603	0.1058
315.6716	0.1019
315.8828	0.1079
316.0941	0.1025
316.3053	0.0972
316.5165	0.0926
316.7277	0.0858
316.9389	0.103
317.1501	0.0915
317.3613	0.0941
317.5724	0.0946
317.7836	0.102
317.9947	0.095
318.2058	0.0954
318.417	0.0859
318.6281	0.097
318.8391	0.0932
319.0502	0.0934
319.2613	0.0931
319.4723	0.0989
319.6834	0.0928
319.8944	0.0962
320.1054	0.0989
320.3164	0.0966
320.5274	0.0958
320.7383	0.1004
320.9493	0.087
321.1602	0.1004
321.3712	0.0968
321.5821	0.0964
321.793	0.0874
322.0039	0.0978
322.2148	0.0983
322.4257	0.0919
322.6365	0.0954
322.8474	0.0991
323.0582	0.1066
323.269	0.0981
323.4798	0.0999
323.6906	0.101
323.9014	0.0983
324.1122	0.1009
324.3229	0.0992
324.5337	0.0917
324.7444	0.0984
324.9551	0.1051
325.1658	0.097
325.3765	0.0987
325.5872	0.0979
325.7979	0.0981
326.0085	0.1042
326.2192	0.099
326.4298	0.1089
326.6404	0.1039
326.851	0.0981
327.0616	0.0965
327.2722	0.1021
327.4828	0.1014
327.6933	0.0995
327.9039	0.099
328.1144	0.1041
328.3249	0.1033
328.5354	0.0993
328.7459	0.101
328.9564	0.1051
329.1669	0.1023
329.3773	0.1069
329.5878	0.1076
329.7982	0.1109
330.0086	0.0991
330.219	0.1071
330.4294	0.1022
330.6398	0.1074
330.8502	0.1081
331.0605	0.1059
331.2708	0.1083
331.4812	0.1055
331.6915	0.106
331.9018	0.1046
332.1121	0.1034
332.3224	0.0962
332.5326	0.1031
332.7429	0.1086
332.9531	0.103
333.1633	0.1122
333.3735	0.1049
333.5837	0.1007
333.7939	0.1125
334.0041	0.106
334.2143	0.1078
334.4244	0.1046
334.6346	0.0956
334.8447	0.1082
335.0548	0.1053
335.2649	0.0972
335.475	0.1001
335.685	0.1117
335.8951	0.1111
336.1051	0.1004
336.3152	0.1058
336.5252	0.1067
336.7352	0.1047
336.9452	0.1077
337.1552	0.1043
337.3652	0.1055
337.5751	0.1098
337.7851	0.1048
337.995	0.113
338.2049	0.1043
338.4148	0.109
338.6247	0.103
338.8346	0.1055
339.0445	0.1102
339.2543	0.1149
339.4642	0.1146
339.674	0.1123
339.8838	0.1013
340.0936	0.1124
340.3034	0.1188
340.5132	0.1165
340.7229	0.1219
340.9327	0.1098
341.1424	0.1165
341.3522	0.1123
341.5619	0.1179
341.7716	0.1289
341.9813	0.1204
342.1909	0.1201
342.4006	0.1206
342.6102	0.1103
342.8199	0.1169
343.0295	0.1164
343.2391	0.1242
343.4487	0.1196
343.6583	0.1186
343.8679	0.1207
344.0774	0.1244
344.287	0.1247
344.4965	0.1139
344.706	0.1259
344.9155	0.1305
345.125	0.1312
345.3345	0.1299
345.544	0.1144
345.7534	0.1275
345.9629	0.1239
346.1723	0.1368
346.3817	0.1316
346.5911	0.1347
346.8005	0.1225
347.0099	0.1221
347.2193	0.13
347.4286	0.1306
347.638	0.1371
347.8473	0.1236
348.0566	0.1337
348.2659	0.1303
348.4752	0.1297
348.6845	0.1348
348.8937	0.1421
349.103	0.1275
349.3122	0.1287
349.5214	0.1342
349.7306	0.1344
349.9398	0.1315
350.149	0.1377
350.3582	0.1335
350.5674	0.1464
350.7765	0.1368
350.9856	0.1392
351.1948	0.1399
351.4039	0.1434
351.613	0.1375
351.822	0.1498
352.0311	0.1395
352.2402	0.1511
352.4492	0.1394
352.6582	0.1438
352.8672	0.1455
353.0762	0.1553
353.2852	0.1503
353.4942	0.1502
353.7032	0.1415
353.9121	0.1574
354.1211	0.1486
354.33	0.1441
354.5389	0.1486
354.7478	0.1525
354.9567	0.1469
355.1655	0.1525
355.3744	0.1623
355.5833	0.1494
355.7921	0.1551
356.0009	0.1524
356.2097	0.1525
356.4185	0.1619
356.6273	0.1565
356.8361	0.1486
357.0448	0.1584
357.2536	0.1589
357.4623	0.1558
357.671	0.1543
357.8797	0.1665
358.0884	0.1686
358.2971	0.1643
358.5057	0.1629
358.7144	0.1592
358.923	0.174
359.1316	0.1708
359.3402	0.1807
359.5488	0.1727
359.7574	0.1713
359.966	0.1679
360.1746	0.1695
360.3831	0.1877
360.5916	0.1847
360.8002	0.1769
361.0087	0.1724
361.2172	0.1853
361.4256	0.1797
361.6341	0.1757
361.8426	0.1844
362.051	0.1693
362.2594	0.179
362.4678	0.1723
362.6762	0.1838
362.8846	0.1819
363.093	0.1849
363.3014	0.194
363.5097	0.1867
363.718	0.1888
363.9264	0.1879
364.1347	0.2024
364.343	0.1757
364.5513	0.1879
364.7595	0.1934
364.9678	0.1866
365.176	0.2
365.3842	0.1895
365.5925	0.1955
365.8007	0.1865
366.0089	0.1994
366.217	0.1959
366.4252	0.1999
366.6333	0.1894
366.8415	0.1995
367.0496	0.2098
367.2577	0.2018
367.4658	0.2062
367.6739	0.2074
367.882	0.1989
368.09	0.2044
368.2981	0.2204
368.5061	0.2035
368.7141	0.2077
368.9221	0.1956
369.1301	0.2123
369.3381	0.216
369.5461	0.2193
369.754	0.21
369.962	0.2109
370.1699	0.2178
370.3778	0.2085
370.5857	0.2061
370.7936	0.208
371.0015	0.2056
371.2093	0.2075
371.4172	0.2166
371.625	0.2101
371.8328	0.2183
372.0406	0.224
372.2484	0.2203
372.4562	0.2217
372.664	0.2193
372.8717	0.2228
373.0795	0.2096
373.2872	0.2213
373.4949	0.2137
373.7026	0.2153
373.9103	0.2174
374.118	0.2289
374.3256	0.2208
374.5333	0.2151
374.7409	0.2205
374.9485	0.2353
375.1561	0.2197
375.3637	0.2193
375.5713	0.2321
375.7789	0.2222
375.9864	0.2296
376.194	0.2376
376.4015	0.2365
376.609	0.2385
376.8165	0.2275
377.024	0.2225
377.2315	0.227
377.4389	0.2252
377.6464	0.2203
377.8538	0.2381
378.0612	0.2299
378.2686	0.2296
378.476	0.2373
378.6834	0.2364
378.8908	0.2438
379.0981	0.2443
379.3055	0.2521
379.5128	0.2321
379.7201	0.2423
379.9274	0.2413
380.1347	0.2455
380.342	0.2441
380.5492	0.2395
380.7565	0.2566
380.9637	0.2494
381.1709	0.2464
381.3781	0.2389
381.5853	0.2539
381.7925	0.2521
381.9997	0.2533
382.2068	0.2489
382.4139	0.2539
382.6211	0.2432
382.8282	0.2429
383.0353	0.2438
383.2424	0.2385
383.4494	0.2575
383.6565	0.2524
383.8635	0.2593
384.0706	0.2532
384.2776	0.2529
384.4846	0.2496
384.6916	0.2557
384.8986	0.2472
385.1055	0.25
385.3125	0.2577
385.5194	0.2533
385.7263	0.2633
385.9333	0.2496
386.1402	0.2555
386.347	0.262
386.5539	0.2417
386.7608	0.256
386.9676	0.2509
387.1744	0.2554
387.3813	0.2453
387.5881	0.2524
387.7948	0.2484
388.0016	0.2485
388.2084	0.2597
388.4151	0.2485
388.6219	0.2613
388.8286	0.2546
389.0353	0.2338
389.242	0.2465
389.4487	0.2364
389.6553	0.2356
389.862	0.229
390.0686	0.2468
390.2753	0.2421
390.4819	0.2387
390.6885	0.2489
390.8951	0.2437
391.1016	0.2411
391.3082	0.2427
391.5147	0.2339
391.7213	0.2304
391.9278	0.2306
392.1343	0.2363
392.3408	0.2169
392.5473	0.2378
392.7537	0.2395
392.9602	0.2235
393.1666	0.2341
393.373	0.225
393.5794	0.2248
393.7858	0.2247
393.9922	0.2226
394.1986	0.2306
394.4049	0.2382
394.6113	0.233
394.8176	0.2096
395.0239	0.2149
395.2302	0.2099
395.4365	0.2162
395.6428	0.2172
395.8491	0.2107
396.0553	0.2191
396.2615	0.218
396.4678	0.2337
396.674	0.2233
396.8802	0.2102
397.0863	0.2176
397.2925	0.215
397.4987	0.2105
397.7048	0.2143
397.9109	0.2117
398.117	0.2102
398.3231	0.2096
398.5292	0.2061
398.7353	0.2111
398.9413	0.2104
399.1474	0.207
399.3534	0.2049
399.5594	0.2012
399.7654	0.2039
399.9714	0.2078
400.1774	0.2103
400.3833	0.2096
400.5893	0.2058
400.7952	0.2044
401.0011	0.2037
401.207	0.2026
401.4129	0.1926
401.6188	0.1929
401.8247	0.2024
402.0305	0.2206
402.2364	0.2121
402.4422	0.203
402.648	0.2118
402.8538	0.2033
403.0596	0.1969
403.2654	0.1914
403.4711	0.1966
403.6768	0.2181
403.8826	0.2188
404.0883	0.2095
404.294	0.2174
404.4997	0.209
404.7054	0.2022
404.911	0.1972
405.1167	0.2137
405.3223	0.2169
405.5279	0.205
405.7335	0.2067
405.9391	0.203
406.1447	0.2091
406.3502	0.2069
406.5558	0.207
406.7613	0.2005
406.9668	0.2082
407.1724	0.2002
407.3778	0.2123
407.5833	0.2162
407.7888	0.2202
407.9942	0.21
408.1997	0.2114
408.4051	0.2063
408.6105	0.2006
408.8159	0.2191
409.0213	0.2065
409.2267	0.2083
409.432	0.2095
409.6374	0.2071
409.8427	0.217
410.048	0.2056
410.2533	0.2053
410.4586	0.2139
410.6639	0.2011
410.8691	0.1996
411.0744	0.2079
411.2796	0.201
411.4848	0.1978
411.69	0.2183
411.8952	0.1945
412.1004	0.2044
412.3056	0.2005
412.5107	0.2054
412.7158	0.203
412.921	0.1982
413.1261	0.1931
413.3312	0.208
413.5362	0.194
413.7413	0.2059
413.9464	0.2001
414.1514	0.1969
414.3564	0.2089
414.5614	0.2002
414.7664	0.202
414.9714	0.2024
415.1764	0.2026
415.3813	0.2016
415.5863	0.2007
415.7912	0.2039
415.9961	0.1956
416.201	0.1988
416.4059	0.1972
416.6108	0.1953
416.8156	0.2082
417.0205	0.1948
417.2253	0.1909
417.4301	0.1926
417.6349	0.2135
417.8397	0.2
418.0445	0.1936
418.2492	0.1936
418.454	0.208
418.6587	0.2046
418.8634	0.1935
419.0681	0.1989
419.2728	0.2009
419.4775	0.1921
419.6822	0.1875
419.8868	0.188
420.0915	0.1998
420.2961	0.1864
420.5007	0.1927
420.7053	0.1845
420.9099	0.1787
421.1144	0.1998
421.319	0.1743
421.5235	0.1944
421.728	0.1832
421.9325	0.1829
422.137	0.1881
422.3415	0.1934
422.546	0.1925
422.7504	0.1728
422.9549	0.1815
423.1593	0.1869
423.3637	0.1805
423.5681	0.1956
423.7725	0.1827
423.9769	0.1707
424.1812	0.1713
424.3856	0.1762
424.5899	0.1826
424.7942	0.1728
424.9985	0.1735
425.2028	0.1667
425.4071	0.1757
425.6113	0.1775
425.8156	0.1642
426.0198	0.1735
426.224	0.1615
426.4282	0.1481
426.6324	0.1635
426.8366	0.1687
427.0407	0.1644
427.2449	0.1763
427.449	0.1674
427.6531	0.1562
427.8572	0.1501
428.0613	0.1546
428.2654	0.1576
428.4694	0.1626
428.6735	0.1692
428.8775	0.1409
429.0815	0.1571
429.2855	0.1582
429.4895	0.1472
429.6935	0.1472
429.8975	0.1399
430.1014	0.1421
430.3053	0.1353
430.5093	0.1448
430.7132	0.1492
430.9171	0.141
431.1209	0.1403
431.3248	0.134
431.5286	0.1379
431.7325	0.1369
431.9363	0.1364
432.1401	0.1369
432.3439	0.133
432.5477	0.1342
432.7514	0.1298
432.9552	0.1217
433.1589	0.117
433.3627	0.1214
433.5664	0.1207
433.7701	0.1245
433.9737	0.1127
434.1774	0.1118
434.3811	0.102
434.5847	0.1189
434.7883	0.1061
434.9919	0.1031
435.1955	0.0971
435.3991	0.0903
435.6027	0.0879
435.8062	0.1135
436.0098	0.1011
436.2133	0.103
436.4168	0.098
436.6203	0.1071
436.8238	0.0911
437.0272	0.095
437.2307	0.0875
437.4341	0.0928
437.6375	0.088
437.841	0.0818
438.0443	0.0934
438.2477	0.0885
438.4511	0.0815
438.6545	0.0844
438.8578	0.0881
439.0611	0.087
439.2644	0.0933
439.4677	0.0794
439.671	0.0709
439.8743	0.0897
440.0775	0.0735
440.2808	0.0545
440.484	0.081
440.6872	0.0611
440.8904	0.0714
441.0936	0.0768
441.2967	0.0718
441.4999	0.0612
441.703	0.0545
441.9062	0.0657
442.1093	0.0709
442.3124	0.0602
442.5155	0.0557
442.7185	0.0525
442.9216	0.0455
443.1246	0.0582
443.3276	0.064
443.5307	0.0512
443.7337	0.0598
443.9366	0.0481
444.1396	0.0472
444.3426	0.0484
444.5455	0.0404
444.7484	0.0427
444.9513	0.0558
445.1542	0.0534
445.3571	0.0409
445.56	0.0441
445.7628	0.0401
445.9657	0.0456
446.1685	0.0477
446.3713	0.0376
446.5741	0.0498
446.7769	0.0455
446.9797	0.0278
447.1824	0.0293
447.3852	0.0385
447.5879	0.0438
447.7906	0.0381
447.9933	0.0334
448.196	0.0391
448.3986	0.0288
448.6013	0.0283
448.8039	0.0207
449.0066	0.0368
449.2092	0.0332
449.4118	0.0223
449.6143	0.0193
449.8169	0.0192
450.0195	0.0242
450.222	0.0157
450.4245	0.0302
450.627	0.0194
450.8295	0.0246
451.032	0.0275
451.2345	0.0109
451.4369	0.0355
451.6394	0.016
451.8418	0.0175
452.0442	0.0156
452.2466	0.0229
452.449	0.011
452.6513	0.0226
452.8537	0.0185
453.056	0.0139
453.2583	0.0121
453.4607	0.0194
453.663	0.0134
453.8652	0.005
454.0675	0.0216
454.2697	0.0159
454.472	0.0204
454.6742	0.0204
454.8764	0.0168
455.0786	0.0163
455.2808	0.0138
455.4829	0.0186
455.6851	0.0158
455.8872	0.0092
456.0893	0.0041
456.2915	0.0113
456.4935	0.0152
456.6956	0.0148
456.8977	0.0064
457.0997	-0.0003
457.3018	0.0099
457.5038	0.0061
457.7058	-0.0021
457.9078	0.0067
458.1098	0.0023
458.3117	0.0052
458.5137	0.0087
458.7156	0.0128
458.9175	-0.0032
459.1194	0.0057
459.3213	0.0045
459.5232	0.0019
459.725	0.0024
459.9269	0.005
460.1287	0.0056
460.3305	0.0008
460.5323	0.0099
460.7341	0.0055
460.9359	0.0014
461.1376	0.0048
461.3394	-0.0006
461.5411	0.009
461.7428	0.0041
461.9445	-0.0016
462.1462	0.0021
462.3479	-0.0015
462.5495	0.0086
462.7512	-0.0005
462.9528	-0.0003
463.1544	-0.0043
463.356	0.0046
463.5576	0.0035
463.7592	-0.0082
463.9607	0.0074
464.1623	0.0056
464.3638	0.0135
464.5653	-0.0004
464.7668	0.0067
464.9683	-0.0066
465.1697	-0.0004
465.3712	0.0024
465.5726	-0.0018
465.7741	-0.0053
465.9755	-0.0046
466.1769	-0.0173
466.3782	-0.0051
466.5796	-0.0105
466.7809	-0.0049
466.9823	-0.0021
467.1836	-0.0041
467.3849	0.0046
467.5862	-0.0074
467.7875	-0.0086
467.9887	0.0005
468.19	-0.0111
468.3912	-0.0007
468.5924	-0.003
468.7936	-0.0139
468.9948	0.0068
469.196	0.0019
469.3972	0.0046
469.5983	0.0136
469.7994	-0.0061
470.0006	-0.0059
470.2017	0.0021
470.4027	-0.01
470.6038	0.0028
470.8049	-0.0055
471.0059	-0.0051
471.2069	0.0085
471.408	0.0021
471.6089	-0.0075
471.8099	-0.0053
472.0109	-0.0054
472.2119	-0.0146
472.4128	-0.0021
472.6137	-0.0078
472.8146	-0.0134
473.0155	-0.0077
473.2164	-0.0179
473.4173	-0.0096
473.6181	-0.0037
473.819	-0.0028
474.0198	-0.0044
474.2206	-0.0029
474.4214	-0.0077
474.6222	-0.0146
474.8229	-0.0101
475.0237	0.0003
475.2244	-0.0006
475.4251	0.0002
475.6258	-0.0017
475.8265	-0.007
476.0272	-0.0068
476.2278	-0.0022
476.4285	-0.0018
476.6291	-0.0003
476.8297	-0.0113
477.0303	-0.0063
477.2309	-0.0008
477.4315	0.0038
477.632	-0.007
477.8326	-0.0087
478.0331	-0.0115
478.2336	0.0011
478.4341	-0.004
478.6346	-0.0041
478.8351	-0.0142
479.0355	-0.0074
479.236	-0.0026
479.4364	-0.0063
479.6368	0.009
479.8372	-0.0061
480.0376	-0.0001
480.2379	-0.0088
480.4383	-0.0069
480.6386	-0.012
480.8389	-0.0045
481.0392	-0.0139
481.2395	-0.0108
481.4398	-0.0037
481.6401	-0.0082
481.8403	-0.0014
482.0405	-0.0089
482.2408	-0.0027
482.441	0.0011
482.6411	-0.0002
482.8413	-0.0061
483.0415	-0.0123
483.2416	0.0008
483.4417	-0.0072
483.6419	-0.0064
483.8419	-0.0078
484.042	-0.0031
484.2421	-0.0059
484.4422	-0.0073
484.6422	-0.0103
484.8422	-0.0106
485.0422	-0.0012
485.2422	-0.0058
485.4422	-0.0012
485.6422	-0.002
485.8421	-0.0038
486.042	-0.0022
486.242	-0.0078
486.4419	-0.0011
486.6417	-0.0014
486.8416	0.0032
487.0415	-0.0046
487.2413	-0.0075
487.4411	-0.0002
487.641	-0.0031
487.8408	-0.0089
488.0405	-0.0043
488.2403	-0.0067
488.4401	-0.0122
488.6398	-0.0074
488.8395	-0.0124
489.0392	-0.0125
489.2389	-0.0045
489.4386	-0.0132
489.6383	-0.0084
489.8379	-0.01
490.0376	0.0004
490.2372	-0.0053
490.4368	-0.0083
490.6364	-0.005
490.836	-0.0132
491.0355	-0.0075
491.2351	-0.0062
491.4346	-0.0054
491.6341	-0.007
491.8336	-0.0062
492.0331	-0.0126
492.2326	-0.0072
492.432	-0.0068
492.6315	-0.0009
492.8309	-0.0044
493.0303	-0.0051
493.2297	0.0009
493.4291	-0.0147
493.6284	-0.0041
493.8278	-0.0052
494.0271	0.0033
494.2264	-0.0018
494.4257	0.0003
494.625	0.0014
494.8243	-0.0054
495.0236	-0.0146
495.2228	-0.0059
495.422	0.0004
495.6213	-0.0071
495.8205	-0.0024
496.0196	-0.0052
496.2188	-0.0072
496.418	-0.0006
496.6171	-0.0041
496.8162	-0.0051
497.0153	0.0002
497.2144	-0.0031
497.4135	0.0001
497.6126	-0.006
497.8116	0.0011
498.0107	-0.0046
498.2097	-0.011
498.4087	-0.0056
498.6077	-0.0093
498.8067	-0.0129
499.0056	-0.0006
499.2046	0.0005
499.4035	-0.0095
499.6024	-0.0044
499.8013	0.0092
500.0002	-0.0091
500.199	-0.0026
500.3979	0.0005
500.5967	-0.0096
500.7956	-0.0109
500.9944	-0.0026
501.1932	-0.0061
501.3919	-0.0079
501.5907	-0.0037
501.7895	-0.0029
501.9882	-0.0056
502.1869	-0.0096
502.3856	-0.0083
502.5843	-0.0117
502.783	-0.0081
502.9816	-0.0088
503.1803	-0.0065
503.3789	-0.0089
503.5775	-0.0008
503.7761	0.0039
503.9747	-0.0105
504.1732	-0.0098
504.3718	-0.0091
504.5703	-0.0023
504.7689	-0.0063
504.9674	-0.0024
505.1658	-0.0013
505.3643	-0.0026
505.5628	0.0013
505.7612	-0.0174
505.9597	-0.005
506.1581	-0.005
506.3565	-0.0061
506.5549	-0.0029
506.7532	-0.0063
506.9516	-0.0036
507.1499	-0.0035
507.3482	-0.0049
507.5465	-0.0057
507.7448	-0.0041
507.9431	-0.0059
508.1414	-0.0057
508.3396	-0.0026
508.5379	-0.007
508.7361	0.0004
508.9343	-0.0109
509.1325	-0.0079
509.3306	-0.0018
509.5288	0.005
509.7269	-0.0103
509.9251	-0.0054
510.1232	0.001
510.3213	-0.0087
510.5193	-0.0051
510.7174	0.0005
510.9154	-0.0067
511.1135	-0.0076
511.3115	-0.0093
511.5095	-0.0135
511.7075	-0.0066
511.9055	-0.006
512.1034	-0.0075
512.3014	-0.0034
512.4993	-0.0117
512.6972	-0.0018
512.8951	-0.0091
513.093	-0.0104
513.2908	-0.0019
513.4887	-0.0068
513.6865	-0.0056
513.8844	-0.0066
514.0822	-0.0043
514.2799	-0.0081
514.4777	-0.0066
514.6755	0.0002
514.8732	-0.0108
515.0709	-0.0088
515.2687	-0.0082
515.4664	-0.0045
515.664	-0.0092
515.8617	-0.0041
516.0594	-0.0065
516.257	-0.0001
516.4546	-0.0093
516.6522	-0.0079
516.8498	-0.011
517.0474	-0.0043
517.2449	-0.0052
517.4425	-0.0029
517.64	-0.0075
517.8375	-0.0099
518.035	-0.0017
518.2325	-0.0091
518.43	0.0023
518.6274	-0.009
518.8249	-0.0081
519.0223	-0.007
519.2197	-0.0043
519.4171	-0.0018
519.6145	-0.0022
519.8118	-0.0069
520.0092	-0.0011
520.2065	-0.0172
520.4038	-0.0012
520.6011	-0.0081
520.7984	-0.0052
520.9956	-0.0132
521.1929	-0.011
521.3901	-0.009
521.5874	-0.0017
521.7846	0.0015
521.9818	-0.0008
522.1789	-0.0078
522.3761	-0.0067
522.5732	-0.0059
522.7704	-0.0067
522.9675	-0.0024
523.1646	-0.0057
523.3617	-0.0024
523.5587	-0.0106
523.7558	0.0001
523.9528	-0.0028
524.1498	-0.0043
524.3468	-0.0031
524.5438	-0.0036
524.7408	-0.0157
524.9378	-0.0087
525.1347	-0.0013
525.3316	-0.0144
525.5285	-0.0039
525.7254	-0.007
525.9223	-0.0061
526.1192	-0.0013
526.316	-0.0001
526.5129	-0.0008
526.7097	-0.0117
526.9065	-0.0048
527.1033	0.0005
527.3	-0.0079
527.4968	-0.009
527.6935	0.0006
527.8903	-0.004
528.087	-0.0064
528.2837	-0.0067
528.4804	-0.0045
528.677	-0.0075
528.8737	-0.0094
529.0703	-0.0061
529.2669	0.0002
529.4635	-0.0022
529.6601	-0.0066
529.8567	-0.0028
530.0532	0.0026
530.2498	-0.0126
530.4463	-0.0034
530.6428	-0.0002
530.8393	-0.0022
531.0358	-0.0112
531.2322	-0.0067
531.4287	-0.0151
531.6251	0.0017
531.8215	-0.0056
532.0179	-0.0124
532.2143	0.0015
532.4107	-0.0005
532.607	-0.004
532.8034	-0.0107
532.9997	-0.0016
533.196	-0.0049
533.3923	-0.0027
533.5886	0.0001
533.7848	-0.0029
533.9811	0.0033
534.1773	-0.0104
534.3735	0.0023
534.5697	-0.0054
534.7659	-0.0038
534.9621	0.0011
535.1582	-0.0131
535.3544	-0.0115
535.5505	-0.0041
535.7466	-0.0018
535.9427	-0.0088
536.1387	0.0011
536.3348	0.0041
536.5308	-0.0056
536.7269	-0.0036
536.9229	-0.0042
537.1189	-0.005
537.3148	-0.0014
537.5108	0.0019
537.7068	-0.0007
537.9027	-0.0062
538.0986	-0.0057
538.2945	-0.0067
538.4904	-0.0103
538.6863	-0.0118
538.8821	-0.0097
539.078	-0.0114
539.2738	-0.0092
539.4696	-0.0059
539.6654	-0.0011
539.8611	0.0018
540.0569	-0.0035
540.2526	-0.0078
540.4484	0.0067
540.6441	0.001
540.8398	-0.0078
541.0355	-0.0025
541.2311	-0.004
541.4268	0.0039
541.6224	-0.0032
541.818	-0.0025
542.0136	-0.0053
542.2092	-0.0151
542.4048	-0.0063
542.6003	-0.0079
542.7959	0.0019
542.9914	-0.0084
543.1869	-0.0034
543.3824	-0.0109
543.5779	-0.0084
543.7734	-0.0061
543.9688	-0.0102
544.1642	-0.0089
544.3596	-0.0051
544.555	-0.0044
544.7504	-0.0052
544.9458	-0.0032
545.1411	0.0044
545.3365	-0.0009
545.5318	-0.0027
545.7271	0.0024
545.9224	0.0018
546.1177	-0.0096
546.3129	-0.0022
546.5081	-0.0034
546.7034	-0.0026
546.8986	-0.0028
547.0938	-0.0068
547.289	-0.0057
547.4841	-0.0115
547.6793	-0.0065
547.8744	-0.0024
548.0695	-0.0015
548.2646	-0.0034
548.4597	-0.0027
548.6548	-0.0002
548.8498	-0.0092
549.0448	0.0036
549.2399	-0.0031
549.4349	-0.0032
549.6298	-0.0065
549.8248	-0.0065
550.0198	-0.0052
550.2147	-0.0001
550.4096	-0.0063
550.6045	-0.0122
550.7994	0.0002
550.9943	-0.0051
551.1892	-0.0026
551.384	-0.0118
551.5788	-0.0147
551.7737	-0.0061
551.9685	-0.0063
552.1632	-0.0049
552.358	-0.007
552.5528	-0.008
552.7475	-0.0089
552.9422	-0.0132
553.1369	-0.0085
553.3316	-0.0026
553.5263	-0.0042
553.7209	-0.0071
553.9156	-0.006
554.1102	-0.0049
554.3048	-0.0101
554.4994	-0.0053
554.694	0
554.8885	-0.0044
555.0831	-0.0023
555.2776	-0.003
555.4721	-0.0043
555.6666	-0.0085
555.8611	-0.0044
556.0555	-0.0073
556.25	-0.0018
556.4444	-0.0047
556.6388	-0.0108
556.8332	-0.0122
557.0276	-0.006
557.222	-0.0084
557.4163	0.0029
557.6107	-0.0022
557.805	-0.0031
557.9993	-0.0056
558.1936	-0.0051
558.3879	-0.0019
558.5821	-0.0039
558.7764	-0.0109
558.9706	0.001
559.1648	-0.0015
559.359	-0.0141
559.5532	-0.0115
559.7473	-0.0085
559.9415	-0.0078
560.1356	-0.0034
560.3297	-0.0094
560.5238	-0.0084
560.7179	-0.0045
560.9119	0.003
561.106	-0.0034
561.3	-0.0028
561.494	-0.0091
561.688	-0.0039
561.882	-0.0087
562.076	-0.004
562.2699	-0.004
562.4639	-0.0016
562.6578	-0.007
562.8517	-0.0041
563.0456	-0.0042
563.2395	-0.0021
563.4333	-0.0017
563.6272	-0.0046
563.821	-0.0034
564.0148	0.0001
564.2086	-0.0037
564.4024	-0.0009
564.5961	-0.002
564.7899	0.0009
564.9836	-0.0005
565.1773	-0.0034
565.371	-0.0017
565.5647	-0.0023
565.7584	0.0035
565.952	0.0029
566.1456	-0.0019
566.3393	-0.0039
566.5329	-0.0004
566.7264	0.0001
566.92	-0.0008
567.1136	-0.0027
567.3071	-0.0021
567.5006	0.0024
567.6941	-0.0016
567.8876	-0.0023
568.0811	-0.0004
568.2745	-0.0109
568.468	-0.0054
568.6614	-0.0053
568.8548	-0.0058
569.0482	-0.007
569.2416	0.0019
569.4349	-0.0012
569.6283	-0.006
569.8216	-0.0093
570.0149	-0.0057
570.2082	-0.0049
570.4015	-0.0024
570.5947	-0.0023
570.788	-0.0024
570.9812	-0.0004
571.1744	-0.0114
571.3676	-0.006
571.5608	-0.0003
571.754	-0.0078
571.9471	-0.0069
572.1402	-0.0019
572.3333	-0.0043
572.5264	-0.003
572.7195	0.001
572.9126	-0.0042
573.1057	-0.0058
573.2987	-0.001
573.4917	-0.0087
573.6847	-0.0009
573.8777	-0.0057
574.0707	-0.0016
574.2636	-0.0046
574.4566	-0.0046
574.6495	-0.0031
574.8424	-0.0042
575.0353	-0.0065
575.2281	-0.0033
575.421	-0.0094
575.6138	-0.0025
575.8067	0.0007
575.9995	0.0006
576.1923	-0.0035
576.385	-0.006
576.5778	-0.0052
576.7706	0.0004
576.9633	-0.003
577.156	-0.0027
577.3487	-0.0011
577.5414	0.0015
577.734	0.0038
577.9267	0.0015
578.1193	-0.0062
578.3119	-0.0013
578.5045	-0.0031
578.6971	-0.0015
578.8897	-0.0028
579.0822	-0.004
579.2747	-0.0004
579.4673	-0.0006
579.6598	-0.0038
579.8522	-0.0039
580.0447	-0.0025
580.2372	-0.002
580.4296	0.001
580.622	0.0009
580.8144	-0.0036
581.0068	-0.0009
581.1992	0.0027
581.3915	-0.0032
581.5839	-0.0018
581.7762	-0.0012
581.9685	-0.0028
582.1608	-0.0046
582.353	0.001
582.5453	-0.0042
582.7375	-0.0001
582.9298	-0.0043
583.122	0.0006
583.3142	-0.0004
583.5063	-0.0009
583.6985	-0.0024
583.8906	-0.0062
584.0827	-0.0041
584.2749	-0.006
584.4669	-0.0042
584.659	-0.009
584.8511	-0.0042
585.0431	-0.0039
585.2352	-0.0064
585.4272	-0.0067
585.6192	-0.0046
585.8111	-0.0028
586.0031	0.0025
586.195	-0.0036
586.387	0.0011
586.5789	-0.0059
586.7708	-0.0077
586.9627	-0.0064
587.1545	-0.0083
587.3464	-0.0084
587.5382	-0.0028
587.73	-0.0027
587.9218	-0.0038
588.1136	0.0004
588.3053	-0.0007
588.4971	-0.0057
588.6888	-0.0071
588.8805	-0.0021
589.0722	-0.0005
589.2639	0.0014
589.4556	-0.0025
589.6472	0.0013
589.8389	-0.0041
590.0305	-0.006
590.2221	0.0003
590.4137	-0.0011
590.6052	-0.0052
590.7968	-0.0019
590.9883	-0.0033
591.1798	-0.0052
591.3713	0.0025
591.5628	-0.0076
591.7543	-0.0022
591.9458	-0.0032
592.1372	-0.0047
592.3286	0.0026
592.52	-0.0085
592.7114	0.0004
592.9028	-0.004
593.0941	-0.003
593.2855	-0.0033
593.4768	0.0006
593.6681	0.0018
593.8594	0.0057
594.0506	-0.0029
594.2419	0.0034
594.4331	-0.0044
594.6244	-0.0016
594.8156	-0.0037
595.0067	-0.0002
595.1979	-0.0042
595.3891	-0.0035
595.5802	-0.0054
595.7713	-0.0009
595.9624	0.0027
596.1535	0.0043
596.3446	-0.0042
596.5357	-0.0023
596.7267	-0.0026
596.9177	-0.0012
597.1087	0.0026
597.2997	0.0005
597.4907	-0.0021
597.6817	-0.0044
597.8726	-0.0029
598.0635	-0.0042
598.2544	-0.0043
598.4453	-0.0056
598.6362	-0.0022
598.827	-0.0079
599.0179	0.0029
599.2087	-0.0131
599.3995	-0.0083
599.5903	-0.0021
599.7811	-0.0064
599.9718	0.0022
600.1626	0.0017
600.3533	-0.0018
600.544	-0.0044
600.7347	0.0048
600.9254	0.0001
601.116	-0.0036
601.3067	-0.0073
601.4973	-0.0066
601.6879	0.0009
601.8785	-0.0017
602.0691	-0.0027
602.2596	-0.0026
602.4502	-0.0061
602.6407	-0.0028
602.8312	-0.0079
603.0217	-0.0058
603.2122	-0.0035
603.4027	-0.0024
603.5931	-0.0045
603.7835	-0.0003
603.9739	-0.001
604.1643	-0.0048
604.3547	0.0026
604.5451	-0.0007
604.7354	-0.0033
604.9257	-0.0051
605.116	-0.0003
605.3063	-0.0035
605.4966	-0.0053
605.6869	-0.0011
605.8771	-0.0046
606.0673	-0.0003
606.2575	-0.0023
606.4477	-0.0071
606.6379	-0.0088
606.8281	-0.0068
607.0182	-0.0108
607.2083	-0.002
607.3985	-0.0112
607.5885	-0.0068
607.7786	-0.0037
607.9687	-0.0068
608.1587	-0.0042
608.3488	-0.0049
608.5388	0.003
608.7288	-0.0026
608.9187	-0.0001
609.1087	-0.0036
609.2986	-0.0035
609.4886	-0.0035
609.6785	-0.0015
609.8684	0.0007
610.0582	-0.0005
610.2481	0.0001
610.4379	-0.0005
610.6278	-0.0029
610.8176	0.0003
611.0074	-0.0046
611.1971	-0.0007
611.3869	-0.0047
611.5766	0.002
611.7664	0.0021
611.9561	0.0006
612.1458	0.0036
612.3354	-0.0053
612.5251	-0.0108
612.7147	-0.0073
612.9044	-0.0027
613.094	-0.0024
613.2836	-0.0031
613.4731	-0.0074
613.6627	-0.0088
613.8522	-0.0002
614.0417	-0.0062
614.2313	-0.0048
614.4207	-0.0032
614.6102	0.0033
614.7997	-0.0065
614.9891	-0.0017
615.1785	-0.0079
615.3679	-0.0008
615.5573	-0.0011
615.7467	-0.0005
615.9361	-0.0015
616.1254	-0.0038
616.3147	0.0006
616.504	-0.0024
616.6933	-0.0005
616.8826	-0.0019
617.0718	-0.0044
617.2611	0.0003
617.4503	0.0004
617.6395	-0.0029
617.8287	-0.0018
618.0179	0.006
618.207	-0.0033
618.3961	-0.0011
618.5853	-0.0063
618.7744	-0.0015
618.9634	-0.0003
619.1525	-0.0041
619.3416	-0.0056
619.5306	-0.0056
619.7196	0.0011
619.9086	-0.004
620.0976	-0.0048
620.2866	0.0031
620.4755	-0.0067
620.6645	-0.0032
620.8534	0.0041
621.0423	-0.0085
621.2312	-0.0036
621.42	-0.0027
621.6089	-0.002
621.7977	-0.0002
621.9865	-0.0019
622.1753	0.0043
622.3641	0.0037
622.5529	0.0002
622.7416	-0.002
622.9303	0.0075
623.1191	-0.002
623.3078	-0.0006
623.4964	-0.0032
623.6851	0.0064
623.8737	-0.0006
624.0624	0.0012
624.251	0.0013
624.4396	0.0009
624.6282	-0.0004
624.8167	-0.0012
625.0053	-0.0019
625.1938	-0.002
625.3823	-0
625.5708	0
625.7593	0.0019
625.9477	-0.0055
626.1362	-0.001
626.3246	-0.0042
626.513	-0.0042
626.7014	-0.0012
626.8898	-0.0057
627.0781	0.0015
627.2665	-0.0031
627.4548	-0.0061
627.6431	-0.0055
627.8314	-0.0046
628.0197	0.0035
628.2079	0.0005
628.3962	0.0006
628.5844	0.0039
628.7726	-0.0016
628.9608	-0.0001
629.1489	0.0025
629.3371	0.0026
629.5252	0.0005
629.7134	-0.0015
629.9015	-0.0019
630.0895	-0.002
630.2776	-0.0012
630.4657	-0.0014
630.6537	-0.0012
630.8417	-0.0017
631.0297	-0
631.2177	0.0011
631.4057	-0.0004
631.5936	0.0009
631.7815	-0.0019
631.9695	-0.0028
632.1574	-0.0066
632.3452	-0.0023
632.5331	-0.0029
632.7209	-0.008
632.9088	-0.0074
633.0966	-0.0055
633.2844	-0.0042
633.4722	-0.0014
633.6599	-0.0016
633.8477	-0.0036
634.0354	-0.0053
634.2231	-0.004
634.4108	-0.0045
634.5985	-0.0016
634.7861	-0.0059
634.9738	-0.0042
635.1614	-0.0023
635.349	-0.0064
635.5366	-0.0004
635.7242	-0.0016
635.9117	0.0006
636.0993	0.0001
636.2868	-0.0025
636.4743	-0.0033
636.6618	-0.0057
636.8492	-0.0018
637.0367	0.0005
637.2241	-0.0045
637.4115	-0.0033
637.5989	-0.0005
637.7863	-0.0022
637.9737	-0.0031
638.161	-0.0024
638.3484	-0.0019
638.5357	0.0016
638.723	-0.0047
638.9103	0.0002
639.0975	0.0037
639.2848	-0.0006
639.472	0.0025
639.6592	0.0053
639.8464	-0.0019
640.0336	-0.0038
640.2208	-0.0005
640.4079	-0.0039
640.595	-0.0019
640.7821	-0.0053
640.9692	-0.0001
641.1563	0.0009
641.3434	0.0023
641.5304	0.0005
641.7174	0.0007
641.9044	0.0055
642.0914	0.0028
642.2784	0.0025
642.4653	0.0094
642.6523	0.0006
642.8392	0.0028
643.0261	0.0051
643.213	0.0011
643.3999	-0.0011
643.5867	-0.0036
643.7735	-0.0016
643.9604	0.0048
644.1472	-0.0021
644.3339	-0.001
644.5207	-0.0008
644.7075	-0.0052
644.8942	-0.0035
645.0809	-0.0011
645.2676	-0.0032
645.4543	0.0063
645.6409	-0.0013
645.8276	0.0009
646.0142	-0.0009
646.2008	-0.0017
646.3874	-0.005
646.574	-0.0062
646.7605	-0.0006
646.9471	-0.0064
647.1336	-0.0027
647.3201	-0.0063
647.5066	0.0001
647.6931	0.0011
647.8795	-0.006
648.0659	-0.0017
648.2524	-0.0054
648.4388	0.002
648.6252	0.0006
648.8115	-0.0124
648.9979	-0.0059
649.1842	-0.0107
649.3705	-0.0032
649.5568	-0.0035
649.7431	-0.0032
649.9294	-0.003
650.1156	-0.0033
650.3018	-0.0075
650.488	-0.009
650.6742	-0.0084
650.8604	0.0012
651.0466	0.0058
651.2327	-0.0031
651.4188	0.0002
651.6049	0.003
651.791	0.0001
651.9771	-0.0002
652.1632	-0.0012
652.3492	0.0003
652.5352	-0.0004
652.7212	0.0004
652.9072	0.0056
653.0932	0.0019
653.2791	-0.0015
653.465	-0.0036
653.651	-0.0038
653.8369	-0.005
654.0227	0.0013
654.2086	0.0013
654.3944	-0.0062
654.5803	-0.0061
654.7661	-0.0044
654.9519	-0.0016
655.1377	-0.0017
655.3234	0.0001
655.5092	0.0001
655.6949	0.0001
655.8806	0.0001
656.0663	0.0001
656.2519	0.0001
656.4376	-0.0018
656.6232	-0.0048
656.8088	-0.0031
656.9945	-0.0021
657.18	-0.0011
657.3656	-0.0006
657.5511	-0.0036
657.7367	-0.0024
657.9222	0.0027
658.1077	0.0027
658.2932	-0.0022
658.4786	-0.003
658.6641	-0.0031
658.8495	-0.0007
659.0349	-0.0012
659.2203	-0.0061
659.4057	-0.0031
659.591	-0.0023
659.7764	-0.0019
659.9617	-0.007
660.147	-0.004
660.3323	-0.0043
660.5176	-0.0076
660.7028	-0.0037
660.888	-0.0035
661.0733	-0.0008
661.2585	-0.006
661.4436	-0.0004
661.6288	-0.0073
661.8139	0.0044
661.9991	0.0061
662.1842	0.0011
662.3693	-0.0022
662.5544	-0.0004
662.7394	-0.002
662.9245	-0
663.1095	0.0012
663.2945	-0.0066
663.4795	-0.0044
663.6644	-0.0047
663.8494	-0.0047
664.0343	-0.0054
664.2193	-0.0035
664.4042	-0.0062
664.589	-0.0032
664.7739	-0.0027
664.9587	0.0011
665.1436	-0.0016
665.3284	-0.0033
665.5132	-0.0038
665.698	0.0055
665.8827	0.0064
666.0675	-0.0051
666.2522	-0.0062
666.4369	-0.0035
666.6216	-0.0082
666.8063	-0.0082
666.9909	-0.0122
667.1756	-0.0084
667.3602	-0.0074
667.5448	-0.0105
667.7294	-0.0036
667.9139	-0.005
668.0985	-0.0061
668.283	-0.0033
668.4675	-0.0135
668.652	-0.0074
668.8365	-0.0083
669.0209	-0.007
669.2054	-0.0053
669.3898	-0.006
669.5742	-0.0105
669.7586	-0.0011
669.943	-0.0052
670.1273	-0.0131
670.3117	-0.004
670.496	-0.0092
670.6803	0.0005
670.8646	-0.0049
671.0488	-0.0018
671.2331	-0.0022
671.4173	0.0016
671.6015	-0.0045
671.7857	-0.0078
671.9699	-0.0083
672.1541	-0.0044
672.3382	-0.0054
672.5223	-0.0073
672.7064	-0.0113
672.8905	-0.0086
673.0746	-0.0137
673.2587	-0.0147
673.4427	-0.0114
673.6267	-0.0113
673.8107	-0.0142
673.9947	-0.0112
674.1787	-0.0069
674.3626	-0.0084
674.5465	-0.0044
674.7304	-0.0028
674.9143	-0.003
675.0982	-0.0043
675.2821	-0.0031
675.4659	-0.0022
675.6497	-0.001
675.8335	-0.0001
676.0173	-0.0087
676.2011	-0.0062
676.3849	-0.0051
676.5686	-0.0005
676.7523	-0.0032
676.936	-0.001
677.1197	-0.0019
677.3034	-0.0071
677.487	-0.0054
677.6706	-0.0023
677.8542	-0.0036
678.0378	-0.0037
678.2214	-0.0113
678.405	-0.0008
678.5885	-0.0073
678.772	-0.0033
678.9555	-0.0037
679.139	-0.0089
679.3225	-0.0073
679.5059	-0.0086
679.6894	0.0012
679.8728	-0
680.0562	0.0013
680.2395	-0.0067
680.4229	-0.0018
680.6062	0.0037
680.7896	-0.0003
680.9729	-0.0004
681.1562	0.0002
681.3394	0.0004
681.5227	0.0005
681.7059	-0.0076
681.8891	-0.0061
682.0723	-0.0059
682.2555	-0.0049
682.4387	0.0009
682.6218	-0.0087
682.805	-0.0046
682.9881	-0.0042
683.1712	0.0044
683.3542	0.0018
683.5373	-0.0064
683.7203	0.0022
683.9034	-0.0055
684.0864	-0.0072
684.2694	0.0002
684.4523	-0.0027
684.6353	0.0005
684.8182	-0.0054
685.0011	-0.0057
685.184	-0.0073
685.3669	-0.0024
685.5498	-0.001
685.7326	-0.0002
685.9154	-0.0057
686.0982	-0.0079
686.281	-0.0056
686.4638	-0.0023
686.6465	-0.0014
686.8293	-0.0042
687.012	-0.0022
687.1947	-0.0089
687.3774	-0.0019
687.56	-0.001
687.7427	0.0017
687.9253	-0.0037
688.1079	0.0019
688.2905	-0.0038
688.4731	-0.0049
688.6556	-0.0017
688.8382	-0.0022
689.0207	0.0013
689.2032	-0.0027
689.3857	-0.0018
689.5681	-0.0012
689.7506	-0.0015
689.933	0.0029
690.1154	0.0008
690.2978	-0.0015
690.4802	-0.0003
690.6626	0.0025
690.8449	-0.0004
691.0272	0.0068
691.2095	-0.0012
691.3918	-0.0004
691.5741	-0.004
691.7563	-0.0022
691.9386	-0.0025
692.1208	-0.0024
692.303	-0.0051
692.4852	-0.0005
692.6673	-0.0012
692.8495	-0.0066
693.0316	-0.0034
693.2137	-0.005
693.3958	-0.005
693.5778	-0.0051
693.7599	-0.006
693.9419	-0.0083
694.1239	-0.0002
694.3059	-0.006
694.4879	-0.0066
694.6699	-0.0053
694.8518	-0.0066
695.0337	-0.0101
695.2157	-0.0049
695.3975	-0.0068
695.5794	-0.0042
695.7613	-0.0049
695.9431	0.0027
696.1249	-0.0021
696.3067	-0.0032
696.4885	0.0003
696.6703	-0.0015
696.852	-0.0029
697.0337	-0.0003
697.2154	-0.0002
697.3971	-0.0049
697.5788	-0.0034
697.7605	-0.0028
697.9421	-0.0057
698.1237	-0.0114
698.3053	-0.0038
698.4869	0.0055
698.6685	-0.0048
698.85	-0.0047
699.0315	-0.0029
699.213	-0.0002
699.3945	0.0037
699.576	0.0064
699.7575	-0.0052
699.9389	0.001
700.1203	-0.0054
700.3017	-0.0058
700.4831	-0.0006
700.6645	-0.0082
700.8458	0.0002
701.0271	-0.0035
701.2084	-0.0077
701.3897	-0.0029
701.571	-0.0043
701.7523	-0.0026
701.9335	0.001
702.1147	0.0072
702.2959	-0.0021
702.4771	-0.004
702.6583	-0.0003
702.8394	0.0036
703.0205	-0.0019
703.2016	-0.0031
703.3827	0.0047
703.5638	-0.0042
703.7449	-0.0049
703.9259	-0.0004
704.1069	-0.0021
704.2879	0.0001
704.4689	-0.0041
704.6499	-0.0019
704.8308	-0.005
705.0117	-0.001
705.1927	-0.0024
705.3735	0.0046
705.5544	-0.0007
705.7353	0.0061
705.9161	0.0052
706.0969	0.0002
706.2777	-0.0012
706.4585	-0.0041
706.6393	-0.0007
706.82	-0.003
707.0007	-0.0044
707.1815	-0.0032
707.3621	-0.0007
707.5428	-0.0028
707.7235	-0.0005
707.9041	-0.0015
708.0847	0.0001
708.2653	-0.0006
708.4459	-0.0036
708.6265	-0.0051
708.807	-0.0004
708.9875	-0.0026
709.168	-0.0076
709.3485	-0.0031
709.529	-0.0049
709.7095	-0.0068
709.8899	-0.01
710.0703	0.0009
710.2507	-0.0031
710.4311	-0.0035
710.6115	0.0017
710.7918	-0.0028
710.9721	-0.0028
711.1524	0.0037
711.3327	0.0012
711.513	-0.0081
711.6932	-0.007
711.8735	0.0014
712.0537	-0.0035
712.2339	-0.0019
712.4141	-0.0046
712.5942	0.0024
712.7744	-0.0005
712.9545	-0.0003
713.1346	-0.0018
713.3147	0.0094
713.4947	0.0009
713.6748	-0.0022
713.8548	-0.006
714.0348	0.0014
714.2148	-0.0027
714.3948	-0.0094
714.5748	-0.0107
714.7547	-0.0023
714.9346	-0.002
715.1145	-0.0087
715.2944	0.0021
715.4743	-0.0066
715.6541	-0.0045
715.834	0.0008
716.0138	-0.0013
716.1936	0.0026
716.3733	-0.0047
716.5531	-0.0022
716.7328	-0.0047
716.9126	-0.0067
717.0923	-0.0069
717.2719	-0.0081
717.4516	-0.0098
717.6312	-0.0005
717.8109	-0.0021
717.9905	-0.0053
718.1701	0.0018
718.3496	-0.0025
718.5292	-0.0066
718.7087	-0.0033
718.8882	-0.0026
719.0677	-0.0044
719.2472	-0.0019
719.4267	-0.0072
719.6061	-0.0056
719.7856	-0.0053
719.965	-0.0072
720.1443	-0.0006
720.3237	-0.0056
720.5031	-0.0109
720.6824	-0.0025
720.8617	-0.0073
721.041	-0.0031
721.2203	-0.0106
721.3995	0.002
721.5788	-0.0091
721.758	0.0022
721.9372	-0.0012
722.1164	-0.0074
722.2956	-0.0107
722.4747	-0.0083
722.6538	-0.0042
722.8329	-0.0026
723.012	-0.0072
723.1911	-0.0004
723.3702	0.0002
723.5492	-0.0022
723.7282	-0.0032
723.9072	-0.0036
724.0862	-0.004
724.2652	-0.0008
724.4441	-0.0067
724.623	-0.0002
724.8019	-0.0005
724.9808	0.0001
725.1597	0.0017
725.3385	0.0038
725.5174	0.0007
725.6962	-0.0049
725.875	0.0083
726.0538	0.0028
726.2325	-0.002
726.4112	-0.0028
726.59	-0.0032
726.7687	-0.0037
726.9474	-0.0036
727.126	-0.0073
727.3047	0.0012
727.4833	0.0021
727.6619	-0.0087
727.8405	-0.0007
728.0191	0.0014
728.1976	-0.0049
728.3762	-0.0097
728.5547	-0.0068
728.7332	-0.0067
728.9116	-0.0111
729.0901	-0.009
729.2686	-0.0124
729.447	-0.006
729.6254	-0.006
729.8038	-0.0047
729.9821	0.0029
730.1605	0.0013
730.3388	0.0005
730.5171	-0.0007
730.6954	-0.0007
730.8737	-0.0039
731.0519	0.0023
731.2302	-0.0002
731.4084	0.0057
731.5866	0.0057
731.7648	0.0019
731.9429	0.0012
732.1211	-0.0017
732.2992	0.0034
732.4773	0.0025
732.6554	-0.003
732.8335	-0.0074
733.0115	-0.0071
733.1896	-0.0083
733.3676	-0.0013
733.5456	0.0001
733.7235	-0.0029
733.9015	0.0029
734.0794	0.0003
734.2574	-0.0045
734.4353	-0.005
734.6131	0.0023
734.791	-0.0051
734.9689	-0.0039
735.1467	0.0041
735.3245	0.0004
735.5023	-0.007
735.68	-0.0029
735.8578	-0.0021
736.0355	0.0087
736.2132	0.0014
736.3909	-0.0017
736.5686	-0.0042
736.7463	-0.0026
736.9239	-0.0089
737.1015	-0.0037
737.2791	-0.0089
737.4567	-0.0079
737.6343	0.0001
737.8118	-0.0096
737.9894	-0.0012
738.1669	-0.0018
738.3444	0.0013
738.5218	0.0075
738.6993	0.0044
738.8767	-0.0005
739.0541	0
739.2315	-0.0068
739.4089	0.0014
739.5863	0.0002
739.7636	-0.0011
739.9409	-0.0006
740.1182	0.0018
740.2955	0.0026
740.4728	0.0019
740.65	-0.0007
740.8272	0.0051
741.0044	-0.0082
741.1816	-0.0007
741.3588	0.0029
741.5359	0.001
741.7131	-0.0008
741.8902	0.0068
742.0673	0.0034
742.2444	-0.0058
742.4214	-0.003
742.5985	-0.0039
742.7755	0
742.9525	-0.0022
743.1295	-0.003
743.3064	-0.0033
743.4834	-0.004
743.6603	-0.0032
743.8372	0.0021
744.0141	-0.0021
744.191	-0.0011
744.3678	-0.006
744.5446	0.0023
744.7215	-0.0058
744.8982	0.0021
745.075	0.0015
745.2518	0.0022
745.4285	-0.0016
745.6052	0.0042
745.7819	-0.005
745.9586	0.0024
746.1353	0.001
746.3119	0.003
746.4885	-0.0083
746.6651	-0.0038
746.8417	-0.0054
747.0183	-0.0032
747.1948	-0.0079
747.3714	-0.0045
747.5479	-0.0013
747.7244	0.0009
747.9008	0.0026
748.0773	0.0044
748.2537	0.0049
748.4301	0.0043
748.6065	-0.0032
748.7829	0.0082
748.9593	-0.0022
749.1356	0.0002
749.3119	-0.0001
749.4882	0.0105
749.6645	-0.0061
749.8408	-0.0031
750.017	-0.0032
750.1933	-0.0022
750.3695	-0.0043
750.5457	-0.0083
750.7218	-0.0069
750.898	-0.0051
751.0741	-0.0072
751.2502	-0.002
751.4263	-0.004
751.6024	-0.0053
751.7784	-0.0022
751.9545	-0.0019
752.1305	-0.0018
752.3065	0.0007
752.4825	-0.0035
752.6584	-0.003
752.8344	-0.0006
753.0103	-0.0026
753.1862	-0.0013
753.3621	0.0048
753.5379	-0.0057
753.7138	0.0047
753.8896	-0.0088
754.0654	-0.0051
754.2412	-0.0093
754.417	-0.0052
754.5927	-0.002
754.7685	-0.0134
754.9442	-0.0086
755.1199	-0.0072
755.2956	-0.0031
755.4712	-0.0044
755.6469	-0.0089
755.8225	-0.0096
755.9981	-0.007
756.1736	-0.0079
756.3492	-0.0044
756.5248	-0.0052
756.7003	-0.0051
756.8758	-0.0106
757.0513	-0.009
757.2267	-0.0098
757.4022	-0.0057
757.5776	-0.0117
757.753	-0.0116
757.9284	-0.0047
758.1038	-0.0088
758.2791	-0.0124
758.4545	-0.0123
758.6298	-0.0088
758.8051	-0.0047
758.9803	-0.0111
759.1556	-0.0114
759.3308	-0.0063
759.506	-0.0093
759.6812	-0.0063
759.8564	-0.0073
760.0316	-0.0106
760.2067	-0.009
760.3819	-0.0082
760.557	-0.0113
760.732	-0.0083
760.9071	-0.0134
761.0821	-0.0079
761.2572	-0.0124
761.4322	-0.0074
761.6072	-0.0097
761.7821	-0.0165
761.9571	-0.0116
762.132	-0.013
762.3069	-0.0031
762.4818	-0.0088
762.6567	-0.0068
762.8316	0.0008
763.0064	0.0015
763.1812	0.0015
763.356	-0.0033
763.5308	-0.0007
763.7055	0.0039
763.8803	-0.0051
764.055	-0.0056
764.2297	0.0016
764.4044	0.0013
764.579	-0.0062
764.7537	0.0035
764.9283	-0.0044
765.1029	0.0066
765.2775	0.0012
765.4521	0.0042
765.6266	0.0013
765.8011	0.0049
765.9756	0.0033
766.1501	0.0088
766.3246	-0.0027
766.4991	-0.0057
766.6735	-0.0063
766.8479	-0.0053
767.0223	-0.0018
767.1967	0.0026
767.371	-0.0061
767.5454	-0.0045
767.7197	-0.0056
767.894	0.0019
768.0683	-0.0073
768.2425	-0.0049
768.4168	-0.0085
768.591	0.0051
768.7652	-0.0003
768.9394	0.0069
769.1135	0.0068
769.2877	0.0044
769.4618	0.0046
769.6359	0.0004
769.81	-0.0024
769.984	-0.0113
770.1581	0.0049
770.3321	-0.0008
770.5061	0.0014
770.6801	-0.0021
770.8541	0.0053
771.028	0.002
771.202	0.0011
771.3759	-0.0054
771.5498	-0.0041
771.7236	0.0002
771.8975	0.0053
772.0713	0.003
772.2451	0.0029
772.4189	0.0004
772.5927	-0.0035
772.7665	-0.0007
772.9402	0.0031
773.1139	0.0001
773.2876	0.0033
773.4613	-0.0025
773.635	0.0014
773.8086	0.0006
773.9822	0.0076
774.1558	0
774.3294	0.0015
774.503	-0.0015
774.6765	-0.0028
774.8501	0.0078
775.0236	-0.012
775.1971	-0.0047
775.3705	-0.0028
775.544	-0.0056
775.7174	0.0014
775.8908	-0.0036
776.0642	0.0001
776.2376	-0.0022
776.4109	-0.0012
776.5843	0.0044
776.7576	0.0059
776.9309	0.0032
777.1041	0.0005
777.2774	0.0013
777.4506	-0.0049
777.6238	0.0045
777.797	0.0008
777.9702	-0.0092
778.1434	-0.0081
778.3165	-0.0023
778.4896	-0.012
778.6627	0.0034
778.8358	-0.006
779.0089	0.0005
779.1819	-0.0017
779.3549	-0.0002
779.5279	-0.0031
779.7009	-0.0149
779.8739	0.0014
780.0468	-0.0095
780.2197	-0.0037
780.3926	-0.0024
780.5655	-0.0045
780.7384	-0.0024
780.9112	-0.0079
781.0841	0.0001
781.2569	-0.0001
781.4297	-0.0032
781.6024	-0.0013
781.7752	-0.0084
781.9479	-0.0019
782.1206	-0.003
782.2933	-0.0009
782.466	-0.0034
782.6386	0.0032
782.8113	-0.0136
782.9839	-0.0002
783.1565	-0.0126
783.329	-0.011
783.5016	0.004
783.6741	-0.0087
783.8466	-0.0182
784.0191	-0.0034
784.1916	-0.0006
784.3641	0.0002
784.5365	0.0014
784.7089	-0.0021
784.8813	0.009
785.0537	0.0063
785.2261	0.0048
785.3984	-0.0007
785.5707	-0.0013
785.743	0.0037
785.9153	0.0027
786.0876	0.0019
786.2598	0.0092
786.432	0.0046
786.6042	0.0046
786.7764	0.0008
786.9486	0.0048
787.1207	-0.0088
787.2928	0.0034
787.4649	-0.0079
787.637	-0.0046
787.8091	0.0021
787.9811	0.0033
788.1532	0.0008
788.3252	-0.0021
788.4972	-0.0124
788.6691	-0.0044
788.8411	0.0066
789.013	0.0014
789.1849	0.0087
789.3568	-0.0096
789.5287	-0.0058
789.7005	0.0012
789.8723	-0.0049
790.0442	-0.0048
790.2159	0.0068
790.3877	-0.0105
790.5595	0.0012
790.7312	0.0018
790.9029	-0.0019
791.0746	-0.0003
791.2463	-0.0012
791.4179	-0.0083
791.5896	0.0041
791.7612	-0.0099
791.9328	0.0009
792.1044	-0.0101
792.2759	0.0107
792.4474	-0.0029
792.619	-0.0017
792.7905	-0.0119
792.9619	0
793.1334	-0.0063
793.3048	-0.0047
793.4762	0.0057
793.6476	-0.0155
793.819	-0.0079
793.9904	-0.0138
794.1617	-0.0129
794.333	-0.0124
794.5043	-0.0026
794.6756	0.006
794.8469	0.0007
795.0181	-0.0098
795.1893	-0.0102
795.3605	0.0003
795.5317	-0.012
795.7029	-0.013
795.874	-0.0127
796.0452	-0.0117
796.2163	-0.0132
796.3873	-0.0137
796.5584	-0.0127
796.7294	-0.015
796.9005	-0.008
797.0715	-0.0149
797.2425	-0.015
797.4134	-0.0101
797.5844	-0.0144
797.7553	-0.0142
797.9262	-0.0005
798.0971	-0.0136
798.2679	-0.0076
798.4388	-0.0158
798.6096	-0.0099
798.7804	-0.0083
798.9512	-0.012
799.122	-0.0069
799.2927	-0.0193
799.4635	-0.0078
799.6342	-0.0162
799.8049	-0.0092
799.9755	-0.0098
800.1462	-0.0192
800.3168	-0.0041
800.4874	-0.014
800.658	-0.0201
800.8286	-0.0109
800.9991	-0.0189
801.1696	-0.0211
801.3402	-0.0132
801.5106	-0.0136
801.6811	-0.0217
801.8516	-0.0127
802.022	-0.0324
802.1924	-0.0264
802.3628	-0.0055
802.5332	-0.017
802.7035	-0.0185
802.8739	-0.0067
803.0442	-0.0131
803.2145	-0.0137
803.3847	-0.0187
803.555	-0.0168
803.7252	-0.0191
803.8954	-0.0129
804.0656	0.0006
804.2358	-0.01
804.4059	-0.0063
804.5761	-0.0113
804.7462	-0.0177
804.9163	-0.0019
805.0864	-0.0154
805.2564	-0.006
805.4264	-0.0227
805.5965	-0.0157
805.7665	-0.0099
805.9364	-0.0105
806.1064	-0.0075
806.2763	-0.0098
806.4462	-0.008
806.6161	-0.0044
806.786	-0.004
806.9559	-0.0095
807.1257	-0.018
807.2955	-0.0039
807.4653	-0.0091
807.6351	0.0006
807.8048	-0.002
807.9746	-0.0004
808.1443	-0.0057
808.314	-0.0014
808.4837	-0
808.6533	-0.0015
808.8229	0.0004
808.9926	0.0075
809.1622	-0.0074
809.3317	0.0183
809.5013	0.0085
809.6708	-0.0086
809.8403	0.0002
810.0098	0.0108
810.1793	-0.0125
810.3488	0.0064
810.5182	0.0001
810.6876	0.0012
810.857	-0.0123
811.0264	0.0014
811.1958	0.0071
811.3651	-0.0095
811.5344	0.0097
811.7037	-0.0133
811.873	-0.0082
812.0422	-0.0062
812.2115	-0.0053
812.3807	0.0013
812.5499	-0.0007
812.7191	-0.0216
812.8882	-0.0014
813.0574	-0
813.2265	0.0067
813.3956	-0.0013
813.5646	-0.0032
813.7337	-0.0061
813.9027	-0.0012
814.0718	-0.0084
814.2407	0.0114
814.4097	0.0058
814.5787	-0.0004
814.7476	-0.0046
814.9165	0.0042
815.0854	-0.007
815.2543	0.0108
815.4232	-0.0005
815.592	0.0028
815.7608	-0.0021
815.9296	0.0049
816.0984	-0.0072
816.2671	-0.0023
816.4359	-0.0027
816.6046	0.0123
816.7733	-0.0033
816.942	-0.0013
817.1106	-0.0025
817.2793	-0.0156
817.4479	-0.0093
817.6165	-0.0095
817.785	-0.0004
817.9536	0.0002
818.1221	-0.0058
818.2906	-0.0194
818.4591	-0.0152
818.6276	-0.0015
818.7961	-0.0033
818.9645	-0.0031
819.1329	-0.0021
819.3013	-0.0027
819.4697	-0.0145
819.638	0.0064
819.8064	-0.0054
819.9747	0.0182
820.143	-0.0036
820.3113	0.0001
820.4795	0.0129
820.6477	0.0024
820.816	-0.0036
820.9842	-0.0097
821.1523	-0.0172
821.3205	-0.0093
821.4886	0.0038
821.6567	0.0087
821.8248	-0.0193
821.9929	0.0041
822.1609	-0.0155
822.329	-0.0035
822.497	-0.0111
822.665	-0.0152
822.833	-0.026
823.0009	-0.0138
823.1688	-0.0056
823.3367	0.0026
823.5046	-0.0094
823.6725	-0.0167
823.8404	-0.0088
824.0082	0.004
824.176	-0.0107
824.3438	-0.0059
824.5116	0.0036
824.6793	-0.0137
824.847	-0.0076
825.0147	-0.0095
825.1824	-0.0145
825.3501	-0.0094
825.5177	-0.0124
825.6854	0.0031
825.853	0.0052
826.0206	0.0011
826.1881	0.0062
826.3557	-0.0038
826.5232	-0.0041
826.6907	-0.0089
826.8582	0.0021
827.0257	-0.0143
827.1931	0.0098
827.3605	0.006
827.528	0.0043
827.6953	-0.0013
827.8627	0.0093
828.03	-0.0104
828.1974	-0.0014
828.3647	0.0116
828.532	-0.0069
828.6992	-0.0056
828.8665	-0.0098
829.0337	-0.0215
829.2009	-0.0168
829.3681	-0.0323
829.5352	-0
829.7024	-0.0048
829.8695	-0.0368
830.0366	-0.0273
830.2037	-0.0034
830.3707	-0.0099
830.5378	0.0028
830.7048	-0.0232
830.8718	0.0088
831.0388	0.0051
831.2057	-0.0084
831.3727	-0.0099
831.5396	0.0013
831.7065	-0.0026
831.8734	0.0058
832.0402	-0.0248
832.2071	-0.0003
832.3739	-0.004
832.5407	-0.0083
832.7075	0.0004
832.8742	0.0059
833.041	0.0076
833.2077	-0.034
833.3744	0.0012
833.541	0.0025
833.7077	0.0072
833.8743	-0.0007
834.0409	0.0114
834.2075	0.0206
834.3741	0.0045
834.5407	0.0047
834.7072	0.0112
834.8737	-0.0027
835.0402	-0.0261
835.2067	-0.013
835.3731	-0.0109
835.5395	-0.0113
835.706	-0.0126
835.8723	-0.0104
836.0387	-0.0199
836.2051	-0.011
836.3714	0.0236
836.5377	0.012
836.704	0.0076
836.8703	-0.024
837.0365	-0.0001
837.2027	-0.0115
837.3689	-0.0057
837.5351	-0.0049
837.7013	-0.0042
837.8674	0.0063
838.0335	0.0036
838.1997	0.0026
838.3657	0.0187
838.5318	-0.0204
838.6978	-0.009
838.8639	0.021
839.0299	-0.0051
839.1958	0.0034
839.3618	0.0154
839.5277	-0.024
839.6937	-0.0095
839.8596	0.0056
840.0254	-0.0133
840.1913	0.0022
840.3571	0.0149
840.523	-0.0074
840.6888	0.0062
840.8545	-0.0041
841.0203	-0.0132
841.186	0.0094
841.3517	-0.0013
841.5174	-0.0123
841.6831	0.0015
841.8488	-0.0087
842.0144	0.0161
842.18	-0.0132
842.3456	0.0152
842.5112	0.0147
842.6767	-0.0043
842.8422	0.0145
843.0077	0.0087
843.1732	-0.0193
843.3387	-0.014
843.5042	0.0122
843.6696	0.0092
843.835	-0.0222
844.0004	0.0019
844.1657	0.003
844.3311	0.0152
844.4964	-0.0042
844.6617	0.0128
844.827	0.0014
844.9923	0.0076
845.1575	0.0341
845.3227	-0.0172
845.4879	0.0101
845.6531	0.0114
845.8183	-0.01
845.9834	-0.0132
846.1485	-0.0028
846.3136	-0.045
846.4787	0.0096
846.6438	0.0216
846.8088	0.0243
846.9738	-0.0026
847.1388	-0.0103
847.3038	0.0421
847.4687	0.0134
847.6337	0.0198
847.7986	0.0542
847.9635	-0.0006
848.1284	-0.0363
848.2932	-0.0076
848.458	0.0257
848.6228	0.0029
848.7876	-0.0606
848.9524	0.0434
849.1172	-0.0068
849.2819	0.0411
849.4466	-0.0052
849.6113	0.016
849.7759	-0.0044
849.9406	0.013
850.1052	0.0234
850.2698	0.0169
850.4344	-0.0038
850.599	-0.0261
850.7635	0.0294
850.928	0.0022
851.0925	0.0322
851.257	-0.0168
851.4215	0.0029
851.5859	0.0614
851.7503	-0.0033
851.9147	0.0161
852.0791	-0.0067
852.2434	-0.0126
852.4078	0.0125
852.5721	0.0034
852.7364	-0.0814
852.9007	0.0331
853.0649	-0.0043
853.2291	0.0082
853.3934	-0.0076
853.5575	-0.0282
853.7217	-0.009
853.8859	0.0505
854.05	-0.0132
854.2141	-0.0378
854.3782	0.0504
854.5423	0.0212
854.7063	0.023
854.8703	0.0006
855.0343	0.0668
855.1983	0.0036
855.3623	-0.0357
855.5262	0.0427
855.6901	0.0464
855.854	0.0368
856.0179	0.0856
856.1818	0.0373
856.3456	-0.0466
856.5094	0.0029
856.6732	0.0082
856.837	0.0702
857.0008	0.072
857.1645	-0.0224
857.3282	0.0285
857.4919	-0.0489
857.6556	0.0663
857.8192	0.0008
857.9828	0.0479
858.1465	0.0119
858.31	0.0536
858.4736	-0.0597
858.6372	-0.0225
858.8007	0.0113
858.9642	-0.0523
859.1277	0.049
859.2911	0.0303
859.4546	0.1123
859.618	0.0085
859.7814	0.0434
859.9448	-0.0515
860.1081	-0.0456
860.2715	0.0668
860.4348	-0.0222
860.5981	0.0063
860.7614	-0.03
860.9246	-0.0276
861.0879	-0.0347
861.2511	-0.0274
861.4143	-0.048
861.5774	-0.0495
861.7406	-0.0476
861.9037	-0.1281
862.0668	-0.0024
862.2299	0.0561
862.393	-0.082
862.556	0.0867
862.7191	-0.0532
862.8821	0.0037
863.0451	0.0587
863.208	-0.0149
863.371	0.0765
863.5339	0.0565
863.6968	-0.092
863.8597	0.0716
864.0225	-0.1714
864.1854	0.1288
864.3482	-0.0304
864.511	-0.0076
864.6737	0.0213
864.8365	0.1444
864.9992	-0.0107
865.1619	-0.0176
865.3246	-0.0661
865.4873	0.0173
865.65	0.0129
865.8126	0.1733
865.9752	0.0609
866.1378	-0.0823
866.3004	-0.0181
866.4629	-0.0257
866.6254	0.1478
866.7879	-0.0421
866.9504	-0.1273
867.1129	-0.0084
867.2753	0.0429
867.4377	0.3548
867.6001	-0.2144
867.7625	0.1408
867.9249	0.0235
868.0872	0.1743
868.2495	-0.1008
868.4118	-0.0909
868.5741	0.0033
868.7363	0.1316
868.8986	-0.0228
869.0608	0.1083
869.223	0.0602
869.3851	0.1281
869.5473	-0.1531
869.7094	-0.1242
869.8715	0.4086
870.0336	0.1551
870.1957	0.3558
870.3577	0.1643
870.5197	-0.4978
870.6817	-0.1444
870.8437	-0.0302
871.0057	-0.0119
871.1676	-0.0381
871.3295	-0.2613
871.4914	0.3026
871.6533	-0.2041
871.8151	0.0097
871.977	0.3486
872.1388	-0.1723
872.3006	-0.2428
872.4623	-0.0578
872.6241	-0.0774
872.7858	0.0041
872.9475	-0.1747
873.1092	-0.1376
873.2709	-0.088
873.4325	0.4244
873.5941	0.3593
873.7557	0.24
873.9173	-0.008
874.0789	-0.1564
874.2404	0.1478
874.4019	-0.2396
874.5634	-0.1637
874.7249	0.1952
874.8863	0.094
875.0478	-0.0421
875.2092	-0.0967
875.3706	0.3305
875.5319	-0.002
875.6933	0.2033
875.8546	-0.2904
876.0159	0.2592
876.1772	-0.4323
876.3385	-0
876.4997	-0.2567
876.6609	-0
876.8221	0.1021
876.9833	-0.3034
877.1445	0.322
877.3056	0.0197
877.4667	-0.8516
877.6278	0.08
877.7889	0.6345
877.9499	-0.6448
878.111	0.3915
878.272	0.4924
878.433	0.0807
878.5939	0.5873
878.7549	-0.2133
878.9158	0.2727
879.0767	-0.1396
879.2376	0.1195
879.3984	-0.0629
879.5593	0.666
879.7201	0.3722
879.8809	0.0421
880.0417	-0.0771
880.2024	0.0755
880.3632	-0.0407
880.5239	-0
880.6846	-0.0856
880.8452	0.0746
881.0059	-0.2162
881.1665	-0
881.3271	-0.1862
881.4877	-0.0019
881.6483	-0
881.8088	0.401
881.9693	0.1053
882.1298	0.1053
882.2903	0.1053
