Data from MonoPyChalIsomerACN10uM450nmA_Absorbance_13-11-21-692.txt Node
Date: Tue Jul 09 13:11:21 BST 2024
User: LASERRRRR
Spectrometer: FLMT03099
Trigger mode: 0
Integration Time (sec): 2.000000E-1
Scans to average: 1
Electric dark correction enabled: true
Nonlinearity correction enabled: false
Boxcar width: 0
XAxis mode: Wavelengths
Number of Pixels in Spectrum: 3648
>>>>>Begin Spectral Data<<<<<
179.3399	0.0035
179.5586	0.0035
179.7771	0.0035
179.9957	-0.2329
180.2143	-0
180.4329	0.4252
180.6514	1.2236
180.8699	-0
181.0885	-0
181.307	-0
181.5255	-0
181.744	-0
181.9625	0.0647
182.181	0.2434
182.3994	-0
182.6179	0.1141
182.8363	-0
183.0547	0.0103
183.2732	0.1343
183.4916	0.0313
183.71	0.0915
183.9284	0.0258
184.1467	0.0311
184.3651	0.0758
184.5835	0.095
184.8018	0.1936
185.0201	0.1751
185.2385	0.029
185.4568	-0.0585
185.6751	0.1314
185.8934	-0.0582
186.1117	0.0328
186.3299	-0.0728
186.5482	0.0294
186.7664	-0.0159
186.9847	0.0698
187.2029	0.1544
187.4211	-0.0038
187.6393	-0.0299
187.8575	0.1245
188.0757	0.0474
188.2939	0.2298
188.512	0.0561
188.7302	0.0945
188.9483	0.0315
189.1665	0.1985
189.3846	0.1267
189.6027	0.1834
189.8208	0.1031
190.0389	0.2372
190.257	0.1702
190.475	0.1711
190.6931	0.1429
190.9111	0.3108
191.1292	0.2607
191.3472	0.4373
191.5652	0.4142
191.7832	0.3683
192.0012	0.2966
192.2192	0.4737
192.4371	0.4816
192.6551	0.4012
192.873	0.4367
193.091	0.4462
193.3089	0.5906
193.5268	0.5377
193.7447	0.4295
193.9626	0.4835
194.1805	0.5241
194.3984	0.5996
194.6162	0.6514
194.8341	0.5334
195.0519	0.6111
195.2697	0.5277
195.4875	0.4753
195.7054	0.6823
195.9231	0.7088
196.1409	0.5943
196.3587	0.6286
196.5765	0.7199
196.7942	0.7737
197.012	0.6621
197.2297	0.6444
197.4474	0.7974
197.6651	0.6548
197.8828	0.8259
198.1005	0.6907
198.3182	0.7844
198.5358	0.6604
198.7535	0.7787
198.9711	0.8634
199.1888	0.7359
199.4064	0.8213
199.624	0.7717
199.8416	0.8052
200.0592	0.7889
200.2767	0.7622
200.4943	0.8193
200.7119	0.9152
200.9294	0.9266
201.1469	0.7996
201.3645	0.8024
201.582	0.9411
201.7995	0.7239
202.017	0.9265
202.2344	0.8287
202.4519	1.0875
202.6694	0.8459
202.8868	0.94
203.1042	1.0638
203.3217	0.8785
203.5391	1.0129
203.7565	0.9217
203.9739	0.9295
204.1913	0.8009
204.4086	0.8826
204.626	1.0207
204.8433	0.9324
205.0607	0.9484
205.278	0.9004
205.4953	1.1352
205.7126	0.8706
205.9299	1.0239
206.1472	0.9569
206.3644	0.8923
206.5817	1.0672
206.7989	1.0564
207.0162	1.0494
207.2334	0.9683
207.4506	1.0061
207.6678	0.9813
207.885	1.1549
208.1022	0.9936
208.3194	1.0362
208.5365	0.9947
208.7537	1.0285
208.9708	1.0785
209.1879	1.1305
209.405	1.0704
209.6222	1.0343
209.8392	1.1171
210.0563	1.0561
210.2734	1.1357
210.4905	1.0435
210.7075	0.967
210.9245	0.9876
211.1416	1.097
211.3586	1.0842
211.5756	1.1245
211.7926	1.0291
212.0096	1.0217
212.2265	1.0647
212.4435	1.1475
212.6604	1.1157
212.8774	1.1591
213.0943	0.942
213.3112	0.9831
213.5281	1.0513
213.745	0.9594
213.9619	0.9508
214.1788	0.8877
214.3956	0.8749
214.6125	0.9055
214.8293	0.8957
215.0461	0.8727
215.2629	0.8993
215.4798	0.8237
215.6965	0.8428
215.9133	0.8326
216.1301	0.8486
216.3469	0.8157
216.5636	0.795
216.7803	0.7646
216.9971	0.7809
217.2138	0.7283
217.4305	0.7382
217.6472	0.6559
217.8639	0.6409
218.0805	0.6285
218.2972	0.593
218.5138	0.5491
218.7305	0.5084
218.9471	0.4826
219.1637	0.4468
219.3803	0.4253
219.5969	0.3781
219.8135	0.3933
220.0301	0.3613
220.2466	0.3526
220.4632	0.33
220.6797	0.3203
220.8962	0.3134
221.1127	0.2989
221.3292	0.3047
221.5457	0.2942
221.7622	0.2963
221.9787	0.2734
222.1951	0.2862
222.4116	0.281
222.628	0.2777
222.8444	0.2657
223.0608	0.2772
223.2772	0.2823
223.4936	0.2725
223.71	0.2758
223.9264	0.2904
224.1427	0.2646
224.3591	0.2555
224.5754	0.2765
224.7917	0.2755
225.008	0.2768
225.2243	0.2857
225.4406	0.2948
225.6569	0.2755
225.8732	0.2875
226.0894	0.2608
226.3057	0.2955
226.5219	0.2903
226.7381	0.2864
226.9543	0.2829
227.1705	0.2958
227.3867	0.2876
227.6029	0.29
227.8191	0.2861
228.0352	0.3072
228.2513	0.3038
228.4675	0.321
228.6836	0.3164
228.8997	0.3159
229.1158	0.3205
229.3319	0.3253
229.548	0.3275
229.764	0.3099
229.9801	0.322
230.1961	0.3288
230.4121	0.333
230.6282	0.3367
230.8442	0.3453
231.0602	0.3535
231.2761	0.3418
231.4921	0.3417
231.7081	0.3661
231.924	0.3587
232.14	0.3631
232.3559	0.3635
232.5718	0.3606
232.7877	0.3538
233.0036	0.3698
233.2195	0.3651
233.4353	0.376
233.6512	0.3788
233.867	0.3844
234.0829	0.3653
234.2987	0.3808
234.5145	0.3843
234.7303	0.3929
234.9461	0.387
235.1619	0.3866
235.3776	0.3897
235.5934	0.4003
235.8091	0.3899
236.0249	0.3866
236.2406	0.3945
236.4563	0.3968
236.672	0.402
236.8877	0.399
237.1034	0.4076
237.319	0.4019
237.5347	0.4086
237.7503	0.4136
237.966	0.4241
238.1816	0.4132
238.3972	0.4091
238.6128	0.4048
238.8284	0.4181
239.0439	0.4182
239.2595	0.4276
239.475	0.4217
239.6906	0.4343
239.9061	0.4071
240.1216	0.4143
240.3371	0.4123
240.5526	0.4242
240.7681	0.4099
240.9836	0.4093
241.199	0.404
241.4145	0.3991
241.6299	0.4096
241.8453	0.3979
242.0607	0.3729
242.2761	0.379
242.4915	0.3843
242.7069	0.3711
242.9223	0.3669
243.1376	0.3759
243.353	0.3526
243.5683	0.3691
243.7836	0.3536
243.9989	0.3482
244.2142	0.3298
244.4295	0.3285
244.6448	0.3308
244.86	0.3222
245.0753	0.3108
245.2905	0.2931
245.5057	0.3058
245.721	0.2956
245.9362	0.28
246.1514	0.2879
246.3665	0.2806
246.5817	0.2743
246.7969	0.2801
247.012	0.2729
247.2271	0.2662
247.4423	0.2623
247.6574	0.2628
247.8725	0.2615
248.0876	0.2487
248.3026	0.2502
248.5177	0.2511
248.7328	0.2405
248.9478	0.2402
249.1628	0.2432
249.3779	0.2433
249.5929	0.2325
249.8079	0.2245
250.0228	0.2276
250.2378	0.2332
250.4528	0.2218
250.6677	0.2204
250.8827	0.2094
251.0976	0.2118
251.3125	0.2231
251.5274	0.2016
251.7423	0.2066
251.9572	0.2114
252.172	0.2036
252.3869	0.2087
252.6017	0.2132
252.8166	0.2148
253.0314	0.2057
253.2462	0.2077
253.461	0.201
253.6758	0.2062
253.8906	0.1942
254.1053	0.2059
254.3201	0.2031
254.5348	0.204
254.7496	0.2024
254.9643	0.1971
255.179	0.2009
255.3937	0.2
255.6083	0.1995
255.823	0.1965
256.0377	0.1911
256.2523	0.1956
256.467	0.1888
256.6816	0.1973
256.8962	0.197
257.1108	0.1937
257.3254	0.1962
257.54	0.1976
257.7545	0.1948
257.9691	0.1975
258.1836	0.1988
258.3981	0.1972
258.6127	0.1999
258.8272	0.1907
259.0417	0.1928
259.2561	0.19
259.4706	0.187
259.6851	0.1921
259.8995	0.1894
260.114	0.1938
260.3284	0.1992
260.5428	0.2022
260.7572	0.2013
260.9716	0.196
261.186	0.2026
261.4003	0.1999
261.6147	0.1951
261.829	0.2012
262.0433	0.1983
262.2577	0.1957
262.472	0.1977
262.6863	0.1831
262.9005	0.1967
263.1148	0.1977
263.3291	0.1923
263.5433	0.1956
263.7576	0.1932
263.9718	0.1988
264.186	0.1877
264.4002	0.1805
264.6144	0.1884
264.8286	0.1825
265.0427	0.1811
265.2569	0.1788
265.471	0.1818
265.6851	0.1708
265.8993	0.1823
266.1134	0.1761
266.3275	0.1767
266.5415	0.1681
266.7556	0.1887
266.9697	0.169
267.1837	0.1756
267.3978	0.1919
267.6118	0.1968
267.8258	0.1894
268.0398	0.1935
268.2538	0.1898
268.4677	0.1949
268.6817	0.195
268.8957	0.1878
269.1096	0.1863
269.3235	0.1783
269.5374	0.1784
269.7514	0.1643
269.9652	0.1722
270.1791	0.1586
270.393	0.1587
270.6068	0.1503
270.8207	0.1474
271.0345	0.1565
271.2483	0.1441
271.4622	0.1507
271.676	0.1506
271.8897	0.1487
272.1035	0.1353
272.3173	0.1512
272.531	0.143
272.7448	0.1483
272.9585	0.1339
273.1722	0.1374
273.3859	0.1398
273.5996	0.1357
273.8133	0.1479
274.0269	0.1453
274.2406	0.141
274.4542	0.137
274.6679	0.1334
274.8815	0.1445
275.0951	0.1485
275.3087	0.1366
275.5223	0.1345
275.7358	0.1447
275.9494	0.1428
276.1629	0.1429
276.3765	0.1398
276.59	0.1396
276.8035	0.1434
277.017	0.147
277.2305	0.1428
277.444	0.1387
277.6574	0.1399
277.8709	0.1536
278.0843	0.1425
278.2978	0.1447
278.5112	0.1495
278.7246	0.1399
278.938	0.1453
279.1513	0.1483
279.3647	0.1453
279.5781	0.144
279.7914	0.1514
280.0047	0.1493
280.2181	0.1523
280.4314	0.1476
280.6447	0.1462
280.8579	0.1502
281.0712	0.1493
281.2845	0.1496
281.4977	0.1521
281.711	0.1481
281.9242	0.1529
282.1374	0.147
282.3506	0.1415
282.5638	0.1508
282.7769	0.1583
282.9901	0.1482
283.2033	0.154
283.4164	0.153
283.6295	0.1634
283.8426	0.1476
284.0557	0.1455
284.2688	0.1499
284.4819	0.1467
284.695	0.1588
284.908	0.1556
285.1211	0.1547
285.3341	0.1543
285.5471	0.1645
285.7601	0.1512
285.9731	0.1573
286.1861	0.1572
286.3991	0.1639
286.612	0.1613
286.825	0.1623
287.0379	0.1533
287.2508	0.1559
287.4637	0.157
287.6766	0.1517
287.8895	0.1614
288.1024	0.1566
288.3152	0.1625
288.5281	0.1666
288.7409	0.1534
288.9538	0.1612
289.1666	0.1627
289.3794	0.1579
289.5922	0.1602
289.8049	0.1645
290.0177	0.1639
290.2304	0.1568
290.4432	0.1568
290.6559	0.1614
290.8686	0.159
291.0813	0.1647
291.294	0.1662
291.5067	0.1551
291.7194	0.1648
291.932	0.1633
292.1447	0.1652
292.3573	0.1671
292.5699	0.1672
292.7825	0.1597
292.9951	0.1661
293.2077	0.1544
293.4203	0.158
293.6328	0.167
293.8454	0.1569
294.0579	0.1607
294.2704	0.171
294.4829	0.1656
294.6954	0.159
294.9079	0.1702
295.1204	0.1605
295.3328	0.1578
295.5453	0.1557
295.7577	0.1565
295.9701	0.1592
296.1825	0.1582
296.3949	0.1528
296.6073	0.1646
296.8197	0.1625
297.0321	0.1608
297.2444	0.1566
297.4567	0.1491
297.6691	0.1563
297.8814	0.1584
298.0937	0.1598
298.306	0.1621
298.5182	0.1495
298.7305	0.1577
298.9428	0.1554
299.155	0.1559
299.3672	0.1571
299.5794	0.1599
299.7916	0.1609
300.0038	0.1582
300.216	0.1639
300.4282	0.1577
300.6403	0.1548
300.8525	0.1613
301.0646	0.1593
301.2767	0.1582
301.4888	0.1509
301.7009	0.1574
301.913	0.1617
302.125	0.1588
302.3371	0.1606
302.5491	0.1551
302.7612	0.1614
302.9732	0.1593
303.1852	0.1538
303.3972	0.1539
303.6092	0.1564
303.8211	0.1613
304.0331	0.154
304.245	0.1603
304.457	0.1594
304.6689	0.1536
304.8808	0.1603
305.0927	0.1585
305.3046	0.1543
305.5164	0.1431
305.7283	0.1537
305.9401	0.1489
306.152	0.1512
306.3638	0.1541
306.5756	0.1476
306.7874	0.1455
306.9992	0.1417
307.2109	0.1389
307.4227	0.1379
307.6344	0.1325
307.8462	0.1328
308.0579	0.1345
308.2696	0.1293
308.4813	0.1314
308.693	0.1293
308.9046	0.1287
309.1163	0.1209
309.328	0.1219
309.5396	0.1213
309.7512	0.1216
309.9628	0.1206
310.1744	0.1211
310.386	0.1114
310.5976	0.1165
310.8091	0.1166
311.0207	0.1151
311.2322	0.1133
311.4437	0.1143
311.6552	0.1182
311.8667	0.1104
312.0782	0.1089
312.2897	0.108
312.5012	0.1049
312.7126	0.0982
312.924	0.1002
313.1355	0.1063
313.3469	0.1055
313.5583	0.1067
313.7696	0.1
313.981	0.0997
314.1924	0.093
314.4037	0.098
314.6151	0.095
314.8264	0.1017
315.0377	0.1022
315.249	0.0981
315.4603	0.0991
315.6716	0.1008
315.8828	0.0949
316.0941	0.1035
316.3053	0.0919
316.5165	0.0893
316.7277	0.0841
316.9389	0.103
317.1501	0.0913
317.3613	0.0905
317.5724	0.088
317.7836	0.0943
317.9947	0.0924
318.2058	0.0911
318.417	0.091
318.6281	0.0967
318.8391	0.092
319.0502	0.0896
319.2613	0.0995
319.4723	0.0964
319.6834	0.0911
319.8944	0.0971
320.1054	0.0891
320.3164	0.0958
320.5274	0.0932
320.7383	0.0942
320.9493	0.0908
321.1602	0.0983
321.3712	0.1022
321.5821	0.095
321.793	0.0887
322.0039	0.0916
322.2148	0.1003
322.4257	0.0981
322.6365	0.0937
322.8474	0.0952
323.0582	0.1005
323.269	0.0934
323.4798	0.0967
323.6906	0.0941
323.9014	0.0979
324.1122	0.0965
324.3229	0.0941
324.5337	0.0893
324.7444	0.099
324.9551	0.1029
325.1658	0.1019
325.3765	0.0983
325.5872	0.0969
325.7979	0.1033
326.0085	0.1096
326.2192	0.1036
326.4298	0.1045
326.6404	0.0942
326.851	0.0934
327.0616	0.1026
327.2722	0.0957
327.4828	0.0984
327.6933	0.1024
327.9039	0.1059
328.1144	0.098
328.3249	0.1026
328.5354	0.0991
328.7459	0.0996
328.9564	0.1029
329.1669	0.102
329.3773	0.1079
329.5878	0.102
329.7982	0.1092
330.0086	0.1056
330.219	0.105
330.4294	0.1044
330.6398	0.1033
330.8502	0.1131
331.0605	0.0987
331.2708	0.1024
331.4812	0.097
331.6915	0.1069
331.9018	0.0913
332.1121	0.1045
332.3224	0.1002
332.5326	0.0978
332.7429	0.1032
332.9531	0.1032
333.1633	0.1133
333.3735	0.111
333.5837	0.0984
333.7939	0.1026
334.0041	0.1033
334.2143	0.0978
334.4244	0.1035
334.6346	0.1012
334.8447	0.1063
335.0548	0.106
335.2649	0.1028
335.475	0.1066
335.685	0.1116
335.8951	0.1019
336.1051	0.0975
336.3152	0.103
336.5252	0.1006
336.7352	0.1027
336.9452	0.1076
337.1552	0.1041
337.3652	0.109
337.5751	0.1148
337.7851	0.1028
337.995	0.1148
338.2049	0.097
338.4148	0.1067
338.6247	0.11
338.8346	0.106
339.0445	0.1039
339.2543	0.1148
339.4642	0.1123
339.674	0.1067
339.8838	0.1083
340.0936	0.1081
340.3034	0.1203
340.5132	0.1088
340.7229	0.1169
340.9327	0.1187
341.1424	0.1169
341.3522	0.112
341.5619	0.1167
341.7716	0.1241
341.9813	0.1096
342.1909	0.1178
342.4006	0.1218
342.6102	0.1109
342.8199	0.1205
343.0295	0.1114
343.2391	0.1247
343.4487	0.123
343.6583	0.123
343.8679	0.1185
344.0774	0.1216
344.287	0.1284
344.4965	0.1227
344.706	0.1262
344.9155	0.1255
345.125	0.1269
345.3345	0.1237
345.544	0.1211
345.7534	0.1259
345.9629	0.1218
346.1723	0.1313
346.3817	0.1345
346.5911	0.1304
346.8005	0.1266
347.0099	0.119
347.2193	0.1395
347.4286	0.1297
347.638	0.1332
347.8473	0.132
348.0566	0.1287
348.2659	0.1268
348.4752	0.135
348.6845	0.1308
348.8937	0.1344
349.103	0.137
349.3122	0.139
349.5214	0.1379
349.7306	0.1326
349.9398	0.1282
350.149	0.1362
350.3582	0.1268
350.5674	0.1411
350.7765	0.1418
350.9856	0.1364
351.1948	0.1435
351.4039	0.132
351.613	0.1329
351.822	0.1347
352.0311	0.1388
352.2402	0.1444
352.4492	0.1388
352.6582	0.1406
352.8672	0.1477
353.0762	0.1528
353.2852	0.1571
353.4942	0.152
353.7032	0.1478
353.9121	0.15
354.1211	0.1382
354.33	0.1467
354.5389	0.1525
354.7478	0.1437
354.9567	0.1464
355.1655	0.1526
355.3744	0.1576
355.5833	0.1469
355.7921	0.1519
356.0009	0.1535
356.2097	0.1514
356.4185	0.159
356.6273	0.1597
356.8361	0.1539
357.0448	0.1575
357.2536	0.1557
357.4623	0.1544
357.671	0.1579
357.8797	0.1621
358.0884	0.1543
358.2971	0.1634
358.5057	0.1672
358.7144	0.1616
358.923	0.1713
359.1316	0.1657
359.3402	0.1733
359.5488	0.1665
359.7574	0.1744
359.966	0.172
360.1746	0.1649
360.3831	0.1805
360.5916	0.1888
360.8002	0.1749
361.0087	0.1762
361.2172	0.183
361.4256	0.1756
361.6341	0.1905
361.8426	0.1859
362.051	0.1771
362.2594	0.1816
362.4678	0.174
362.6762	0.18
362.8846	0.1887
363.093	0.1818
363.3014	0.1901
363.5097	0.1818
363.718	0.1843
363.9264	0.179
364.1347	0.1918
364.343	0.1878
364.5513	0.1969
364.7595	0.1962
364.9678	0.1867
365.176	0.1943
365.3842	0.1874
365.5925	0.1923
365.8007	0.1899
366.0089	0.2059
366.217	0.1927
366.4252	0.2028
366.6333	0.1962
366.8415	0.1948
367.0496	0.2063
367.2577	0.2068
367.4658	0.2086
367.6739	0.198
367.882	0.204
368.09	0.2017
368.2981	0.2107
368.5061	0.1992
368.7141	0.2096
368.9221	0.1991
369.1301	0.2171
369.3381	0.2132
369.5461	0.2145
369.754	0.2094
369.962	0.205
370.1699	0.2252
370.3778	0.2113
370.5857	0.2152
370.7936	0.2096
371.0015	0.2185
371.2093	0.2123
371.4172	0.2208
371.625	0.2136
371.8328	0.2254
372.0406	0.2264
372.2484	0.2167
372.4562	0.2202
372.664	0.2187
372.8717	0.2259
373.0795	0.224
373.2872	0.2168
373.4949	0.2113
373.7026	0.2218
373.9103	0.2155
374.118	0.228
374.3256	0.2259
374.5333	0.2244
374.7409	0.2251
374.9485	0.235
375.1561	0.223
375.3637	0.2262
375.5713	0.2355
375.7789	0.2261
375.9864	0.2262
376.194	0.2267
376.4015	0.2317
376.609	0.2307
376.8165	0.2398
377.024	0.227
377.2315	0.2368
377.4389	0.2349
377.6464	0.2259
377.8538	0.2336
378.0612	0.23
378.2686	0.2321
378.476	0.2253
378.6834	0.2465
378.8908	0.2402
379.0981	0.2465
379.3055	0.2506
379.5128	0.2356
379.7201	0.2367
379.9274	0.2558
380.1347	0.2455
380.342	0.2443
380.5492	0.2505
380.7565	0.2519
380.9637	0.2573
381.1709	0.247
381.3781	0.2394
381.5853	0.2481
381.7925	0.2377
381.9997	0.2454
382.2068	0.2496
382.4139	0.2512
382.6211	0.242
382.8282	0.2528
383.0353	0.2471
383.2424	0.2535
383.4494	0.2623
383.6565	0.2541
383.8635	0.254
384.0706	0.2543
384.2776	0.2558
384.4846	0.253
384.6916	0.2565
384.8986	0.2516
385.1055	0.2647
385.3125	0.2581
385.5194	0.2655
385.7263	0.2643
385.9333	0.2587
386.1402	0.2457
386.347	0.254
386.5539	0.2553
386.7608	0.2565
386.9676	0.2556
387.1744	0.249
387.3813	0.2567
387.5881	0.2497
387.7948	0.2527
388.0016	0.254
388.2084	0.2491
388.4151	0.2479
388.6219	0.2528
388.8286	0.2544
389.0353	0.2467
389.242	0.2516
389.4487	0.2376
389.6553	0.2549
389.862	0.2324
390.0686	0.245
390.2753	0.249
390.4819	0.2452
390.6885	0.2417
390.8951	0.243
391.1016	0.246
391.3082	0.2348
391.5147	0.2346
391.7213	0.2408
391.9278	0.2339
392.1343	0.2344
392.3408	0.2283
392.5473	0.2368
392.7537	0.2445
392.9602	0.2273
393.1666	0.2302
393.373	0.2351
393.5794	0.2363
393.7858	0.221
393.9922	0.2152
394.1986	0.2178
394.4049	0.2326
394.6113	0.2318
394.8176	0.2158
395.0239	0.2297
395.2302	0.223
395.4365	0.2265
395.6428	0.2288
395.8491	0.2106
396.0553	0.2181
396.2615	0.2231
396.4678	0.2322
396.674	0.2198
396.8802	0.2137
397.0863	0.2162
397.2925	0.2126
397.4987	0.2158
397.7048	0.2141
397.9109	0.2151
398.117	0.211
398.3231	0.2187
398.5292	0.2122
398.7353	0.2107
398.9413	0.2098
399.1474	0.2067
399.3534	0.2105
399.5594	0.2104
399.7654	0.2107
399.9714	0.2082
400.1774	0.2159
400.3833	0.2046
400.5893	0.2009
400.7952	0.2018
401.0011	0.2127
401.207	0.2028
401.4129	0.1902
401.6188	0.201
401.8247	0.2047
402.0305	0.2009
402.2364	0.2203
402.4422	0.2141
402.648	0.216
402.8538	0.206
403.0596	0.1963
403.2654	0.2082
403.4711	0.1975
403.6768	0.2039
403.8826	0.2091
404.0883	0.213
404.294	0.2184
404.4997	0.2055
404.7054	0.208
404.911	0.2105
405.1167	0.2115
405.3223	0.2098
405.5279	0.2085
405.7335	0.2152
405.9391	0.2054
406.1447	0.2069
406.3502	0.2117
406.5558	0.2067
406.7613	0.2072
406.9668	0.2048
407.1724	0.2068
407.3778	0.2189
407.5833	0.2106
407.7888	0.214
407.9942	0.2019
408.1997	0.2057
408.4051	0.2022
408.6105	0.2169
408.8159	0.2192
409.0213	0.2047
409.2267	0.2074
409.432	0.205
409.6374	0.2034
409.8427	0.2116
410.048	0.2092
410.2533	0.2078
410.4586	0.2056
410.6639	0.204
410.8691	0.2182
411.0744	0.2072
411.2796	0.2145
411.4848	0.1952
411.69	0.2168
411.8952	0.2141
412.1004	0.2094
412.3056	0.2127
412.5107	0.2011
412.7158	0.2132
412.921	0.2095
413.1261	0.1946
413.3312	0.2096
413.5362	0.2091
413.7413	0.1949
413.9464	0.2045
414.1514	0.1977
414.3564	0.2112
414.5614	0.2082
414.7664	0.2077
414.9714	0.1981
415.1764	0.1906
415.3813	0.202
415.5863	0.2004
415.7912	0.214
415.9961	0.2104
416.201	0.2166
416.4059	0.2021
416.6108	0.2045
416.8156	0.1966
417.0205	0.2198
417.2253	0.2116
417.4301	0.2115
417.6349	0.202
417.8397	0.193
418.0445	0.204
418.2492	0.1983
418.454	0.1963
418.6587	0.1957
418.8634	0.2021
419.0681	0.1987
419.2728	0.1973
419.4775	0.1888
419.6822	0.1959
419.8868	0.1945
420.0915	0.2
420.2961	0.2035
420.5007	0.1953
420.7053	0.1914
420.9099	0.1844
421.1144	0.192
421.319	0.1898
421.5235	0.2025
421.728	0.1802
421.9325	0.1791
422.137	0.1859
422.3415	0.1989
422.546	0.1797
422.7504	0.1914
422.9549	0.1843
423.1593	0.1777
423.3637	0.1857
423.5681	0.1919
423.7725	0.1722
423.9769	0.1759
424.1812	0.1817
424.3856	0.1661
424.5899	0.1734
424.7942	0.1705
424.9985	0.1795
425.2028	0.1737
425.4071	0.1773
425.6113	0.1739
425.8156	0.1599
426.0198	0.1827
426.224	0.1716
426.4282	0.1613
426.6324	0.1622
426.8366	0.1622
427.0407	0.1636
427.2449	0.1683
427.449	0.1529
427.6531	0.1631
427.8572	0.1535
428.0613	0.1623
428.2654	0.1588
428.4694	0.1671
428.6735	0.1674
428.8775	0.1525
429.0815	0.1483
429.2855	0.1595
429.4895	0.1376
429.6935	0.1461
429.8975	0.1461
430.1014	0.1475
430.3053	0.1384
430.5093	0.1464
430.7132	0.1483
430.9171	0.1383
431.1209	0.14
431.3248	0.1406
431.5286	0.1327
431.7325	0.134
431.9363	0.134
432.1401	0.139
432.3439	0.1285
432.5477	0.1361
432.7514	0.123
432.9552	0.1183
433.1589	0.1238
433.3627	0.1199
433.5664	0.1165
433.7701	0.1046
433.9737	0.1139
434.1774	0.1138
434.3811	0.1118
434.5847	0.1153
434.7883	0.1117
434.9919	0.1074
435.1955	0.0963
435.3991	0.1066
435.6027	0.1051
435.8062	0.1028
436.0098	0.1045
436.2133	0.0989
436.4168	0.1076
436.6203	0.1036
436.8238	0.0903
437.0272	0.0906
437.2307	0.0988
437.4341	0.0973
437.6375	0.0999
437.841	0.085
438.0443	0.0929
438.2477	0.0811
438.4511	0.1021
438.6545	0.0772
438.8578	0.0873
439.0611	0.0831
439.2644	0.09
439.4677	0.0823
439.671	0.0836
439.8743	0.0838
440.0775	0.0676
440.2808	0.066
440.484	0.0823
440.6872	0.0646
440.8904	0.0647
441.0936	0.0552
441.2967	0.0712
441.4999	0.0634
441.703	0.0571
441.9062	0.0599
442.1093	0.0656
442.3124	0.0644
442.5155	0.0592
442.7185	0.0459
442.9216	0.0644
443.1246	0.0658
443.3276	0.0557
443.5307	0.0545
443.7337	0.0581
443.9366	0.0542
444.1396	0.0543
444.3426	0.0472
444.5455	0.047
444.7484	0.0421
444.9513	0.0479
445.1542	0.0459
445.3571	0.0403
445.56	0.0406
445.7628	0.0366
445.9657	0.0519
446.1685	0.0408
446.3713	0.044
446.5741	0.0391
446.7769	0.0358
446.9797	0.0268
447.1824	0.0437
447.3852	0.0348
447.5879	0.0336
447.7906	0.047
447.9933	0.0316
448.196	0.0414
448.3986	0.031
448.6013	0.0294
448.8039	0.0255
449.0066	0.0344
449.2092	0.0228
449.4118	0.0303
449.6143	0.0252
449.8169	0.0182
450.0195	0.0188
450.222	0.0205
450.4245	0.0146
450.627	0.0264
450.8295	0.0166
451.032	0.0269
451.2345	0.0244
451.4369	0.0311
451.6394	0.0198
451.8418	0.0138
452.0442	0.0222
452.2466	0.0126
452.449	0.0174
452.6513	0.0228
452.8537	0.0231
453.056	0.0153
453.2583	0.017
453.4607	0.0235
453.663	0.0199
453.8652	0.0085
454.0675	0.0148
454.2697	0.0236
454.472	0.0168
454.6742	0.0145
454.8764	0.0054
455.0786	0.0227
455.2808	0.0158
455.4829	0.0136
455.6851	0.0058
455.8872	0.0093
456.0893	0.0028
456.2915	-0.0029
456.4935	0.007
456.6956	0.0206
456.8977	0.0055
457.0997	-0.0011
457.3018	0.0125
457.5038	0.0074
457.7058	0.0041
457.9078	0.0091
458.1098	-0.006
458.3117	0.011
458.5137	0.0085
458.7156	0.0082
458.9175	0.0014
459.1194	0.0098
459.3213	0.0011
459.5232	0.0063
459.725	0.0031
459.9269	0.0042
460.1287	0.0071
460.3305	-0.0043
460.5323	0.006
460.7341	0.0059
460.9359	-0.0039
461.1376	0.0011
461.3394	-0.0025
461.5411	0.0039
461.7428	-0.0031
461.9445	0.0022
462.1462	-0.0021
462.3479	0.004
462.5495	0.0053
462.7512	-0.0007
462.9528	0.0004
463.1544	0.0006
463.356	-0.0019
463.5576	0.009
463.7592	-0.0009
463.9607	-0.001
464.1623	0.0017
464.3638	0.0033
464.5653	0.0084
464.7668	-0.0018
464.9683	0.0039
465.1697	-0.0016
465.3712	0.0017
465.5726	-0.0019
465.7741	-0.0088
465.9755	-0.0044
466.1769	-0.0097
466.3782	0.0054
466.5796	0.0003
466.7809	-0
466.9823	-0.0066
467.1836	0.0006
467.3849	0.004
467.5862	-0.0031
467.7875	-0.0066
467.9887	0.0002
468.19	-0.0109
468.3912	-0.0057
468.5924	-0.006
468.7936	-0.0099
468.9948	0.0003
469.196	-0.0042
469.3972	-0.0022
469.5983	0.0182
469.7994	-0.0104
470.0006	-0.0057
470.2017	0.0059
470.4027	-0.0017
470.6038	0.0016
470.8049	0.001
471.0059	0.0013
471.2069	0.0189
471.408	-0.0001
471.6089	-0.0051
471.8099	-0.01
472.0109	-0.0103
472.2119	-0.0162
472.4128	0.0014
472.6137	-0.0124
472.8146	-0.0049
473.0155	-0.005
473.2164	-0.017
473.4173	-0.0162
473.6181	0.004
473.819	-0.0037
474.0198	-0.0056
474.2206	-0.0007
474.4214	-0.0069
474.6222	-0.0059
474.8229	-0.0122
475.0237	-0.001
475.2244	-0.0042
475.4251	-0.0002
475.6258	-0.0004
475.8265	-0.0097
476.0272	-0.0037
476.2278	0.001
476.4285	-0.0023
476.6291	-0.003
476.8297	-0.0135
477.0303	-0.0115
477.2309	-0.0048
477.4315	0.0018
477.632	-0.0038
477.8326	-0.0046
478.0331	0.0002
478.2336	-0.0062
478.4341	-0.009
478.6346	-0.0022
478.8351	-0.0053
479.0355	-0.0021
479.236	-0.0028
479.4364	-0.011
479.6368	-0
479.8372	-0.0078
480.0376	-0.0083
480.2379	0.0024
480.4383	0.0039
480.6386	-0.0092
480.8389	-0.006
481.0392	-0.0124
481.2395	-0.0095
481.4398	-0.0015
481.6401	-0.0118
481.8403	-0.0045
482.0405	-0.0117
482.2408	-0.0041
482.441	0.0071
482.6411	0.0026
482.8413	-0.0096
483.0415	-0.0071
483.2416	-0.0069
483.4417	-0.0045
483.6419	0.0036
483.8419	-0.0074
484.042	-0.0018
484.2421	-0.0033
484.4422	-0.0072
484.6422	-0.0132
484.8422	-0.0057
485.0422	-0.0085
485.2422	-0.0106
485.4422	-0.0033
485.6422	-0.0061
485.8421	-0.0026
486.042	-0.0031
486.242	-0.0097
486.4419	-0.0085
486.6417	-0.0088
486.8416	-0.0098
487.0415	-0.0061
487.2413	-0.0022
487.4411	-0.0103
487.641	-0.0084
487.8408	-0.0142
488.0405	-0.0065
488.2403	0.0002
488.4401	-0.0132
488.6398	-0.0125
488.8395	0.0002
489.0392	-0.0058
489.2389	-0.0085
489.4386	-0.0065
489.6383	-0.0027
489.8379	-0.0037
490.0376	-0.006
490.2372	-0.0104
490.4368	-0.0201
490.6364	0.0047
490.836	-0.0094
491.0355	0.0005
491.2351	-0.008
491.4346	-0.0076
491.6341	-0.0104
491.8336	-0.0079
492.0331	-0.0063
492.2326	-0.0117
492.432	-0.0061
492.6315	-0.0083
492.8309	-0.0055
493.0303	-0.0049
493.2297	-0.0068
493.4291	-0.0088
493.6284	-0.0034
493.8278	-0.0066
494.0271	-0.0018
494.2264	-0.0047
494.4257	-0.0026
494.625	-0.0021
494.8243	-0.0041
495.0236	-0.018
495.2228	-0.0134
495.422	-0.0032
495.6213	-0.0117
495.8205	0.0055
496.0196	-0.0006
496.2188	-0
496.418	-0.0025
496.6171	-0.0034
496.8162	-0.0047
497.0153	0.0004
497.2144	-0.0048
497.4135	-0.0007
497.6126	-0.009
497.8116	-0.0021
498.0107	-0.0079
498.2097	-0.0077
498.4087	-0.0093
498.6077	-0.0075
498.8067	-0.0035
499.0056	-0.0019
499.2046	-0.0049
499.4035	-0.0095
499.6024	-0.0097
499.8013	-0.0018
500.0002	-0.0077
500.199	-0.0041
500.3979	0.0024
500.5967	-0.0162
500.7956	-0.0143
500.9944	-0.0063
501.1932	-0.0086
501.3919	-0.0097
501.5907	-0.0031
501.7895	-0.0018
501.9882	-0.0102
502.1869	-0.0051
502.3856	-0.0001
502.5843	-0.0087
502.783	-0.0099
502.9816	-0.0103
503.1803	-0.0076
503.3789	-0.0087
503.5775	0.0011
503.7761	-0.0086
503.9747	-0.0092
504.1732	-0.0029
504.3718	-0.0064
504.5703	-0.0009
504.7689	-0.0009
504.9674	0.0019
505.1658	-0.0065
505.3643	-0.0032
505.5628	0.0075
505.7612	-0.0116
505.9597	-0.0056
506.1581	-0.0053
506.3565	-0.0046
506.5549	-0.0051
506.7532	-0.0111
506.9516	-0.0005
507.1499	-0.0013
507.3482	-0.0042
507.5465	-0.0019
507.7448	-0.002
507.9431	-0.0037
508.1414	-0.0095
508.3396	0.0017
508.5379	-0.0015
508.7361	-0.0023
508.9343	-0.0093
509.1325	-0.0109
509.3306	-0.0017
509.5288	-0.0032
509.7269	-0.0128
509.9251	-0.0078
510.1232	-0.0053
510.3213	-0.0097
510.5193	0.0011
510.7174	-0.0064
510.9154	-0.0063
511.1135	-0.0005
511.3115	-0.0107
511.5095	-0.0086
511.7075	-0.0017
511.9055	-0.0103
512.1034	-0.0095
512.3014	-0.0041
512.4993	-0.004
512.6972	-0.0013
512.8951	-0.0109
513.093	-0.0111
513.2908	-0.0009
513.4887	-0.0058
513.6865	-0.0092
513.8844	-0.0038
514.0822	-0.005
514.2799	-0.0122
514.4777	-0.0076
514.6755	-0.0065
514.8732	-0.0058
515.0709	-0.0079
515.2687	-0.0062
515.4664	-0.0047
515.664	-0.0085
515.8617	-0.0081
516.0594	-0.004
516.257	0.0012
516.4546	-0.0161
516.6522	-0.0115
516.8498	-0.0152
517.0474	0.0009
517.2449	-0.0025
517.4425	-0.0042
517.64	-0.0051
517.8375	-0.0081
518.035	-0.0003
518.2325	-0.0055
518.43	0.0007
518.6274	-0.0105
518.8249	-0.0041
519.0223	-0.0105
519.2197	-0.0055
519.4171	-0.0016
519.6145	-0.0054
519.8118	-0.0134
520.0092	0
520.2065	-0.0167
520.4038	-0.0056
520.6011	-0.0099
520.7984	-0.0107
520.9956	-0.012
521.1929	-0.0088
521.3901	-0.0128
521.5874	-0.0076
521.7846	0.0004
521.9818	-0.0056
522.1789	-0.0042
522.3761	-0.0067
522.5732	-0.0044
522.7704	-0.0104
522.9675	-0.0112
523.1646	-0.0069
523.3617	-0.0031
523.5587	-0.006
523.7558	-0.0081
523.9528	-0.0022
524.1498	-0.0093
524.3468	-0.006
524.5438	-0.0032
524.7408	-0.0174
524.9378	-0.0148
525.1347	-0.0044
525.3316	-0.0044
525.5285	-0.0079
525.7254	-0.0098
525.9223	0.0031
526.1192	-0.0063
526.316	-0.0011
526.5129	-0.0033
526.7097	-0.0131
526.9065	-0.0018
527.1033	-0.0007
527.3	-0.0081
527.4968	-0.0092
527.6935	-0.006
527.8903	-0.0021
528.087	-0.0078
528.2837	-0.0054
528.4804	-0.0085
528.677	0.0021
528.8737	-0.0101
529.0703	-0.0039
529.2669	-0.0011
529.4635	-0.0107
529.6601	-0.0052
529.8567	-0.0031
530.0532	-0.0026
530.2498	-0.0056
530.4463	-0.0106
530.6428	-0.005
530.8393	-0.0072
531.0358	-0.0063
531.2322	-0.0064
531.4287	-0.0127
531.6251	-0.0065
531.8215	0.0003
532.0179	-0.0092
532.2143	-0.0028
532.4107	-0.0007
532.607	-0.0102
532.8034	-0.0077
532.9997	-0.0089
533.196	-0.0077
533.3923	0.0033
533.5886	-0.0024
533.7848	0.0016
533.9811	-0.0057
534.1773	-0.0029
534.3735	-0.0052
534.5697	-0.0099
534.7659	-0.0069
534.9621	-0.0023
535.1582	-0.004
535.3544	-0.0105
535.5505	-0.0066
535.7466	-0.0151
535.9427	-0.002
536.1387	-0.004
536.3348	0.0055
536.5308	-0.0065
536.7269	-0.0012
536.9229	-0.0015
537.1189	-0.0065
537.3148	-0.0009
537.5108	0.0005
537.7068	-0.0066
537.9027	-0.0091
538.0986	-0.0002
538.2945	-0.0009
538.4904	-0.0164
538.6863	-0.011
538.8821	-0.0056
539.078	-0.006
539.2738	-0.0061
539.4696	-0.0051
539.6654	-0.0043
539.8611	-0.0054
540.0569	-0.0042
540.2526	-0.0066
540.4484	0.0113
540.6441	0.0003
540.8398	-0.0081
541.0355	-0.0004
541.2311	0
541.4268	0.0012
541.6224	0.0024
541.818	-0.0059
542.0136	-0.0034
542.2092	-0.0055
542.4048	-0.0066
542.6003	-0.0066
542.7959	-0.0008
542.9914	-0.0071
543.1869	-0.0057
543.3824	-0.0044
543.5779	-0.0147
543.7734	-0.0095
543.9688	-0.0176
544.1642	-0.0082
544.3596	-0.0048
544.555	-0.0018
544.7504	-0.0065
544.9458	-0.0028
545.1411	0.0054
545.3365	-0.009
545.5318	0.0001
545.7271	0.0018
545.9224	-0.0004
546.1177	-0.0085
546.3129	-0.0006
546.5081	-0.0068
546.7034	-0.0057
546.8986	-0.0065
547.0938	-0.0008
547.289	-0.0041
547.4841	-0.0069
547.6793	-0.0017
547.8744	0.0007
548.0695	-0.0035
548.2646	-0.0089
548.4597	0.0039
548.6548	0.0003
548.8498	-0.0032
549.0448	-0.002
549.2399	-0.0013
549.4349	-0.0034
549.6298	-0.0059
549.8248	-0.0044
550.0198	0.0013
550.2147	0.0016
550.4096	-0.0064
550.6045	-0.0047
550.7994	0.0003
550.9943	0.0012
551.1892	-0.0058
551.384	-0.0147
551.5788	-0.0043
551.7737	-0.0022
551.9685	-0.0058
552.1632	-0.0048
552.358	-0.0095
552.5528	-0.0055
552.7475	-0.0148
552.9422	-0.0094
553.1369	-0.0039
553.3316	-0.0025
553.5263	-0.0047
553.7209	-0.0063
553.9156	-0.008
554.1102	-0.007
554.3048	-0.0068
554.4994	-0.0031
554.694	-0.0022
554.8885	-0.0058
555.0831	-0.0018
555.2776	-0.0053
555.4721	-0.0096
555.6666	-0.0051
555.8611	0.0005
556.0555	-0.0043
556.25	-0.003
556.4444	-0.0044
556.6388	-0.0104
556.8332	-0.0031
557.0276	-0.0024
557.222	-0.005
557.4163	0.0028
557.6107	-0.0068
557.805	-0.0046
557.9993	-0.0045
558.1936	-0.0063
558.3879	0.0021
558.5821	-0.0005
558.7764	-0.0073
558.9706	-0.0058
559.1648	-0.0057
559.359	-0.0113
559.5532	-0.0051
559.7473	-0.0066
559.9415	-0.0069
560.1356	-0.0074
560.3297	-0.0027
560.5238	-0.0077
560.7179	0.0011
560.9119	0.0005
561.106	-0.0015
561.3	0.0007
561.494	-0.0098
561.688	-0.0056
561.882	0.0011
562.076	0.0004
562.2699	-0.001
562.4639	-0.0014
562.6578	-0.0096
562.8517	-0.0067
563.0456	-0.0008
563.2395	-0.007
563.4333	-0.0054
563.6272	-0.0088
563.821	-0.0035
564.0148	0.0051
564.2086	-0.0106
564.4024	-0.0086
564.5961	-0.002
564.7899	0.001
564.9836	-0.0037
565.1773	-0.0058
565.371	0.0012
565.5647	-0.0059
565.7584	0.0011
565.952	-0.0011
566.1456	-0.0035
566.3393	0.0002
566.5329	-0.0043
566.7264	0
566.92	0.002
567.1136	-0.0057
567.3071	-0.0021
567.5006	-0.0029
567.6941	-0.0004
567.8876	-0.0017
568.0811	-0.0078
568.2745	-0.0097
568.468	-0.0087
568.6614	-0.0095
568.8548	-0.0026
569.0482	-0.0062
569.2416	-0.0042
569.4349	-0.0007
569.6283	-0.0081
569.8216	-0.0081
570.0149	-0.0017
570.2082	-0.0054
570.4015	-0.0044
570.5947	-0.005
570.788	-0.0042
570.9812	-0.0007
571.1744	-0.0047
571.3676	-0.0065
571.5608	-0.0037
571.754	-0.0053
571.9471	-0.0094
572.1402	-0.0055
572.3333	-0.0076
572.5264	-0.0065
572.7195	-0.0007
572.9126	-0.0017
573.1057	-0.0021
573.2987	0.0034
573.4917	-0.0061
573.6847	-0.0029
573.8777	-0.0088
574.0707	-0.0026
574.2636	-0.0014
574.4566	-0.0008
574.6495	-0.0022
574.8424	-0.0049
575.0353	-0.0014
575.2281	0.0029
575.421	-0.0083
575.6138	-0.0034
575.8067	-0.0051
575.9995	-0.0024
576.1923	-0.0058
576.385	-0.0036
576.5778	-0.0023
576.7706	0.001
576.9633	-0.0051
577.156	-0.0009
577.3487	-0.0005
577.5414	-0.0012
577.734	0.0034
577.9267	0.0015
578.1193	-0.0068
578.3119	-0.0007
578.5045	-0.0078
578.6971	0.0006
578.8897	-0.0046
579.0822	-0.0021
579.2747	0.0039
579.4673	0.001
579.6598	-0.0019
579.8522	-0.0022
580.0447	-0.0078
580.2372	-0.0014
580.4296	0.0027
580.622	0.0052
580.8144	-0.0008
581.0068	-0.0038
581.1992	-0.001
581.3915	-0.0016
581.5839	-0.0039
581.7762	-0.0046
581.9685	-0.0026
582.1608	-0.0019
582.353	0.002
582.5453	-0.003
582.7375	-0.0002
582.9298	-0.0087
583.122	-0.0006
583.3142	-0.001
583.5063	-0.004
583.6985	-0.004
583.8906	-0.0045
584.0827	-0.0024
584.2749	-0.0056
584.4669	-0.0065
584.659	-0.0087
584.8511	-0.0061
585.0431	-0.001
585.2352	-0.008
585.4272	-0.0084
585.6192	-0.006
585.8111	-0.0086
586.0031	-0.0023
586.195	-0.0074
586.387	-0.0041
586.5789	-0.0048
586.7708	-0.0109
586.9627	-0.0054
587.1545	-0.0032
587.3464	-0.0029
587.5382	-0.0065
587.73	-0.0056
587.9218	-0.0101
588.1136	-0.0029
588.3053	-0.002
588.4971	-0.0056
588.6888	-0.0076
588.8805	-0.0079
589.0722	-0.0005
589.2639	-0.0039
589.4556	-0.0023
589.6472	0.0019
589.8389	0.0017
590.0305	-0.0031
590.2221	-0.0024
590.4137	-0.0098
590.6052	-0.0043
590.7968	-0.0047
590.9883	-0.0034
591.1798	-0.0087
591.3713	-0.0021
591.5628	-0.0049
591.7543	-0.0048
591.9458	-0.0026
592.1372	-0.004
592.3286	-0.004
592.52	-0.0035
592.7114	0.005
592.9028	-0.0082
593.0941	-0.0032
593.2855	0.0014
593.4768	0.0004
593.6681	-0.0002
593.8594	0.0068
594.0506	0.0018
594.2419	0.0023
594.4331	-0.0037
594.6244	-0.0021
594.8156	-0.0094
595.0067	-0.0034
595.1979	-0.0066
595.3891	-0.0053
595.5802	-0.0065
595.7713	-0.0051
595.9624	0.0007
596.1535	0.0012
596.3446	-0.0021
596.5357	-0.0014
596.7267	-0.0007
596.9177	0.0017
597.1087	-0.0023
597.2997	0.0022
597.4907	-0.0012
597.6817	-0.0044
597.8726	-0.0039
598.0635	-0.0052
598.2544	-0.0046
598.4453	-0.0054
598.6362	-0.0026
598.827	-0.0052
599.0179	-0.0031
599.2087	-0.0121
599.3995	-0.0074
599.5903	-0.0006
599.7811	-0.005
599.9718	-0.0022
600.1626	-0.0016
600.3533	-0.0033
600.544	-0.0056
600.7347	0.0013
600.9254	-0.0026
601.116	-0.0032
601.3067	-0.0046
601.4973	-0.0056
601.6879	-0.0006
601.8785	-0.004
602.0691	-0.0061
602.2596	-0.0012
602.4502	-0.0078
602.6407	-0.0029
602.8312	-0.0072
603.0217	-0.004
603.2122	-0.002
603.4027	0.0003
603.5931	-0.0036
603.7835	-0.003
603.9739	-0.0046
604.1643	-0.0016
604.3547	-0.0026
604.5451	-0.0003
604.7354	-0.0047
604.9257	-0.0069
605.116	-0.0035
605.3063	-0.0003
605.4966	-0.005
605.6869	-0.0051
605.8771	0.0026
606.0673	-0.0008
606.2575	-0.0056
606.4477	-0.007
606.6379	-0.0084
606.8281	-0.0123
607.0182	-0.0099
607.2083	-0.0051
607.3985	-0.0135
607.5885	-0.0054
607.7786	-0.004
607.9687	-0.005
608.1587	-0.0019
608.3488	-0.0045
608.5388	0.0046
608.7288	-0.0058
608.9187	-0.0019
609.1087	-0.0039
609.2986	-0.0026
609.4886	-0.0051
609.6785	0.0007
609.8684	-0.0068
610.0582	-0.0029
610.2481	-0.0056
610.4379	-0.0008
610.6278	-0.0014
610.8176	0.0003
611.0074	-0.0049
611.1971	-0.0043
611.3869	-0.0046
611.5766	0.0037
611.7664	0.002
611.9561	-0
612.1458	0.0035
612.3354	-0.0041
612.5251	-0.0068
612.7147	-0.0017
612.9044	-0.0006
613.094	-0.0004
613.2836	0.0011
613.4731	-0.007
613.6627	-0.0073
613.8522	-0.0003
614.0417	-0.0069
614.2313	-0.0081
614.4207	-0.0012
614.6102	0.001
614.7997	-0.0011
614.9891	-0.0019
615.1785	-0.007
615.3679	0.0008
615.5573	-0.0009
615.7467	-0.0027
615.9361	-0.0017
616.1254	-0.0002
616.3147	-0.003
616.504	-0.0006
616.6933	-0.0023
616.8826	-0.0039
617.0718	-0.0022
617.2611	0.0012
617.4503	-0.0007
617.6395	-0.0042
617.8287	0.0001
618.0179	0.0022
618.207	-0.0046
618.3961	-0.0047
618.5853	-0.0058
618.7744	-0.006
618.9634	0.0003
619.1525	-0.0018
619.3416	-0.0068
619.5306	-0.0032
619.7196	0.0015
619.9086	0.0021
620.0976	-0.0028
620.2866	0.0027
620.4755	-0.003
620.6645	-0.0061
620.8534	-0.0017
621.0423	-0.0081
621.2312	-0.0085
621.42	-0.0002
621.6089	-0.0009
621.7977	-0.0039
621.9865	-0.0034
622.1753	-0.0002
622.3641	-0.0007
622.5529	-0.0005
622.7416	-0.0036
622.9303	0.0028
623.1191	-0.0038
623.3078	0.0023
623.4964	-0.0029
623.6851	0.0025
623.8737	-0.0023
624.0624	0.0006
624.251	0.0029
624.4396	0.002
624.6282	-0.0023
624.8167	0.0034
625.0053	-0.0009
625.1938	-0.0003
625.3823	0.0013
625.5708	0.0019
625.7593	-0.0064
625.9477	-0.0066
626.1362	-0.0014
626.3246	-0.0011
626.513	-0.0034
626.7014	-0.0013
626.8898	-0.005
627.0781	-0.0056
627.2665	-0.0038
627.4548	-0.0117
627.6431	-0.0025
627.8314	-0.0017
628.0197	-0.0006
628.2079	0.0018
628.3962	0.0003
628.5844	0.0031
628.7726	-0.0038
628.9608	0.0005
629.1489	0.0027
629.3371	0.0049
629.5252	0.0021
629.7134	-0.0014
629.9015	-0.003
630.0895	-0.0024
630.2776	-0.0006
630.4657	-0.0019
630.6537	-0.0068
630.8417	0.0001
631.0297	-0.0023
631.2177	-0.0016
631.4057	0.0022
631.5936	-0.002
631.7815	-0.0026
631.9695	-0.0003
632.1574	-0.0045
632.3452	-0.0061
632.5331	-0.004
632.7209	-0.0081
632.9088	-0.0084
633.0966	-0.0072
633.2844	-0.0013
633.4722	-0.0002
633.6599	-0.0043
633.8477	-0.0042
634.0354	-0.0048
634.2231	-0.0048
634.4108	-0.0032
634.5985	-0.0043
634.7861	-0.0076
634.9738	-0.0055
635.1614	-0.0023
635.349	-0.0027
635.5366	-0.0021
635.7242	0.0004
635.9117	-0.0002
636.0993	-0.0028
636.2868	-0.0024
636.4743	-0.0044
636.6618	-0.0076
636.8492	-0.0035
637.0367	-0.0009
637.2241	-0.0049
637.4115	-0.0083
637.5989	-0.0028
637.7863	-0.0016
637.9737	-0.0027
638.161	0.0006
638.3484	-0.0019
638.5357	0.0009
638.723	-0.0044
638.9103	0.0013
639.0975	-0.0002
639.2848	-0.0031
639.472	0.0003
639.6592	0.0048
639.8464	-0.0023
640.0336	-0.005
640.2208	0.001
640.4079	-0.0047
640.595	0.0007
640.7821	-0.0051
640.9692	0.0052
641.1563	-0.0012
641.3434	-0.0014
641.5304	-0.0042
641.7174	0.0022
641.9044	0.0026
642.0914	-0.002
642.2784	0.0068
642.4653	0.006
642.6523	-0.003
642.8392	0.0035
643.0261	0.0061
643.213	0.0009
643.3999	0.0032
643.5867	-0.001
643.7735	0.0004
643.9604	0.0005
644.1472	-0.0026
644.3339	0.0017
644.5207	0.0012
644.7075	-0.0054
644.8942	-0.0046
645.0809	0.0011
645.2676	-0.0048
645.4543	-0.0024
645.6409	0.0001
645.8276	-0.0039
646.0142	-0.0001
646.2008	-0.006
646.3874	-0.0052
646.574	-0.0014
646.7605	0.0017
646.9471	-0.0069
647.1336	-0.0064
647.3201	-0.0027
647.5066	-0.0029
647.6931	0.0028
647.8795	-0.0068
648.0659	-0.0053
648.2524	-0.0049
648.4388	-0.0039
648.6252	-0.0014
648.8115	-0.0093
648.9979	-0.0039
649.1842	-0.0053
649.3705	-0.0088
649.5568	-0.0032
649.7431	-0.0038
649.9294	-0.0051
650.1156	-0.0029
650.3018	-0.0036
650.488	-0.0071
650.6742	-0.0062
650.8604	-0.002
651.0466	0.0017
651.2327	-0.0051
651.4188	0.0037
651.6049	-0.0009
651.791	-0.0008
651.9771	-0.0001
652.1632	0.0011
652.3492	-0.0006
652.5352	0.0001
652.7212	0.0026
652.9072	0.002
653.0932	0.0043
653.2791	-0.0055
653.465	-0.0029
653.651	-0.0036
653.8369	-0.0054
654.0227	0.0001
654.2086	0.0007
654.3944	-0.0031
654.5803	-0.0056
654.7661	-0.0013
654.9519	-0.0063
655.1377	-0.0006
655.3234	0
655.5092	0
655.6949	0
655.8806	0
656.0663	0
656.2519	0
656.4376	-0.0043
656.6232	-0.0047
656.8088	-0.0015
656.9945	-0.0012
657.18	-0.0011
657.3656	-0.0001
657.5511	-0.006
657.7367	-0.0055
657.9222	0.0042
658.1077	-0.0045
658.2932	-0.0069
658.4786	-0.0013
658.6641	-0.0037
658.8495	-0.006
659.0349	-0.0069
659.2203	-0.0074
659.4057	-0.0079
659.591	0.001
659.7764	-0.0018
659.9617	-0.0025
660.147	-0.0041
660.3323	-0.0024
660.5176	-0.0069
660.7028	-0.0029
660.888	-0.0045
661.0733	0.0007
661.2585	-0.0085
661.4436	-0.0025
661.6288	-0.0023
661.8139	0.0015
661.9991	0.001
662.1842	0.002
662.3693	-0.0024
662.5544	-0.0024
662.7394	-0.0011
662.9245	-0.0013
663.1095	0.0079
663.2945	-0.0016
663.4795	-0.0033
663.6644	-0.0012
663.8494	-0.0059
664.0343	-0.0038
664.2193	-0.0087
664.4042	-0.0076
664.589	-0.0032
664.7739	-0.0056
664.9587	-0.0012
665.1436	-0.0004
665.3284	-0.0019
665.5132	-0.0056
665.698	0.0033
665.8827	0.0023
666.0675	-0.0043
666.2522	-0.0062
666.4369	-0.0072
666.6216	-0.0113
666.8063	-0.0035
666.9909	-0.0128
667.1756	-0.0051
667.3602	-0.0071
667.5448	-0.0085
667.7294	-0.0026
667.9139	-0.0067
668.0985	-0.009
668.283	-0.0019
668.4675	-0.0139
668.652	-0.0077
668.8365	-0.0096
669.0209	-0.0082
669.2054	-0.0051
669.3898	-0.0068
669.5742	-0.0091
669.7586	-0.0065
669.943	-0.0064
670.1273	-0.0085
670.3117	-0.0077
670.496	-0.007
670.6803	-0.0015
670.8646	-0.0041
671.0488	0.0009
671.2331	-0.0028
671.4173	-0.0001
671.6015	0.0001
671.7857	-0.0015
671.9699	-0.0033
672.1541	-0.0044
672.3382	-0.0048
672.5223	-0.0067
672.7064	-0.0064
672.8905	-0.0132
673.0746	-0.0097
673.2587	-0.0096
673.4427	-0.0165
673.6267	-0.0124
673.8107	-0.0108
673.9947	-0.0125
674.1787	-0.0049
674.3626	-0.0056
674.5465	-0.0052
674.7304	0.0014
674.9143	-0.0039
675.0982	-0.0031
675.2821	-0.0026
675.4659	-0.0025
675.6497	-0.0024
675.8335	-0.0051
676.0173	-0.007
676.2011	-0.0028
676.3849	-0.0043
676.5686	-0.0052
676.7523	-0.0012
676.936	-0.0012
677.1197	-0.0016
677.3034	-0.0096
677.487	-0.0055
677.6706	-0.0079
677.8542	-0.0047
678.0378	-0.0049
678.2214	-0.011
678.405	-0.0044
678.5885	-0.0088
678.772	-0.0053
678.9555	-0.0037
679.139	-0.0064
679.3225	-0.0056
679.5059	-0.0101
679.6894	0.0012
679.8728	-0.002
680.0562	0.002
680.2395	-0.0069
680.4229	-0.0002
680.6062	0.0025
680.7896	0.0035
680.9729	0.002
681.1562	-0.0004
681.3394	-0.0016
681.5227	-0.0068
681.7059	-0.006
681.8891	-0.0069
682.0723	-0.007
682.2555	-0.0034
682.4387	0.0021
682.6218	-0.0015
682.805	-0.0073
682.9881	-0.0068
683.1712	0.0063
683.3542	-0.0002
683.5373	-0.0032
683.7203	-0.0054
683.9034	-0.0019
684.0864	-0.0073
684.2694	-0.004
684.4523	-0.0047
684.6353	-0.0013
684.8182	-0.0011
685.0011	-0.0052
685.184	-0.0028
685.3669	-0.0019
685.5498	-0.0032
685.7326	-0.0022
685.9154	-0.0103
686.0982	-0.001
686.281	-0.0082
686.4638	-0.0072
686.6465	-0.003
686.8293	-0.0068
687.012	-0.0028
687.1947	-0.0051
687.3774	-0.001
687.56	-0.004
687.7427	-0.0025
687.9253	-0.0008
688.1079	0.0009
688.2905	-0.0009
688.4731	-0.0011
688.6556	-0.0012
688.8382	-0.0003
689.0207	0.0018
689.2032	0.0011
689.3857	0.003
689.5681	0.0043
689.7506	0.0009
689.933	0.0006
690.1154	-0.0025
690.2978	-0.0011
690.4802	-0.0018
690.6626	0.0053
690.8449	0.0026
691.0272	-0.0023
691.2095	-0.0003
691.3918	-0.0074
691.5741	-0.0022
691.7563	-0.0011
691.9386	-0.007
692.1208	-0.0059
692.303	-0.0047
692.4852	-0.0028
692.6673	-0.0042
692.8495	-0.0076
693.0316	-0.0049
693.2137	-0.0066
693.3958	-0.0029
693.5778	-0.0015
693.7599	-0.0054
693.9419	-0.0101
694.1239	-0.0015
694.3059	-0.0104
694.4879	-0.0007
694.6699	-0.0056
694.8518	-0.0055
695.0337	-0.0047
695.2157	-0.0047
695.3975	-0.0095
695.5794	-0.0084
695.7613	-0.005
695.9431	-0.0048
696.1249	-0.0088
696.3067	-0.0017
696.4885	-0.0001
696.6703	-0.0043
696.852	-0.0035
697.0337	-0.0011
697.2154	0.0013
697.3971	-0.0071
697.5788	-0.0071
697.7605	-0.0062
697.9421	-0.0032
698.1237	-0.0038
698.3053	-0.0056
698.4869	-0.0016
698.6685	-0.0042
698.85	-0.0037
699.0315	0.0028
699.213	0.0032
699.3945	-0.0013
699.576	0.0037
699.7575	0.0013
699.9389	-0.0002
700.1203	-0.005
700.3017	-0.001
700.4831	-0.0023
700.6645	-0.0091
700.8458	-0.0028
701.0271	-0.0017
701.2084	-0.0104
701.3897	-0.0075
701.571	0.0009
701.7523	0.0007
701.9335	0.0032
702.1147	0.0047
702.2959	-0.0011
702.4771	-0.0055
702.6583	-0.0023
702.8394	-0.0031
703.0205	-0.0031
703.2016	-0.006
703.3827	0.0021
703.5638	-0.0101
703.7449	-0.0034
703.9259	-0.0018
704.1069	-0.0039
704.2879	-0.0052
704.4689	-0.0066
704.6499	-0.0042
704.8308	0.0001
705.0117	-0.0033
705.1927	-0.0055
705.3735	0.0089
705.5544	-0.0034
705.7353	-0.0023
705.9161	0.0027
706.0969	0.0034
706.2777	-0.0033
706.4585	0.0027
706.6393	-0.0013
706.82	-0.0066
707.0007	-0.0057
707.1815	-0.0075
707.3621	-0.0092
707.5428	-0.0036
707.7235	-0.0014
707.9041	-0.0037
708.0847	-0.0019
708.2653	-0.0067
708.4459	-0.0028
708.6265	-0.0035
708.807	0.001
708.9875	-0.0054
709.168	-0.0026
709.3485	-0.0026
709.529	-0.0083
709.7095	-0.0027
709.8899	-0.0114
710.0703	0.0041
710.2507	-0.0005
710.4311	-0.0001
710.6115	-0.0016
710.7918	-0.0033
710.9721	0.0036
711.1524	-0.0014
711.3327	0.0008
711.513	-0.0008
711.6932	-0.0036
711.8735	0.002
712.0537	-0.0048
712.2339	-0.0016
712.4141	0.0013
712.5942	-0.0022
712.7744	0.0023
712.9545	-0.0009
713.1346	-0.0009
713.3147	0.0036
713.4947	0.0039
713.6748	-0.0045
713.8548	-0.007
714.0348	-0.0047
714.2148	-0.007
714.3948	-0.0058
714.5748	-0.0116
714.7547	-0.0085
714.9346	-0.007
715.1145	-0.0077
715.2944	-0.0009
715.4743	-0.0017
715.6541	0.0003
715.834	-0.0026
716.0138	0.0006
716.1936	-0.0005
716.3733	-0.0046
716.5531	-0.0068
716.7328	-0.0026
716.9126	-0.005
717.0923	-0.0048
717.2719	-0.0123
717.4516	-0.0021
717.6312	0.0031
717.8109	-0.0004
717.9905	-0.0014
718.1701	0.0005
718.3496	-0.0046
718.5292	-0.0023
718.7087	-0.0024
718.8882	-0.0061
719.0677	-0.0011
719.2472	-0.0056
719.4267	-0.0103
719.6061	-0.0041
719.7856	-0.0004
719.965	-0.0089
720.1443	-0.0063
720.3237	-0.0013
720.5031	-0.0075
720.6824	-0.0023
720.8617	-0.0045
721.041	0.0031
721.2203	-0.0099
721.3995	-0.0019
721.5788	-0.0049
721.758	-0.0049
721.9372	-0.0047
722.1164	-0.0039
722.2956	-0.0126
722.4747	-0.0036
722.6538	-0.0071
722.8329	-0.0075
723.012	-0.0039
723.1911	0.0029
723.3702	-0.0019
723.5492	-0.0008
723.7282	-0.0053
723.9072	-0.0035
724.0862	-0.0012
724.2652	-0.0049
724.4441	-0.0035
724.623	-0.0044
724.8019	-0.0009
724.9808	-0.0025
725.1597	0.0019
725.3385	0.0045
725.5174	-0.0047
725.6962	-0.0073
725.875	0.0061
726.0538	0.0031
726.2325	-0.0015
726.4112	-0.0041
726.59	-0.0044
726.7687	-0.0018
726.9474	-0.0015
727.126	-0.0038
727.3047	-0.0047
727.4833	0.003
727.6619	-0.0102
727.8405	-0.0003
728.0191	0.0035
728.1976	-0.0068
728.3762	-0.0059
728.5547	-0.0054
728.7332	-0.0091
728.9116	-0.0097
729.0901	-0.008
729.2686	-0.0098
729.447	-0.0023
729.6254	-0.0052
729.8038	-0.0085
729.9821	0.0005
730.1605	0.0009
730.3388	0.0028
730.5171	-0.0043
730.6954	-0.0013
730.8737	-0.0015
731.0519	0.0019
731.2302	0.0008
731.4084	0.0058
731.5866	0.004
731.7648	0.0054
731.9429	0.0051
732.1211	-0.0021
732.2992	0
732.4773	-0.0016
732.6554	-0.0029
732.8335	-0.0057
733.0115	-0.007
733.1896	-0.005
733.3676	0.0029
733.5456	-0.0012
733.7235	0.0027
733.9015	0.0029
734.0794	-0.0042
734.2574	-0.0074
734.4353	-0.006
734.6131	-0.0004
734.791	0.0027
734.9689	-0.0019
735.1467	0.0025
735.3245	0.0012
735.5023	-0.0072
735.68	-0.0038
735.8578	-0.0027
736.0355	0.0096
736.2132	-0.0009
736.3909	-0.0015
736.5686	-0.0004
736.7463	-0.0024
736.9239	-0.003
737.1015	-0.0017
737.2791	-0.008
737.4567	-0.011
737.6343	-0.0024
737.8118	-0.0078
737.9894	-0.0023
738.1669	-0.005
738.3444	-0.0051
738.5218	-0.0011
738.6993	-0.0024
738.8767	-0.0032
739.0541	-0.0078
739.2315	-0.0048
739.4089	0.0016
739.5863	-0.0091
739.7636	-0.0003
739.9409	-0.0039
740.1182	0.0015
740.2955	0.0014
740.4728	-0.0081
740.65	-0.0018
740.8272	0.0046
741.0044	-0.0033
741.1816	0.0006
741.3588	0.0009
741.5359	0.0012
741.7131	0.0011
741.8902	-0.0017
742.0673	0.0047
742.2444	-0.0081
742.4214	-0.0089
742.5985	-0.0059
742.7755	-0.0078
742.9525	0.0054
743.1295	0.0026
743.3064	-0.0105
743.4834	-0.0012
743.6603	-0.0026
743.8372	0.0009
744.0141	-0.0059
744.191	-0.0008
744.3678	-0.0048
744.5446	0.0045
744.7215	-0.0061
744.8982	-0.0063
745.075	-0.007
745.2518	-0.0003
745.4285	-0.0003
745.6052	0.0057
745.7819	0.0029
745.9586	0.0013
746.1353	-0.0024
746.3119	0.0036
746.4885	-0.0047
746.6651	-0.0029
746.8417	-0.0045
747.0183	0.0018
747.1948	-0.0041
747.3714	-0.0015
747.5479	-0.0039
747.7244	-0.0021
747.9008	0.0008
748.0773	0.006
748.2537	0.0008
748.4301	0.0032
748.6065	0.0008
748.7829	0.0041
748.9593	0.0029
749.1356	-0.0067
749.3119	-0.0007
749.4882	0.0045
749.6645	-0.0033
749.8408	0.0036
750.017	-0.0038
750.1933	-0.007
750.3695	-0.0047
750.5457	-0.0061
750.7218	-0.0116
750.898	-0.0018
751.0741	-0.0079
751.2502	-0.0038
751.4263	-0.0071
751.6024	-0.0042
751.7784	0.0017
751.9545	-0.0003
752.1305	0.0046
752.3065	-0.0083
752.4825	0.0051
752.6584	-0.0023
752.8344	-0.0031
753.0103	-0.0034
753.1862	-0.0002
753.3621	0.0004
753.5379	-0.0101
753.7138	0.0024
753.8896	-0.0078
754.0654	-0.0114
754.2412	-0.0129
754.417	-0.0053
754.5927	0.0009
754.7685	-0.0109
754.9442	-0.0108
755.1199	-0.0054
755.2956	-0.0083
755.4712	-0.0039
755.6469	-0.0133
755.8225	-0.0115
755.9981	-0.0043
756.1736	-0.0054
756.3492	-0.0102
756.5248	-0.0036
756.7003	-0.0065
756.8758	-0.0123
757.0513	-0.0134
757.2267	-0.0068
757.4022	-0.0061
757.5776	-0.0074
757.753	-0.0086
757.9284	-0.0075
758.1038	-0.0025
758.2791	-0.0089
758.4545	-0.0105
758.6298	-0.0073
758.8051	-0.0105
758.9803	-0.0093
759.1556	-0.013
759.3308	-0.0044
759.506	-0.0065
759.6812	-0.0084
759.8564	-0.0053
760.0316	-0.0091
760.2067	-0.0097
760.3819	-0.0045
760.557	-0.0088
760.732	-0.0087
760.9071	-0.0172
761.0821	-0.0149
761.2572	-0.0061
761.4322	-0.015
761.6072	-0.0131
761.7821	-0.0114
761.9571	-0.007
762.132	-0.0102
762.3069	-0.0009
762.4818	-0.0076
762.6567	-0.0079
762.8316	-0.0003
763.0064	-0.0001
763.1812	0.0011
763.356	0.0035
763.5308	0.0067
763.7055	0.0041
763.8803	-0.005
764.055	-0.0084
764.2297	-0.0007
764.4044	-0.0053
764.579	0.0011
764.7537	-0.0009
764.9283	-0.0053
765.1029	0.0108
765.2775	0.0026
765.4521	0.0067
765.6266	0.008
765.8011	0.0024
765.9756	0.0003
766.1501	0.0021
766.3246	-0.0005
766.4991	0.002
766.6735	-0.0014
766.8479	-0.0079
767.0223	0.0021
767.1967	-0.0081
767.371	-0.0078
767.5454	-0.0026
767.7197	-0.0001
767.894	0.0007
768.0683	-0.0042
768.2425	-0.0013
768.4168	-0.0101
768.591	0.0018
768.7652	-0.008
768.9394	0.0062
769.1135	0.0028
769.2877	0.0022
769.4618	0.0091
769.6359	0.0071
769.81	-0.001
769.984	-0.0096
770.1581	0.0067
770.3321	0.0011
770.5061	-0.0002
770.6801	0.0016
770.8541	-0.0022
771.028	0.0071
771.202	0.0058
771.3759	-0.0046
771.5498	0.001
771.7236	-0.004
771.8975	-0.0046
772.0713	0.0034
772.2451	0.0033
772.4189	-0.0001
772.5927	-0.0015
772.7665	-0.0003
772.9402	-0.0023
773.1139	-0.0023
773.2876	-0.0008
773.4613	-0.0064
773.635	-0.0023
773.8086	0.0071
773.9822	0.0043
774.1558	0.0036
774.3294	0.0067
774.503	0.0013
774.6765	-0.0032
774.8501	0.0047
775.0236	-0.0109
775.1971	-0.0087
775.3705	-0.0044
775.544	-0.0014
775.7174	-0.0048
775.8908	-0.0058
776.0642	0.0023
776.2376	-0.0036
776.4109	-0.0079
776.5843	0.0101
776.7576	0.0013
776.9309	-0.0024
777.1041	-0.0039
777.2774	-0.001
777.4506	-0.0002
777.6238	-0.0017
777.797	-0.003
777.9702	-0.0002
778.1434	-0.0013
778.3165	-0.0006
778.4896	-0.0134
778.6627	-0.0012
778.8358	-0.0111
779.0089	-0.0076
779.1819	0.0034
779.3549	-0.003
779.5279	-0.0086
779.7009	-0.0075
779.8739	-0.0015
780.0468	-0.0078
780.2197	-0.0068
780.3926	0.0002
780.5655	-0.0093
780.7384	-0.0032
780.9112	-0.0073
781.0841	0.0025
781.2569	-0.0027
781.4297	-0.0087
781.6024	0.0006
781.7752	0.0051
781.9479	-0.0057
782.1206	0.0018
782.2933	-0.0049
782.466	-0.0083
782.6386	-0.0005
782.8113	-0.0121
782.9839	-0.0043
783.1565	-0.0145
783.329	-0.0075
783.5016	-0.013
783.6741	-0.0111
783.8466	-0.0109
784.0191	-0.006
784.1916	0.0025
784.3641	-0.0024
784.5365	-0.0055
784.7089	0.0023
784.8813	0.0057
785.0537	0.0085
785.2261	0.0024
785.3984	-0.0063
785.5707	0.0012
785.743	0.0046
785.9153	0.0019
786.0876	-0.0003
786.2598	0.0076
786.432	0.0071
786.6042	0.0017
786.7764	0.0038
786.9486	-0.0021
787.1207	-0.0139
787.2928	0.0113
787.4649	-0.0132
787.637	-0.0057
787.8091	-0.0048
787.9811	0.0043
788.1532	-0.0078
788.3252	-0.0092
788.4972	-0.0013
788.6691	-0.0051
788.8411	0.0021
789.013	-0.0027
789.1849	0.0063
789.3568	-0.0094
789.5287	-0.0018
789.7005	-0.0019
789.8723	-0.0067
790.0442	-0.0151
790.2159	-0.0024
790.3877	-0.0097
790.5595	-0.0067
790.7312	0.0003
790.9029	-0.0073
791.0746	-0.0003
791.2463	-0.0023
791.4179	-0.0057
791.5896	0.0073
791.7612	-0.0003
791.9328	0.0008
792.1044	-0.0066
792.2759	0.0051
792.4474	-0.0042
792.619	-0.0051
792.7905	0.0002
792.9619	-0.0052
793.1334	-0.0092
793.3048	-0.0017
793.4762	-0.0011
793.6476	-0.0232
793.819	-0.0068
793.9904	-0.0127
794.1617	-0.0162
794.333	-0.0169
794.5043	-0.0055
794.6756	-0.0017
794.8469	0.0102
795.0181	-0.0056
795.1893	-0.0098
795.3605	-0.0216
795.5317	-0.0058
795.7029	-0.0062
795.874	-0.0052
796.0452	-0.004
796.2163	-0.0094
796.3873	-0.0046
796.5584	-0.0171
796.7294	-0.003
796.9005	-0.0114
797.0715	-0.0095
797.2425	-0.0129
797.4134	-0.0183
797.5844	-0.0088
797.7553	-0.019
797.9262	-0.005
798.0971	-0.0135
798.2679	-0.0073
798.4388	-0.0107
798.6096	-0.0106
798.7804	-0.0104
798.9512	-0.0184
799.122	-0.0002
799.2927	-0.007
799.4635	-0.0036
799.6342	-0.0176
799.8049	-0.012
799.9755	-0.015
800.1462	-0.0125
800.3168	-0.0061
800.4874	-0.0178
800.658	-0.0155
800.8286	-0.0171
800.9991	-0.0178
801.1696	-0.0204
801.3402	-0.0185
801.5106	-0.0175
801.6811	-0.0131
801.8516	-0.0087
802.022	-0.024
802.1924	-0.0278
802.3628	-0.0235
802.5332	-0.0146
802.7035	-0.0217
802.8739	-0.0118
803.0442	-0.0158
803.2145	-0.0122
803.3847	-0.0188
803.555	-0.0112
803.7252	-0.0237
803.8954	-0.0072
804.0656	-0.0033
804.2358	-0.0144
804.4059	-0.0115
804.5761	-0.0109
804.7462	-0.0086
804.9163	-0.0064
805.0864	-0.0116
805.2564	-0.019
805.4264	-0.0114
805.5965	-0.0098
805.7665	-0.0136
805.9364	-0.0049
806.1064	-0.0147
806.2763	0.0006
806.4462	-0.0111
806.6161	-0.0073
806.786	-0.0075
806.9559	0.0015
807.1257	-0.012
807.2955	-0.0106
807.4653	0.0007
807.6351	0.0082
807.8048	-0.0022
807.9746	-0.0059
808.1443	0.0034
808.314	0.0008
808.4837	0.003
808.6533	-0.0105
808.8229	-0.013
808.9926	0.0069
809.1622	-0.0009
809.3317	0.0082
809.5013	0.0011
809.6708	0.0059
809.8403	-0.0096
810.0098	0.0104
810.1793	-0.0048
810.3488	0.0125
810.5182	-0.0021
810.6876	-0.0001
810.857	-0.0096
811.0264	-0.0155
811.1958	0.0085
811.3651	-0.0162
811.5344	-0.0016
811.7037	-0.0127
811.873	-0.0088
812.0422	-0.0127
812.2115	0.0045
812.3807	-0.0033
812.5499	-0.0048
812.7191	-0.0178
812.8882	-0.0084
813.0574	-0.0117
813.2265	-0.0048
813.3956	-0.0029
813.5646	-0.007
813.7337	-0.0037
813.9027	0.0058
814.0718	-0.0101
814.2407	0.0049
814.4097	0.0047
814.5787	-0.0018
814.7476	0.007
814.9165	0.0036
815.0854	-0.0047
815.2543	0.0032
815.4232	0
815.592	0.0027
815.7608	-0.0056
815.9296	0.0042
816.0984	0.0011
816.2671	-0.0013
816.4359	0.0103
816.6046	0.0126
816.7733	-0.0009
816.942	0.0056
817.1106	-0.0065
817.2793	0.0037
817.4479	-0.0139
817.6165	-0.022
817.785	-0.0072
817.9536	-0.0003
818.1221	-0.0118
818.2906	-0.0092
818.4591	-0.0321
818.6276	-0.0001
818.7961	-0.0108
818.9645	0.0021
819.1329	0.0007
819.3013	-0.0131
819.4697	-0.0141
819.638	-0.0126
819.8064	-0.0142
819.9747	0.0094
820.143	-0.0001
820.3113	0.0033
820.4795	0.0134
820.6477	-0.0047
820.816	0.0062
820.9842	-0.0064
821.1523	-0.0092
821.3205	-0.0166
821.4886	-0.0042
821.6567	-0.0012
821.8248	-0.0124
821.9929	-0.0053
822.1609	0.0019
822.329	-0.0155
822.497	-0.0073
822.665	-0.0248
822.833	-0.0297
823.0009	-0.0074
823.1688	-0.0125
823.3367	-0.0042
823.5046	-0.017
823.6725	-0.0245
823.8404	0.0032
824.0082	-0.0058
824.176	-0.0104
824.3438	-0.0015
824.5116	0.0093
824.6793	-0.0087
824.847	-0.0147
825.0147	-0.0105
825.1824	-0.0219
825.3501	-0.0063
825.5177	-0.006
825.6854	-0.0077
825.853	-0.0007
826.0206	0.0107
826.1881	-0.0079
826.3557	-0.0153
826.5232	-0.0003
826.6907	-0.0106
826.8582	-0.0111
827.0257	-0.0157
827.1931	0.0089
827.3605	-0.0016
827.528	0.0064
827.6953	0.0004
827.8627	0.0019
828.03	-0.0045
828.1974	-0.0019
828.3647	0.0049
828.532	-0.0048
828.6992	-0.0076
828.8665	-0.0056
829.0337	-0.0085
829.2009	-0.0247
829.3681	-0.0182
829.5352	0.0068
829.7024	-0.0031
829.8695	-0.0213
830.0366	-0.0215
830.2037	-0.0113
830.3707	-0.0072
830.5378	-0.0173
830.7048	-0.0248
830.8718	-0.0053
831.0388	-0.0098
831.2057	-0.0133
831.3727	-0.0036
831.5396	0.0073
831.7065	0.0084
831.8734	0.0006
832.0402	-0.0139
832.2071	0.0017
832.3739	0.0074
832.5407	-0.0012
832.7075	0.0022
832.8742	0.006
833.041	0.0202
833.2077	-0.0349
833.3744	0.0026
833.541	-0.0045
833.7077	-0.0064
833.8743	0.0144
834.0409	0.0126
834.2075	0.004
834.3741	-0.0062
834.5407	0.0272
834.7072	0.0069
834.8737	-0.0061
835.0402	-0.0145
835.2067	-0.0018
835.3731	-0.0166
835.5395	-0.0136
835.706	-0.0143
835.8723	-0.0137
836.0387	-0.0113
836.2051	-0.0016
836.3714	0.0207
836.5377	-0.0087
836.704	-0.0145
836.8703	-0.0253
837.0365	0.0234
837.2027	-0.0027
837.3689	0.0134
837.5351	-0.014
837.7013	0.0086
837.8674	0.0173
838.0335	-0.0165
838.1997	0.0064
838.3657	0.0186
838.5318	0.0029
838.6978	-0.0156
838.8639	-0.0103
839.0299	-0.0194
839.1958	-0.0139
839.3618	0.0128
839.5277	0.0024
839.6937	-0.0153
839.8596	-0.0103
840.0254	0.0061
840.1913	0.0007
840.3571	-0.0002
840.523	-0.0203
840.6888	0.0031
840.8545	-0.0149
841.0203	-0.0067
841.186	0.0136
841.3517	-0.0024
841.5174	0.0065
841.6831	0.0007
841.8488	0.0175
842.0144	0.0299
842.18	0.0038
842.3456	0.0064
842.5112	0.0181
842.6767	-0.0177
842.8422	0.0101
843.0077	-0.0022
843.1732	0.0132
843.3387	0.0074
843.5042	0.0131
843.6696	0.0211
843.835	-0.0121
844.0004	0.0183
844.1657	-0.0098
844.3311	0.0104
844.4964	0.0065
844.6617	-0.0046
844.827	0.0013
844.9923	0.0045
845.1575	0.023
845.3227	-0.0097
845.4879	0.0064
845.6531	0.0169
845.8183	-0.0239
845.9834	-0.0028
846.1485	0.0193
846.3136	-0.0475
846.4787	0.0107
846.6438	0.0072
846.8088	0.0246
846.9738	0.0116
847.1388	0.0045
847.3038	0.0091
847.4687	0.0127
847.6337	0.0228
847.7986	0.0622
847.9635	0.0183
848.1284	-0.0236
848.2932	0.0083
848.458	0.029
848.6228	0.0092
848.7876	-0.0547
848.9524	0.0327
849.1172	-0.0292
849.2819	0.0662
849.4466	-0.0104
849.6113	-0.0173
849.7759	-0.0162
849.9406	-0.0234
850.1052	0.0346
850.2698	0.0118
850.4344	-0.0056
850.599	-0.0396
850.7635	0.0528
850.928	-0.0299
851.0925	0.029
851.257	0.0099
851.4215	0.0002
851.5859	0.0455
851.7503	0.0293
851.9147	0.0042
852.0791	0.0322
852.2434	-0.0206
852.4078	0.0092
852.5721	-0.0145
852.7364	-0.0594
852.9007	0.0278
853.0649	0.005
853.2291	0.0094
853.3934	-0.0288
853.5575	-0.0105
853.7217	-0.014
853.8859	0.021
854.05	0.0317
854.2141	-0.0134
854.3782	0.0155
854.5423	-0.0006
854.7063	0.0142
854.8703	0.0138
855.0343	0.0068
855.1983	0.0056
855.3623	0.0069
855.5262	0.0182
855.6901	0.0068
855.854	0.0011
856.0179	0.02
856.1818	0.024
856.3456	0.0092
856.5094	0.0152
856.6732	0.0163
856.837	-0.0239
857.0008	0.041
857.1645	0.0678
857.3282	0.0014
857.4919	-0.0543
857.6556	0.0491
857.8192	0.0342
857.9828	0.1222
858.1465	0.0369
858.31	-0.0367
858.4736	-0.0193
858.6372	0.0027
858.8007	0.059
858.9642	0.0021
859.1277	0.0498
859.2911	0.0122
859.4546	0.081
859.618	-0.0195
859.7814	-0.0108
859.9448	-0.0368
860.1081	0.041
860.2715	0.1647
860.4348	0.025
860.5981	0.0175
860.7614	-0.0327
860.9246	0.0315
861.0879	-0.0672
861.2511	-0.0264
861.4143	-0.1244
861.5774	-0.0246
861.7406	0.0215
861.9037	-0.05
862.0668	-0.0051
862.2299	-0.0495
862.393	-0.0217
862.556	0.0533
862.7191	0.0175
862.8821	-0.0419
863.0451	-0.0271
863.208	-0.1303
863.371	0.1009
863.5339	-0.0042
863.6968	-0.0552
863.8597	0.0898
864.0225	-0.117
864.1854	0.0503
864.3482	-0.0669
864.511	-0.0932
864.6737	-0.0035
864.8365	-0.0015
864.9992	0.0433
865.1619	-0.0582
865.3246	-0.1645
865.4873	0.01
865.65	0.1172
865.8126	0.1121
865.9752	0.0098
866.1378	0.0085
866.3004	-0.0107
866.4629	-0.1094
866.6254	0.0613
866.7879	-0.162
866.9504	-0.1766
867.1129	0.1703
867.2753	0.1242
867.4377	-0.1569
867.6001	-0.1391
867.7625	-0.0871
867.9249	-0.0686
868.0872	-0.0583
868.2495	-0.0893
868.4118	-0.0769
868.5741	-0.106
868.7363	0.1208
868.8986	-0.0243
869.0608	-0.0614
869.223	-0.0035
869.3851	-0.16
869.5473	-0.1882
869.7094	0.0916
869.8715	0.0063
870.0336	-0.0359
870.1957	0.182
870.3577	0.0016
870.5197	-0.1495
870.6817	-0.0164
870.8437	-0.2051
871.0057	0.0547
871.1676	0.0868
871.3295	-0.3463
871.4914	-0.0642
871.6533	-0.174
871.8151	0.2013
871.977	0.0744
872.1388	-0.0119
872.3006	-0.2995
872.4623	0.1074
872.6241	0.0459
872.7858	-0.1248
872.9475	0.0025
873.1092	-0.1605
873.2709	0.0688
873.4325	-0.0399
873.5941	-0.0533
873.7557	-0.0876
873.9173	-0.15
874.0789	-0.1804
874.2404	-0.1037
874.4019	-0.2881
874.5634	-0.0762
874.7249	0.082
874.8863	-0.1376
875.0478	-0.2661
875.2092	0.1119
875.3706	-0.2553
875.5319	0.3493
875.6933	-0.2146
875.8546	-0.2028
876.0159	-0.0775
876.1772	-0.2553
876.3385	0.0689
876.4997	0.0048
876.6609	-0.1635
876.8221	0.6433
876.9833	-0.6893
877.1445	0.2053
877.3056	0.0626
877.4667	-0.2881
877.6278	0.2498
877.7889	0.0089
877.9499	-0.6641
878.111	0.4505
878.272	0.4218
878.433	0.6134
878.5939	0.2681
878.7549	-0.1057
878.9158	0.1726
879.0767	0.4866
879.2376	0.3158
879.3984	0.1295
879.5593	-0.4355
879.7201	-0
879.8809	0.2228
880.0417	0.0945
880.2024	0.032
880.3632	-0.1772
880.5239	-0
880.6846	-0.3405
880.8452	0.0868
881.0059	-0.2661
881.1665	-0
881.3271	-0.2581
881.4877	0.1913
881.6483	-0
881.8088	0.2003
881.9693	0.2016
882.1298	0.2016
882.2903	0.2016
