Data from MonoPyChalIsomerACN10uM450nmA_Absorbance_13-11-28-891.txt Node
Date: Tue Jul 09 13:11:28 BST 2024
User: LASERRRRR
Spectrometer: FLMT03099
Trigger mode: 0
Integration Time (sec): 2.000000E-1
Scans to average: 1
Electric dark correction enabled: true
Nonlinearity correction enabled: false
Boxcar width: 0
XAxis mode: Wavelengths
Number of Pixels in Spectrum: 3648
>>>>>Begin Spectral Data<<<<<
179.3399	-0.0483
179.5586	-0.0483
179.7771	-0.0483
179.9957	0.2005
180.2143	0.029
180.4329	0.0177
180.6514	-0
180.8699	-0
181.0885	-0
181.307	-0
181.5255	0.7415
181.744	-0
181.9625	0.0546
182.181	0.1049
182.3994	-0
182.6179	-0.0667
182.8363	-0
183.0547	0.2339
183.2732	0.1453
183.4916	0.0813
183.71	0.1006
183.9284	-0.0366
184.1467	-0.0401
184.3651	0.1226
184.5835	0.1583
184.8018	0.1049
185.0201	0.0855
185.2385	0.005
185.4568	-0.029
185.6751	-0.026
185.8934	0.0438
186.1117	0.056
186.3299	-0.0392
186.5482	0.1213
186.7664	-0.0478
186.9847	0.0781
187.2029	0.1651
187.4211	0.0386
187.6393	-0.0323
187.8575	0.1483
188.0757	0.0561
188.2939	0.0507
188.512	-0.0118
188.7302	0.1544
188.9483	0.1826
189.1665	0.1339
189.3846	0.1804
189.6027	0.0758
189.8208	0.0506
190.0389	0.3101
190.257	0.248
190.475	0.2145
190.6931	0.1312
190.9111	0.4226
191.1292	0.3274
191.3472	0.2778
191.5652	0.4563
191.7832	0.3482
192.0012	0.3254
192.2192	0.4296
192.4371	0.4412
192.6551	0.437
192.873	0.393
193.091	0.464
193.3089	0.6627
193.5268	0.6108
193.7447	0.5108
193.9626	0.5896
194.1805	0.6557
194.3984	0.5992
194.6162	0.6336
194.8341	0.5969
195.0519	0.6665
195.2697	0.6547
195.4875	0.5474
195.7054	0.6302
195.9231	0.633
196.1409	0.6439
196.3587	0.6438
196.5765	0.7463
196.7942	0.6729
197.012	0.7005
197.2297	0.6953
197.4474	0.8215
197.6651	0.7004
197.8828	0.738
198.1005	0.7339
198.3182	0.764
198.5358	0.7365
198.7535	0.8244
198.9711	0.835
199.1888	0.7489
199.4064	0.7854
199.624	0.7353
199.8416	0.7728
200.0592	0.7603
200.2767	0.8142
200.4943	0.821
200.7119	0.9121
200.9294	0.921
201.1469	0.8459
201.3645	0.8358
201.582	0.8556
201.7995	0.8117
202.017	0.8698
202.2344	0.7601
202.4519	0.9407
202.6694	0.881
202.8868	0.8494
203.1042	0.9305
203.3217	1.0221
203.5391	1.0074
203.7565	0.9059
203.9739	0.8213
204.1913	0.8098
204.4086	0.8877
204.626	1.0347
204.8433	0.8455
205.0607	0.9053
205.278	0.9208
205.4953	1.0216
205.7126	0.9851
205.9299	1.0715
206.1472	0.9355
206.3644	0.928
206.5817	1.0987
206.7989	1.1392
207.0162	1.0355
207.2334	0.8993
207.4506	1.1118
207.6678	0.9984
207.885	0.986
208.1022	1.0221
208.3194	1.1109
208.5365	0.9875
208.7537	1.0282
208.9708	1.0075
209.1879	1.107
209.405	1.0234
209.6222	1.0815
209.8392	1.1576
210.0563	1.0224
210.2734	1.0912
210.4905	1.0773
210.7075	1.0133
210.9245	1.0136
211.1416	0.9901
211.3586	1.1463
211.5756	1.0699
211.7926	1.0939
212.0096	0.9874
212.2265	1.0376
212.4435	1.0309
212.6604	1.1464
212.8774	0.9679
213.0943	1.0556
213.3112	1.0236
213.5281	1.0322
213.745	0.9769
213.9619	0.9863
214.1788	0.935
214.3956	0.9377
214.6125	0.9331
214.8293	0.881
215.0461	0.9141
215.2629	0.8643
215.4798	0.8259
215.6965	0.8435
215.9133	0.8532
216.1301	0.8054
216.3469	0.8434
216.5636	0.787
216.7803	0.7898
216.9971	0.756
217.2138	0.7623
217.4305	0.6978
217.6472	0.6804
217.8639	0.6308
218.0805	0.6196
218.2972	0.5719
218.5138	0.536
218.7305	0.5278
218.9471	0.4837
219.1637	0.437
219.3803	0.4326
219.5969	0.3794
219.8135	0.3781
220.0301	0.3419
220.2466	0.3669
220.4632	0.3275
220.6797	0.321
220.8962	0.3219
221.1127	0.2934
221.3292	0.3072
221.5457	0.2791
221.7622	0.2974
221.9787	0.2922
222.1951	0.2802
222.4116	0.2747
222.628	0.2633
222.8444	0.2677
223.0608	0.2629
223.2772	0.281
223.4936	0.2454
223.71	0.2651
223.9264	0.278
224.1427	0.2565
224.3591	0.2713
224.5754	0.2673
224.7917	0.2723
225.008	0.2727
225.2243	0.2711
225.4406	0.2686
225.6569	0.2766
225.8732	0.2915
226.0894	0.2747
226.3057	0.2768
226.5219	0.2826
226.7381	0.2774
226.9543	0.2923
227.1705	0.2852
227.3867	0.2952
227.6029	0.3001
227.8191	0.2887
228.0352	0.3041
228.2513	0.3008
228.4675	0.314
228.6836	0.3085
228.8997	0.3093
229.1158	0.3121
229.3319	0.3146
229.548	0.313
229.764	0.3167
229.9801	0.3199
230.1961	0.3306
230.4121	0.3166
230.6282	0.3378
230.8442	0.3307
231.0602	0.3463
231.2761	0.3362
231.4921	0.3431
231.7081	0.3665
231.924	0.3621
232.14	0.3654
232.3559	0.3659
232.5718	0.3639
232.7877	0.3523
233.0036	0.3633
233.2195	0.3496
233.4353	0.3644
233.6512	0.3744
233.867	0.3733
234.0829	0.3966
234.2987	0.388
234.5145	0.3885
234.7303	0.3882
234.9461	0.3964
235.1619	0.378
235.3776	0.3683
235.5934	0.3925
235.8091	0.3857
236.0249	0.3818
236.2406	0.3886
236.4563	0.3856
236.672	0.4019
236.8877	0.3965
237.1034	0.3999
237.319	0.4079
237.5347	0.4116
237.7503	0.4128
237.966	0.4053
238.1816	0.4095
238.3972	0.4205
238.6128	0.4169
238.8284	0.4158
239.0439	0.4037
239.2595	0.4302
239.475	0.4241
239.6906	0.4182
239.9061	0.4064
240.1216	0.4229
240.3371	0.4191
240.5526	0.4277
240.7681	0.4111
240.9836	0.4021
241.199	0.4193
241.4145	0.3994
241.6299	0.4198
241.8453	0.3933
242.0607	0.4009
242.2761	0.3908
242.4915	0.3768
242.7069	0.3805
242.9223	0.3802
243.1376	0.3715
243.353	0.3583
243.5683	0.3628
243.7836	0.3515
243.9989	0.3378
244.2142	0.3332
244.4295	0.341
244.6448	0.3427
244.86	0.3293
245.0753	0.3222
245.2905	0.3024
245.5057	0.3116
245.721	0.3004
245.9362	0.2835
246.1514	0.2916
246.3665	0.2896
246.5817	0.2696
246.7969	0.2756
247.012	0.2729
247.2271	0.2657
247.4423	0.2686
247.6574	0.2658
247.8725	0.2552
248.0876	0.2529
248.3026	0.2572
248.5177	0.2576
248.7328	0.2464
248.9478	0.2384
249.1628	0.2409
249.3779	0.2366
249.5929	0.2245
249.8079	0.2356
250.0228	0.22
250.2378	0.2336
250.4528	0.2167
250.6677	0.2254
250.8827	0.2115
251.0976	0.2076
251.3125	0.2175
251.5274	0.2019
251.7423	0.2104
251.9572	0.206
252.172	0.2135
252.3869	0.2075
252.6017	0.2059
252.8166	0.1988
253.0314	0.2073
253.2462	0.2094
253.461	0.2075
253.6758	0.204
253.8906	0.199
254.1053	0.2088
254.3201	0.206
254.5348	0.2016
254.7496	0.2084
254.9643	0.1994
255.179	0.202
255.3937	0.197
255.6083	0.2001
255.823	0.1949
256.0377	0.1968
256.2523	0.1938
256.467	0.1975
256.6816	0.1928
256.8962	0.2012
257.1108	0.2029
257.3254	0.1948
257.54	0.2
257.7545	0.1901
257.9691	0.2039
258.1836	0.1959
258.3981	0.196
258.6127	0.202
258.8272	0.1939
259.0417	0.1922
259.2561	0.1906
259.4706	0.191
259.6851	0.1971
259.8995	0.1907
260.114	0.194
260.3284	0.204
260.5428	0.1991
260.7572	0.1973
260.9716	0.1938
261.186	0.2003
261.4003	0.1981
261.6147	0.1952
261.829	0.1995
262.0433	0.2003
262.2577	0.2045
262.472	0.1957
262.6863	0.187
262.9005	0.1983
263.1148	0.1954
263.3291	0.1893
263.5433	0.1908
263.7576	0.1966
263.9718	0.1935
264.186	0.1872
264.4002	0.1827
264.6144	0.182
264.8286	0.1842
265.0427	0.1822
265.2569	0.1838
265.471	0.1808
265.6851	0.1812
265.8993	0.1743
266.1134	0.1808
266.3275	0.1783
266.5415	0.1828
266.7556	0.191
266.9697	0.1767
267.1837	0.1837
267.3978	0.1861
267.6118	0.1927
267.8258	0.194
268.0398	0.2025
268.2538	0.1954
268.4677	0.1968
268.6817	0.1874
268.8957	0.1951
269.1096	0.1876
269.3235	0.1803
269.5374	0.1815
269.7514	0.1731
269.9652	0.1783
270.1791	0.1664
270.393	0.1644
270.6068	0.1543
270.8207	0.1495
271.0345	0.1611
271.2483	0.1556
271.4622	0.1558
271.676	0.15
271.8897	0.1463
272.1035	0.1409
272.3173	0.1559
272.531	0.156
272.7448	0.1448
272.9585	0.1459
273.1722	0.1423
273.3859	0.1411
273.5996	0.1407
273.8133	0.1487
274.0269	0.1548
274.2406	0.1542
274.4542	0.1479
274.6679	0.1425
274.8815	0.1515
275.0951	0.154
275.3087	0.1444
275.5223	0.1446
275.7358	0.1464
275.9494	0.1543
276.1629	0.144
276.3765	0.1375
276.59	0.1563
276.8035	0.1513
277.017	0.149
277.2305	0.1524
277.444	0.1528
277.6574	0.1503
277.8709	0.1531
278.0843	0.1484
278.2978	0.153
278.5112	0.1517
278.7246	0.1449
278.938	0.1477
279.1513	0.1534
279.3647	0.1508
279.5781	0.1516
279.7914	0.1512
280.0047	0.1543
280.2181	0.1506
280.4314	0.1545
280.6447	0.1553
280.8579	0.1613
281.0712	0.1605
281.2845	0.1529
281.4977	0.1559
281.711	0.1561
281.9242	0.1598
282.1374	0.1525
282.3506	0.1483
282.5638	0.155
282.7769	0.1662
282.9901	0.151
283.2033	0.1655
283.4164	0.1642
283.6295	0.1637
283.8426	0.1606
284.0557	0.1565
284.2688	0.1596
284.4819	0.154
284.695	0.1611
284.908	0.1617
285.1211	0.1643
285.3341	0.1515
285.5471	0.1639
285.7601	0.1549
285.9731	0.1557
286.1861	0.1657
286.3991	0.1582
286.612	0.1603
286.825	0.1634
287.0379	0.1611
287.2508	0.1594
287.4637	0.1661
287.6766	0.1526
287.8895	0.1652
288.1024	0.1638
288.3152	0.1555
288.5281	0.1626
288.7409	0.1527
288.9538	0.157
289.1666	0.1573
289.3794	0.1576
289.5922	0.1593
289.8049	0.1539
290.0177	0.1685
290.2304	0.1572
290.4432	0.1546
290.6559	0.1544
290.8686	0.1563
291.0813	0.1589
291.294	0.1597
291.5067	0.155
291.7194	0.1556
291.932	0.1576
292.1447	0.1569
292.3573	0.1622
292.5699	0.1706
292.7825	0.1582
292.9951	0.1522
293.2077	0.1563
293.4203	0.1495
293.6328	0.1635
293.8454	0.1579
294.0579	0.1561
294.2704	0.1573
294.4829	0.1602
294.6954	0.1575
294.9079	0.1643
295.1204	0.1571
295.3328	0.156
295.5453	0.1481
295.7577	0.1515
295.9701	0.1505
296.1825	0.1585
296.3949	0.1521
296.6073	0.1588
296.8197	0.1559
297.0321	0.1544
297.2444	0.1497
297.4567	0.1484
297.6691	0.1584
297.8814	0.1481
298.0937	0.1531
298.306	0.1547
298.5182	0.1395
298.7305	0.1563
298.9428	0.1511
299.155	0.1491
299.3672	0.1494
299.5794	0.1597
299.7916	0.1511
300.0038	0.1555
300.216	0.1578
300.4282	0.1534
300.6403	0.1533
300.8525	0.147
301.0646	0.155
301.2767	0.1508
301.4888	0.1481
301.7009	0.1563
301.913	0.1632
302.125	0.1592
302.3371	0.1621
302.5491	0.1497
302.7612	0.1613
302.9732	0.1634
303.1852	0.1498
303.3972	0.1556
303.6092	0.1529
303.8211	0.1554
304.0331	0.1434
304.245	0.1529
304.457	0.158
304.6689	0.1526
304.8808	0.1502
305.0927	0.1485
305.3046	0.1452
305.5164	0.1453
305.7283	0.1517
305.9401	0.148
306.152	0.1441
306.3638	0.1517
306.5756	0.1436
306.7874	0.1439
306.9992	0.1362
307.2109	0.1309
307.4227	0.134
307.6344	0.1255
307.8462	0.1316
308.0579	0.1279
308.2696	0.1256
308.4813	0.1254
308.693	0.1248
308.9046	0.1244
309.1163	0.1174
309.328	0.1146
309.5396	0.1204
309.7512	0.1189
309.9628	0.1227
310.1744	0.1201
310.386	0.1145
310.5976	0.1153
310.8091	0.1166
311.0207	0.1218
311.2322	0.1187
311.4437	0.1153
311.6552	0.1126
311.8667	0.1088
312.0782	0.1077
312.2897	0.1025
312.5012	0.1024
312.7126	0.1018
312.924	0.0983
313.1355	0.1067
313.3469	0.1079
313.5583	0.1053
313.7696	0.105
313.981	0.1057
314.1924	0.0966
314.4037	0.1033
314.6151	0.0904
314.8264	0.1022
315.0377	0.0976
315.249	0.1034
315.4603	0.1005
315.6716	0.1012
315.8828	0.1029
316.0941	0.1011
316.3053	0.0981
316.5165	0.1011
316.7277	0.0947
316.9389	0.0983
317.1501	0.0939
317.3613	0.0946
317.5724	0.0971
317.7836	0.0991
317.9947	0.0998
318.2058	0.0965
318.417	0.0938
318.6281	0.1041
318.8391	0.0982
319.0502	0.0936
319.2613	0.1025
319.4723	0.1016
319.6834	0.0964
319.8944	0.1033
320.1054	0.1048
320.3164	0.1092
320.5274	0.1008
320.7383	0.0973
320.9493	0.092
321.1602	0.1028
321.3712	0.1072
321.5821	0.0957
321.793	0.0953
322.0039	0.1013
322.2148	0.0996
322.4257	0.094
322.6365	0.0981
322.8474	0.102
323.0582	0.1074
323.269	0.1013
323.4798	0.104
323.6906	0.1051
323.9014	0.1088
324.1122	0.0954
324.3229	0.1022
324.5337	0.0923
324.7444	0.1013
324.9551	0.1017
325.1658	0.1002
325.3765	0.0952
325.5872	0.1035
325.7979	0.104
326.0085	0.1072
326.2192	0.0993
326.4298	0.1135
326.6404	0.1023
326.851	0.1042
327.0616	0.1002
327.2722	0.1042
327.4828	0.1094
327.6933	0.1035
327.9039	0.1129
328.1144	0.1017
328.3249	0.1033
328.5354	0.1098
328.7459	0.1084
328.9564	0.1057
329.1669	0.1045
329.3773	0.105
329.5878	0.1134
329.7982	0.1061
330.0086	0.105
330.219	0.1107
330.4294	0.105
330.6398	0.108
330.8502	0.1107
331.0605	0.1161
331.2708	0.1131
331.4812	0.1096
331.6915	0.1059
331.9018	0.1007
332.1121	0.1064
332.3224	0.1078
332.5326	0.1068
332.7429	0.1116
332.9531	0.1132
333.1633	0.1152
333.3735	0.1075
333.5837	0.1057
333.7939	0.1071
334.0041	0.108
334.2143	0.0981
334.4244	0.0999
334.6346	0.1016
334.8447	0.1132
335.0548	0.111
335.2649	0.1018
335.475	0.1042
335.685	0.1134
335.8951	0.1028
336.1051	0.0977
336.3152	0.1108
336.5252	0.1116
336.7352	0.1163
336.9452	0.1047
337.1552	0.1085
337.3652	0.1166
337.5751	0.1192
337.7851	0.1053
337.995	0.1122
338.2049	0.1058
338.4148	0.1163
338.6247	0.1169
338.8346	0.1119
339.0445	0.1156
339.2543	0.1121
339.4642	0.1129
339.674	0.1129
339.8838	0.1203
340.0936	0.1183
340.3034	0.1297
340.5132	0.1155
340.7229	0.1279
340.9327	0.1117
341.1424	0.1077
341.3522	0.1135
341.5619	0.1223
341.7716	0.1303
341.9813	0.1309
342.1909	0.1286
342.4006	0.1205
342.6102	0.127
342.8199	0.1308
343.0295	0.125
343.2391	0.1343
343.4487	0.1223
343.6583	0.1317
343.8679	0.1154
344.0774	0.1346
344.287	0.1284
344.4965	0.1324
344.706	0.1386
344.9155	0.128
345.125	0.1311
345.3345	0.1296
345.544	0.1246
345.7534	0.1313
345.9629	0.1238
346.1723	0.1274
346.3817	0.1338
346.5911	0.1325
346.8005	0.1304
347.0099	0.1249
347.2193	0.1349
347.4286	0.1342
347.638	0.1381
347.8473	0.1269
348.0566	0.1298
348.2659	0.1341
348.4752	0.1314
348.6845	0.1281
348.8937	0.1441
349.103	0.1388
349.3122	0.1385
349.5214	0.1346
349.7306	0.1322
349.9398	0.1316
350.149	0.1401
350.3582	0.1342
350.5674	0.141
350.7765	0.1376
350.9856	0.1418
351.1948	0.1421
351.4039	0.1465
351.613	0.1362
351.822	0.1479
352.0311	0.1375
352.2402	0.1509
352.4492	0.1369
352.6582	0.1432
352.8672	0.1484
353.0762	0.1505
353.2852	0.1573
353.4942	0.1562
353.7032	0.1483
353.9121	0.1516
354.1211	0.1478
354.33	0.1525
354.5389	0.1511
354.7478	0.1524
354.9567	0.1505
355.1655	0.1546
355.3744	0.1582
355.5833	0.1522
355.7921	0.1523
356.0009	0.1495
356.2097	0.1535
356.4185	0.1523
356.6273	0.148
356.8361	0.1487
357.0448	0.1592
357.2536	0.1527
357.4623	0.1513
357.671	0.1618
357.8797	0.1654
358.0884	0.158
358.2971	0.1629
358.5057	0.1694
358.7144	0.1616
358.923	0.1707
359.1316	0.1694
359.3402	0.1725
359.5488	0.1579
359.7574	0.1724
359.966	0.1671
360.1746	0.1708
360.3831	0.1695
360.5916	0.1766
360.8002	0.1732
361.0087	0.17
361.2172	0.1775
361.4256	0.1769
361.6341	0.1798
361.8426	0.1792
362.051	0.1681
362.2594	0.1823
362.4678	0.1819
362.6762	0.1844
362.8846	0.1759
363.093	0.1745
363.3014	0.1789
363.5097	0.1806
363.718	0.1938
363.9264	0.1767
364.1347	0.1866
364.343	0.1796
364.5513	0.1893
364.7595	0.1873
364.9678	0.1883
365.176	0.1977
365.3842	0.1886
365.5925	0.1837
365.8007	0.1864
366.0089	0.1967
366.217	0.1898
366.4252	0.1958
366.6333	0.1905
366.8415	0.2048
367.0496	0.1948
367.2577	0.2031
367.4658	0.1959
367.6739	0.1966
367.882	0.2027
368.09	0.1976
368.2981	0.2152
368.5061	0.1914
368.7141	0.2023
368.9221	0.1973
369.1301	0.2215
369.3381	0.2074
369.5461	0.2078
369.754	0.1961
369.962	0.2
370.1699	0.2024
370.3778	0.2108
370.5857	0.2008
370.7936	0.209
371.0015	0.2212
371.2093	0.203
371.4172	0.2105
371.625	0.2113
371.8328	0.2156
372.0406	0.2158
372.2484	0.2154
372.4562	0.2118
372.664	0.2159
372.8717	0.2068
373.0795	0.2169
373.2872	0.2148
373.4949	0.2073
373.7026	0.2167
373.9103	0.2127
374.118	0.2324
374.3256	0.2113
374.5333	0.2153
374.7409	0.2169
374.9485	0.215
375.1561	0.2217
375.3637	0.2142
375.5713	0.2216
375.7789	0.2144
375.9864	0.2145
376.194	0.2202
376.4015	0.2408
376.609	0.2251
376.8165	0.2239
377.024	0.2197
377.2315	0.2218
377.4389	0.2156
377.6464	0.2206
377.8538	0.239
378.0612	0.2217
378.2686	0.2189
378.476	0.2232
378.6834	0.2279
378.8908	0.2393
379.0981	0.2216
379.3055	0.2319
379.5128	0.2252
379.7201	0.2335
379.9274	0.2268
380.1347	0.2314
380.342	0.2264
380.5492	0.2323
380.7565	0.245
380.9637	0.2377
381.1709	0.229
381.3781	0.2282
381.5853	0.2334
381.7925	0.231
381.9997	0.2315
382.2068	0.2432
382.4139	0.2299
382.6211	0.2358
382.8282	0.2257
383.0353	0.2277
383.2424	0.2283
383.4494	0.2433
383.6565	0.2303
383.8635	0.2452
384.0706	0.2376
384.2776	0.2394
384.4846	0.2372
384.6916	0.2385
384.8986	0.2444
385.1055	0.2449
385.3125	0.2492
385.5194	0.2406
385.7263	0.2462
385.9333	0.2475
386.1402	0.2401
386.347	0.2416
386.5539	0.2415
386.7608	0.2392
386.9676	0.2399
387.1744	0.2378
387.3813	0.2316
387.5881	0.2379
387.7948	0.2345
388.0016	0.2392
388.2084	0.2359
388.4151	0.2378
388.6219	0.2377
388.8286	0.2424
389.0353	0.2335
389.242	0.2384
389.4487	0.2323
389.6553	0.2297
389.862	0.217
390.0686	0.2355
390.2753	0.2244
390.4819	0.2321
390.6885	0.2427
390.8951	0.2206
391.1016	0.2442
391.3082	0.2216
391.5147	0.2311
391.7213	0.2257
391.9278	0.2161
392.1343	0.2208
392.3408	0.2088
392.5473	0.2319
392.7537	0.2219
392.9602	0.209
393.1666	0.2153
393.373	0.2087
393.5794	0.2251
393.7858	0.2095
393.9922	0.2044
394.1986	0.2092
394.4049	0.2276
394.6113	0.2239
394.8176	0.2015
395.0239	0.2061
395.2302	0.2065
395.4365	0.2084
395.6428	0.1948
395.8491	0.2099
396.0553	0.203
396.2615	0.1949
396.4678	0.2097
396.674	0.1959
396.8802	0.2049
397.0863	0.2035
397.2925	0.1994
397.4987	0.2023
397.7048	0.202
397.9109	0.1982
398.117	0.197
398.3231	0.2179
398.5292	0.1913
398.7353	0.1974
398.9413	0.1987
399.1474	0.1966
399.3534	0.1953
399.5594	0.2035
399.7654	0.1963
399.9714	0.1943
400.1774	0.1896
400.3833	0.1971
400.5893	0.2014
400.7952	0.189
401.0011	0.1894
401.207	0.1978
401.4129	0.1817
401.6188	0.1954
401.8247	0.1867
402.0305	0.1957
402.2364	0.2031
402.4422	0.1901
402.648	0.2114
402.8538	0.1955
403.0596	0.1877
403.2654	0.1866
403.4711	0.1867
403.6768	0.1937
403.8826	0.1984
404.0883	0.1864
404.294	0.1968
404.4997	0.1835
404.7054	0.1901
404.911	0.2017
405.1167	0.2032
405.3223	0.1902
405.5279	0.2
405.7335	0.2012
405.9391	0.1956
406.1447	0.1962
406.3502	0.2052
406.5558	0.2035
406.7613	0.1825
406.9668	0.2048
407.1724	0.1964
407.3778	0.1959
407.5833	0.1893
407.7888	0.207
407.9942	0.1864
408.1997	0.192
408.4051	0.2003
408.6105	0.1837
408.8159	0.1965
409.0213	0.1842
409.2267	0.1858
409.432	0.2052
409.6374	0.1977
409.8427	0.2041
410.048	0.1924
410.2533	0.1854
410.4586	0.195
410.6639	0.1786
410.8691	0.194
411.0744	0.1838
411.2796	0.2026
411.4848	0.1807
411.69	0.1975
411.8952	0.1969
412.1004	0.1799
412.3056	0.1989
412.5107	0.2047
412.7158	0.1884
412.921	0.1924
413.1261	0.1763
413.3312	0.2053
413.5362	0.1917
413.7413	0.1922
413.9464	0.1833
414.1514	0.1774
414.3564	0.1816
414.5614	0.2058
414.7664	0.1911
414.9714	0.1856
415.1764	0.1886
415.3813	0.1876
415.5863	0.1882
415.7912	0.1893
415.9961	0.1893
416.201	0.1998
416.4059	0.1904
416.6108	0.1843
416.8156	0.1845
417.0205	0.1904
417.2253	0.1866
417.4301	0.1833
417.6349	0.1863
417.8397	0.1888
418.0445	0.178
418.2492	0.1894
418.454	0.1826
418.6587	0.1792
418.8634	0.189
419.0681	0.1751
419.2728	0.1872
419.4775	0.1784
419.6822	0.1912
419.8868	0.1729
420.0915	0.1761
420.2961	0.1807
420.5007	0.1776
420.7053	0.1774
420.9099	0.1789
421.1144	0.1695
421.319	0.171
421.5235	0.1837
421.728	0.1673
421.9325	0.1762
422.137	0.162
422.3415	0.1774
422.546	0.174
422.7504	0.1706
422.9549	0.1728
423.1593	0.1695
423.3637	0.1571
423.5681	0.1636
423.7725	0.1685
423.9769	0.1748
424.1812	0.157
424.3856	0.1692
424.5899	0.1665
424.7942	0.1588
424.9985	0.1748
425.2028	0.1547
425.4071	0.1557
425.6113	0.1608
425.8156	0.1541
426.0198	0.1635
426.224	0.1388
426.4282	0.1427
426.6324	0.1628
426.8366	0.1594
427.0407	0.1587
427.2449	0.1577
427.449	0.1603
427.6531	0.1491
427.8572	0.1449
428.0613	0.1466
428.2654	0.134
428.4694	0.1538
428.6735	0.1534
428.8775	0.1399
429.0815	0.1462
429.2855	0.1519
429.4895	0.1332
429.6935	0.1292
429.8975	0.1465
430.1014	0.1349
430.3053	0.1293
430.5093	0.1307
430.7132	0.1331
430.9171	0.1282
431.1209	0.1349
431.3248	0.1353
431.5286	0.128
431.7325	0.1312
431.9363	0.1245
432.1401	0.1215
432.3439	0.1134
432.5477	0.1227
432.7514	0.1207
432.9552	0.118
433.1589	0.1099
433.3627	0.1173
433.5664	0.1106
433.7701	0.1137
433.9737	0.0979
434.1774	0.1027
434.3811	0.098
434.5847	0.1069
434.7883	0.1052
434.9919	0.102
435.1955	0.0883
435.3991	0.0923
435.6027	0.0935
435.8062	0.1048
436.0098	0.0908
436.2133	0.0915
436.4168	0.0961
436.6203	0.0952
436.8238	0.0905
437.0272	0.0909
437.2307	0.085
437.4341	0.0903
437.6375	0.0857
437.841	0.0846
438.0443	0.0793
438.2477	0.0835
438.4511	0.0812
438.6545	0.08
438.8578	0.0728
439.0611	0.0783
439.2644	0.0879
439.4677	0.0746
439.671	0.0695
439.8743	0.0817
440.0775	0.0603
440.2808	0.0598
440.484	0.0673
440.6872	0.0585
440.8904	0.0601
441.0936	0.0592
441.2967	0.0693
441.4999	0.0525
441.703	0.0525
441.9062	0.0622
442.1093	0.0616
442.3124	0.0548
442.5155	0.054
442.7185	0.0471
442.9216	0.0515
443.1246	0.0521
443.3276	0.0517
443.5307	0.0437
443.7337	0.0603
443.9366	0.0534
444.1396	0.0392
444.3426	0.0472
444.5455	0.0384
444.7484	0.0364
444.9513	0.0502
445.1542	0.0433
445.3571	0.0427
445.56	0.0442
445.7628	0.0322
445.9657	0.0488
446.1685	0.0393
446.3713	0.033
446.5741	0.0461
446.7769	0.0403
446.9797	0.0329
447.1824	0.0276
447.3852	0.0365
447.5879	0.0291
447.7906	0.0318
447.9933	0.0292
448.196	0.0331
448.3986	0.0242
448.6013	0.0196
448.8039	0.0338
449.0066	0.0316
449.2092	0.0262
449.4118	0.0236
449.6143	0.0268
449.8169	0.0207
450.0195	0.0149
450.222	0.0131
450.4245	0.0232
450.627	0.0132
450.8295	0.0128
451.032	0.0282
451.2345	0.0086
451.4369	0.0212
451.6394	0.0105
451.8418	0.0128
452.0442	0.0157
452.2466	0.0161
452.449	0.0226
452.6513	0.0171
452.8537	0.018
453.056	0.0085
453.2583	0.0236
453.4607	0.0182
453.663	0.0265
453.8652	0.0064
454.0675	0.0128
454.2697	0.0235
454.472	0.0147
454.6742	0.0101
454.8764	0.0068
455.0786	0.0163
455.2808	0.0098
455.4829	0.0221
455.6851	0.0036
455.8872	0.0045
456.0893	-0.0008
456.2915	0.0092
456.4935	0.0095
456.6956	0.0079
456.8977	0.0101
457.0997	0.0017
457.3018	0.0059
457.5038	0.0065
457.7058	-0.0013
457.9078	0.0002
458.1098	0.0033
458.3117	0.0126
458.5137	0.0072
458.7156	0.0076
458.9175	0.0106
459.1194	0.0044
459.3213	0.0002
459.5232	0.0006
459.725	-0.0001
459.9269	0.001
460.1287	0.0059
460.3305	0.0061
460.5323	0.0135
460.7341	0.0069
460.9359	0.0046
461.1376	-0.0016
461.3394	0.0032
461.5411	0.0033
461.7428	0.0037
461.9445	-0.0056
462.1462	-0.0002
462.3479	-0.002
462.5495	0.0064
462.7512	-0.0007
462.9528	-0.0033
463.1544	0.0046
463.356	0.0029
463.5576	0.0011
463.7592	0.0058
463.9607	-0.0007
464.1623	-0.0064
464.3638	0.0072
464.5653	-0.0033
464.7668	0.0013
464.9683	0.0079
465.1697	0.0004
465.3712	0.0008
465.5726	-0.0071
465.7741	-0.0026
465.9755	-0.0008
466.1769	-0.0128
466.3782	-0.0043
466.5796	-0.0042
466.7809	-0.0095
466.9823	-0.0036
467.1836	0.0016
467.3849	-0.003
467.5862	-0.0063
467.7875	-0.0081
467.9887	-0.0056
468.19	-0.004
468.3912	0.0026
468.5924	-0.0089
468.7936	-0.0114
468.9948	0.0127
469.196	-0.0073
469.3972	0.0119
469.5983	0.014
469.7994	-0.0068
470.0006	-0.005
470.2017	0.0031
470.4027	-0.0065
470.6038	-0.0051
470.8049	0.0003
471.0059	-0.009
471.2069	0.0003
471.408	-0.0046
471.6089	-0.0046
471.8099	-0.0045
472.0109	-0.0097
472.2119	-0.0108
472.4128	0.0007
472.6137	-0.0067
472.8146	-0.0121
473.0155	-0.0109
473.2164	-0.0133
473.4173	-0.0124
473.6181	0.0022
473.819	-0.0101
474.0198	-0.0049
474.2206	-0.0011
474.4214	-0.0068
474.6222	-0.0072
474.8229	-0.0149
475.0237	0.0013
475.2244	-0.0001
475.4251	0.0011
475.6258	-0.0016
475.8265	0.0001
476.0272	-0.0072
476.2278	-0.0052
476.4285	-0.002
476.6291	-0.0036
476.8297	-0.0144
477.0303	-0.0111
477.2309	-0.0083
477.4315	-0.0029
477.632	-0.0109
477.8326	-0.0061
478.0331	-0.004
478.2336	-0.0019
478.4341	-0.0095
478.6346	-0.0017
478.8351	-0.0065
479.0355	-0.0083
479.236	-0.0058
479.4364	-0.0106
479.6368	-0.0003
479.8372	-0.0104
480.0376	-0.0099
480.2379	-0.0093
480.4383	-0.0045
480.6386	-0.0103
480.8389	-0.0127
481.0392	-0.0156
481.2395	-0.0112
481.4398	-0.0005
481.6401	-0.0117
481.8403	-0.0039
482.0405	-0.0082
482.2408	-0.0015
482.441	0.0006
482.6411	0.0069
482.8413	-0.0118
483.0415	-0.0097
483.2416	-0.0008
483.4417	-0.0093
483.6419	-0.0025
483.8419	-0.0118
484.042	-0.0062
484.2421	-0.0126
484.4422	-0.0057
484.6422	-0.0127
484.8422	-0.0087
485.0422	-0.0058
485.2422	-0.0048
485.4422	-0.0056
485.6422	-0.0062
485.8421	-0.0099
486.042	-0.0074
486.242	-0.0077
486.4419	-0.0058
486.6417	-0.0083
486.8416	0.002
487.0415	-0.0108
487.2413	-0.0046
487.4411	-0.0061
487.641	-0.0048
487.8408	-0.0091
488.0405	-0.0095
488.2403	-0.0074
488.4401	-0.0098
488.6398	-0.006
488.8395	-0.0117
489.0392	0.0015
489.2389	-0.0018
489.4386	-0.0075
489.6383	-0.0058
489.8379	-0.0019
490.0376	-0.0088
490.2372	-0.0044
490.4368	-0.0136
490.6364	-0.0029
490.836	-0.0053
491.0355	-0.0024
491.2351	-0.0068
491.4346	-0.0007
491.6341	-0.0073
491.8336	-0.0004
492.0331	-0.0106
492.2326	-0.0076
492.432	-0.0042
492.6315	-0.0046
492.8309	-0.0082
493.0303	-0.0096
493.2297	0.0023
493.4291	-0.013
493.6284	-0.0006
493.8278	-0.0032
494.0271	-0.0061
494.2264	0.0039
494.4257	0.0004
494.625	-0.0091
494.8243	-0.0034
495.0236	-0.0146
495.2228	-0.0098
495.422	-0.0089
495.6213	-0.0131
495.8205	-0.0017
496.0196	-0.0022
496.2188	-0.0062
496.418	-0.0014
496.6171	0.0006
496.8162	-0.0047
497.0153	-0.0019
497.2144	0.0025
497.4135	-0.0048
497.6126	-0.0036
497.8116	-0.0018
498.0107	-0.0019
498.2097	0.0002
498.4087	-0.013
498.6077	-0.008
498.8067	-0.009
499.0056	-0.0023
499.2046	-0.0004
499.4035	-0.0074
499.6024	-0.0086
499.8013	0.0034
500.0002	-0.0122
500.199	-0.005
500.3979	-0.0018
500.5967	-0.0123
500.7956	-0.0148
500.9944	-0.0066
501.1932	-0.0137
501.3919	-0.0134
501.5907	-0.01
501.7895	0.0009
501.9882	-0.0086
502.1869	-0.0025
502.3856	-0.0108
502.5843	-0.004
502.783	-0.0115
502.9816	-0.0086
503.1803	-0.0032
503.3789	-0.0022
503.5775	0.0002
503.7761	-0.0036
503.9747	-0.0135
504.1732	-0.0036
504.3718	-0.0022
504.5703	-0.0067
504.7689	-0.004
504.9674	-0.0039
505.1658	-0.0098
505.3643	-0.005
505.5628	0.0034
505.7612	-0.0104
505.9597	-0.0056
506.1581	-0.0045
506.3565	0.0051
506.5549	-0.0034
506.7532	-0.0093
506.9516	0.0017
507.1499	0.0017
507.3482	-0.002
507.5465	-0.0013
507.7448	-0.0022
507.9431	-0.0066
508.1414	-0.0136
508.3396	-0.0047
508.5379	0.0028
508.7361	-0.002
508.9343	-0.0098
509.1325	-0.0005
509.3306	0.0014
509.5288	-0.0038
509.7269	-0.0143
509.9251	-0.0112
510.1232	-0.0029
510.3213	-0.0128
510.5193	-0.0039
510.7174	0.0007
510.9154	-0.0011
511.1135	-0.0069
511.3115	-0.0146
511.5095	-0.0129
511.7075	-0.0036
511.9055	-0.0035
512.1034	-0.0086
512.3014	-0.0091
512.4993	-0.0057
512.6972	-0.0052
512.8951	-0.0071
513.093	-0.0096
513.2908	-0.0004
513.4887	-0.007
513.6865	-0.0127
513.8844	0.0026
514.0822	-0.006
514.2799	-0.011
514.4777	-0.0092
514.6755	-0.007
514.8732	-0.0092
515.0709	-0.0117
515.2687	-0.011
515.4664	-0.0038
515.664	-0.0033
515.8617	-0.0076
516.0594	-0.0089
516.257	0.0009
516.4546	-0.0093
516.6522	-0.0023
516.8498	-0.0153
517.0474	0.0001
517.2449	-0.005
517.4425	-0.0052
517.64	-0.0079
517.8375	-0.0069
518.035	-0.0013
518.2325	-0.0116
518.43	0.0019
518.6274	-0.0073
518.8249	-0.0084
519.0223	-0.009
519.2197	-0.0041
519.4171	-0.0004
519.6145	-0.0104
519.8118	-0.0087
520.0092	-0.0011
520.2065	-0.0114
520.4038	-0.0079
520.6011	-0.0111
520.7984	-0.0086
520.9956	-0.0091
521.1929	-0.0016
521.3901	-0.0053
521.5874	-0.0013
521.7846	0.005
521.9818	-0.0052
522.1789	-0.0075
522.3761	-0.0103
522.5732	-0.0055
522.7704	-0.0114
522.9675	0.0014
523.1646	-0.0041
523.3617	-0.0063
523.5587	-0.0072
523.7558	-0.0034
523.9528	-0.0015
524.1498	-0.006
524.3468	-0.004
524.5438	-0.0094
524.7408	-0.0165
524.9378	-0.0112
525.1347	0.0049
525.3316	-0.0005
525.5285	-0.0048
525.7254	-0.0091
525.9223	-0.0036
526.1192	-0.0076
526.316	0.0002
526.5129	-0.0084
526.7097	-0.0115
526.9065	-0.0001
527.1033	-0.0071
527.3	-0.0076
527.4968	-0.0139
527.6935	-0.0038
527.8903	-0.0041
528.087	-0.0103
528.2837	-0.002
528.4804	-0.0105
528.677	-0.0033
528.8737	-0.0136
529.0703	0.0008
529.2669	-0.0048
529.4635	-0.011
529.6601	-0.0018
529.8567	0.0008
530.0532	-0.0024
530.2498	-0.0064
530.4463	-0.0022
530.6428	-0.0015
530.8393	0.0005
531.0358	-0.0146
531.2322	-0.0065
531.4287	-0.0163
531.6251	-0.0052
531.8215	0.0001
532.0179	-0.0099
532.2143	-0.0026
532.4107	-0.0049
532.607	-0.0089
532.8034	-0.0017
532.9997	-0.0047
533.196	-0.0095
533.3923	0.0024
533.5886	-0.0061
533.7848	0.0014
533.9811	-0.0044
534.1773	-0.0075
534.3735	-0.0035
534.5697	-0.0049
534.7659	-0.0019
534.9621	-0.0006
535.1582	-0.0093
535.3544	-0.0063
535.5505	-0.0003
535.7466	-0.0031
535.9427	-0.0032
536.1387	-0.0006
536.3348	0.0027
536.5308	-0.0093
536.7269	0.0021
536.9229	-0.0078
537.1189	-0.0098
537.3148	0.0014
537.5108	-0.0004
537.7068	-0.0055
537.9027	-0.0089
538.0986	0.0015
538.2945	-0.0068
538.4904	-0.0106
538.6863	-0.0103
538.8821	0.0001
539.078	-0.0104
539.2738	-0.0156
539.4696	-0.0094
539.6654	-0.0102
539.8611	-0.0068
540.0569	-0.0042
540.2526	-0.0091
540.4484	0.0055
540.6441	-0.0002
540.8398	-0.0039
541.0355	-0.0058
541.2311	-0.0027
541.4268	-0.0034
541.6224	-0.0056
541.818	-0.009
542.0136	-0.0062
542.2092	-0.005
542.4048	-0.0011
542.6003	-0.0018
542.7959	-0.0054
542.9914	-0.0097
543.1869	-0.0095
543.3824	-0.0113
543.5779	-0.0125
543.7734	-0.0082
543.9688	-0.0132
544.1642	-0.0119
544.3596	-0.0068
544.555	-0.0053
544.7504	-0.0107
544.9458	-0.0059
545.1411	0.0024
545.3365	-0.0037
545.5318	0.0014
545.7271	0.0023
545.9224	0.0011
546.1177	-0.0085
546.3129	-0.0083
546.5081	-0.0024
546.7034	-0.0029
546.8986	-0.0061
547.0938	-0.0047
547.289	-0.0001
547.4841	-0.0077
547.6793	-0.0066
547.8744	0.0013
548.0695	-0.0042
548.2646	-0.0137
548.4597	0.0004
548.6548	0.0026
548.8498	-0.005
549.0448	-0.0029
549.2399	-0.0003
549.4349	-0.0046
549.6298	-0.0156
549.8248	-0.0005
550.0198	-0.0031
550.2147	-0.0032
550.4096	-0.0025
550.6045	-0.0086
550.7994	-0.0013
550.9943	0.0002
551.1892	-0.002
551.384	-0.009
551.5788	-0.0097
551.7737	0.0001
551.9685	-0.0085
552.1632	-0.004
552.358	-0.0095
552.5528	-0.005
552.7475	-0.011
552.9422	-0.0082
553.1369	-0.0014
553.3316	0
553.5263	-0.0025
553.7209	-0.0086
553.9156	-0.0031
554.1102	-0.0083
554.3048	-0.008
554.4994	-0.0071
554.694	0.0026
554.8885	-0.0059
555.0831	-0.0003
555.2776	-0.0012
555.4721	-0.0049
555.6666	-0.0042
555.8611	-0.002
556.0555	-0.0074
556.25	-0.0025
556.4444	-0.0062
556.6388	-0.0081
556.8332	-0.0076
557.0276	-0.0052
557.222	-0.0073
557.4163	0.0019
557.6107	-0.0059
557.805	-0.0044
557.9993	-0.0074
558.1936	-0.0024
558.3879	0.0052
558.5821	-0.0034
558.7764	-0.0101
558.9706	-0.0042
559.1648	-0.0103
559.359	-0.0092
559.5532	-0.0053
559.7473	-0.0078
559.9415	-0.0024
560.1356	-0.0066
560.3297	-0.0124
560.5238	-0.0076
560.7179	-0.0013
560.9119	0.0053
561.106	-0.003
561.3	-0.0027
561.494	-0.0047
561.688	-0.009
561.882	-0.0022
562.076	-0.0054
562.2699	-0.0031
562.4639	-0.0059
562.6578	-0.0031
562.8517	-0.0037
563.0456	-0.0011
563.2395	-0.0048
563.4333	-0.006
563.6272	-0.0083
563.821	-0.0029
564.0148	0.0011
564.2086	-0.0016
564.4024	-0.0065
564.5961	-0.003
564.7899	-0.0002
564.9836	0.0009
565.1773	-0.0033
565.371	0.0012
565.5647	-0.0057
565.7584	0.0076
565.952	0.0015
566.1456	-0.0062
566.3393	-0.0014
566.5329	-0.0084
566.7264	0.0016
566.92	-0.0052
567.1136	-0.0041
567.3071	0.0008
567.5006	-0.0011
567.6941	-0.003
567.8876	-0.0012
568.0811	-0.0014
568.2745	-0.0088
568.468	-0.0087
568.6614	-0.0099
568.8548	-0.0074
569.0482	-0.0047
569.2416	-0.005
569.4349	-0.0038
569.6283	-0.0017
569.8216	-0.0102
570.0149	-0.0031
570.2082	-0.0014
570.4015	-0.0014
570.5947	-0.0034
570.788	-0.0106
570.9812	-0.003
571.1744	-0.0088
571.3676	-0.0055
571.5608	-0.0053
571.754	-0.0054
571.9471	-0.0021
572.1402	-0.0042
572.3333	0.0001
572.5264	-0.001
572.7195	-0.0023
572.9126	-0.0016
573.1057	-0.0079
573.2987	-0.0018
573.4917	-0.0042
573.6847	-0.0048
573.8777	-0.005
574.0707	-0.0005
574.2636	-0.0027
574.4566	-0.0007
574.6495	-0.0028
574.8424	-0.0041
575.0353	-0.0034
575.2281	-0.002
575.421	-0.0089
575.6138	-0.0003
575.8067	-0
575.9995	0.0036
576.1923	-0.008
576.385	-0.004
576.5778	0.0004
576.7706	-0.0021
576.9633	-0.0027
577.156	0.0003
577.3487	-0.0005
577.5414	-0.0009
577.734	0.0026
577.9267	0.0023
578.1193	-0.0038
578.3119	-0.0033
578.5045	-0.0058
578.6971	-0.0022
578.8897	-0.0037
579.0822	-0.0009
579.2747	0.0041
579.4673	0.0001
579.6598	-0.0002
579.8522	0.0001
580.0447	-0.0031
580.2372	-0.0007
580.4296	0.0036
580.622	0.0055
580.8144	-0.0044
581.0068	-0.002
581.1992	0.0017
581.3915	-0.0008
581.5839	-0.0005
581.7762	-0.0039
581.9685	-0.0013
582.1608	-0.0092
582.353	0.001
582.5453	-0.0075
582.7375	0.0005
582.9298	-0.0027
583.122	0.0036
583.3142	-0.0029
583.5063	-0.0006
583.6985	-0.006
583.8906	-0.0033
584.0827	-0.0047
584.2749	-0.007
584.4669	-0.0064
584.659	-0.01
584.8511	-0.0017
585.0431	-0.0003
585.2352	-0.0027
585.4272	-0.004
585.6192	-0.0091
585.8111	-0.0025
586.0031	-0.0009
586.195	-0.0063
586.387	-0.0049
586.5789	-0.0037
586.7708	-0.0081
586.9627	-0.0037
587.1545	-0.0071
587.3464	-0.0083
587.5382	-0.0017
587.73	-0.0045
587.9218	-0.0064
588.1136	-0.0011
588.3053	-0.0003
588.4971	-0.0085
588.6888	-0.0037
588.8805	-0.0002
589.0722	-0.0038
589.2639	-0.0056
589.4556	0.0006
589.6472	-0.0026
589.8389	0.0002
590.0305	-0.0011
590.2221	-0.0041
590.4137	-0.005
590.6052	-0.0024
590.7968	-0.0003
590.9883	-0.0025
591.1798	-0.0118
591.3713	0.0009
591.5628	-0.0071
591.7543	0.0003
591.9458	-0.0036
592.1372	-0.0022
592.3286	0.0018
592.52	-0.0047
592.7114	0.0003
592.9028	-0.0012
593.0941	0.0001
593.2855	-0.0039
593.4768	-0.0009
593.6681	-0.0009
593.8594	0.0027
594.0506	-0.0026
594.2419	0.0034
594.4331	-0.0009
594.6244	-0.0056
594.8156	-0.0077
595.0067	-0.0023
595.1979	-0.0012
595.3891	-0.0076
595.5802	-0.0061
595.7713	-0.0029
595.9624	0.0003
596.1535	0.0008
596.3446	0.0002
596.5357	0.0011
596.7267	-0.001
596.9177	0.0002
597.1087	-0.0012
597.2997	0.0015
597.4907	-0.001
597.6817	-0.0019
597.8726	-0.0034
598.0635	-0.0024
598.2544	-0.0031
598.4453	-0.0042
598.6362	-0.0071
598.827	-0.0075
599.0179	0.0012
599.2087	-0.0102
599.3995	-0.0049
599.5903	0.0005
599.7811	-0.0064
599.9718	0.0003
600.1626	-0.0038
600.3533	-0.0007
600.544	-0.0017
600.7347	0.0033
600.9254	-0.0007
601.116	-0.0042
601.3067	-0.003
601.4973	-0.0071
601.6879	0.0023
601.8785	-0.0054
602.0691	-0.0036
602.2596	-0.008
602.4502	-0.0086
602.6407	-0.0018
602.8312	-0.0056
603.0217	-0.0026
603.2122	-0.0012
603.4027	-0.0016
603.5931	-0.0058
603.7835	-0.0048
603.9739	-0.0023
604.1643	-0.0002
604.3547	-0.0007
604.5451	-0.0018
604.7354	-0.0019
604.9257	-0.0027
605.116	-0.0017
605.3063	0.0015
605.4966	-0.0023
605.6869	-0.0031
605.8771	-0.003
606.0673	-0.001
606.2575	-0.0009
606.4477	-0.0082
606.6379	-0.0111
606.8281	-0.0098
607.0182	-0.0115
607.2083	-0.0061
607.3985	-0.0083
607.5885	-0.003
607.7786	-0.0059
607.9687	-0.0047
608.1587	-0.0052
608.3488	-0.001
608.5388	0.0005
608.7288	-0.0056
608.9187	-0.0018
609.1087	-0.0056
609.2986	-0.0064
609.4886	-0.0007
609.6785	-0.0046
609.8684	-0.0061
610.0582	-0.0043
610.2481	-0.0012
610.4379	0.0013
610.6278	0.0004
610.8176	-0.0008
611.0074	-0.0035
611.1971	-0.0006
611.3869	-0.0071
611.5766	0.0032
611.7664	-0.001
611.9561	-0.0018
612.1458	0.0049
612.3354	-0.0076
612.5251	-0.0078
612.7147	-0.0012
612.9044	-0.0039
613.094	-0.0002
613.2836	-0.0052
613.4731	-0.0021
613.6627	-0.005
613.8522	-0
614.0417	-0.0048
614.2313	-0.0054
614.4207	-0.0063
614.6102	0.0018
614.7997	-0.0048
614.9891	-0.007
615.1785	-0.0041
615.3679	0.0025
615.5573	0.0001
615.7467	0.0022
615.9361	-0.0015
616.1254	-0.0056
616.3147	-0.0036
616.504	-0.0003
616.6933	-0.0038
616.8826	-0.0112
617.0718	-0.0034
617.2611	0.0015
617.4503	0.001
617.6395	-0.0056
617.8287	0.0031
618.0179	0.001
618.207	-0.0015
618.3961	-0.0039
618.5853	-0.0019
618.7744	-0.0023
618.9634	0.0004
619.1525	-0.0087
619.3416	-0.0066
619.5306	0.0003
619.7196	-0.0025
619.9086	-0.0026
620.0976	-0.0033
620.2866	-0.0007
620.4755	-0.0027
620.6645	-0.0045
620.8534	0.0009
621.0423	-0.0058
621.2312	-0.0068
621.42	-0.0003
621.6089	0.0004
621.7977	-0.0048
621.9865	-0.0027
622.1753	0.003
622.3641	0.003
622.5529	-0.0007
622.7416	-0.0034
622.9303	0.0011
623.1191	-0.0016
623.3078	-0.0048
623.4964	-0.0057
623.6851	0.0051
623.8737	-0.0025
624.0624	0.0021
624.251	-0.0014
624.4396	-0.0041
624.6282	0
624.8167	0.0014
625.0053	-0.0023
625.1938	0.001
625.3823	0.0003
625.5708	0.0019
625.7593	-0.0037
625.9477	-0.0082
626.1362	-0.0054
626.3246	-0.0039
626.513	-0.0038
626.7014	-0.001
626.8898	-0.0022
627.0781	-0.0008
627.2665	-0.0053
627.4548	-0.0091
627.6431	-0.0028
627.8314	-0.0016
628.0197	-0.0002
628.2079	-0.0013
628.3962	0.0013
628.5844	-0.0006
628.7726	-0.0029
628.9608	0.0012
629.1489	0.0014
629.3371	-0.0034
629.5252	-0
629.7134	0.0011
629.9015	-0.0007
630.0895	-0.0034
630.2776	0.0026
630.4657	-0.0016
630.6537	-0.0019
630.8417	-0.0028
631.0297	-0.0037
631.2177	0.0005
631.4057	-0.0004
631.5936	-0.0002
631.7815	-0.002
631.9695	0.0031
632.1574	-0.0071
632.3452	-0.0059
632.5331	-0.0068
632.7209	-0.0067
632.9088	-0.0061
633.0966	-0.0068
633.2844	-0.002
633.4722	0.0008
633.6599	-0.0033
633.8477	-0.0039
634.0354	-0.0036
634.2231	-0.0052
634.4108	-0.0044
634.5985	-0.0024
634.7861	-0.0039
634.9738	-0.0068
635.1614	-0.0043
635.349	-0.0041
635.5366	-0.0069
635.7242	-0.0033
635.9117	0.0014
636.0993	-0.002
636.2868	0.0007
636.4743	0.0033
636.6618	-0.0055
636.8492	-0.0079
637.0367	-0.0041
637.2241	-0.0054
637.4115	-0.0082
637.5989	-0.0024
637.7863	-0.0048
637.9737	-0.0054
638.161	-0.0039
638.3484	-0.0034
638.5357	-0.0045
638.723	-0.0009
638.9103	-0.0005
639.0975	0.0071
639.2848	-0.002
639.472	-0.0025
639.6592	0.0045
639.8464	0.0022
640.0336	-0.0039
640.2208	-0.0025
640.4079	-0.005
640.595	-0.0024
640.7821	-0.0033
640.9692	-0.0003
641.1563	0.0029
641.3434	0.0036
641.5304	-0.0026
641.7174	0.0051
641.9044	0.003
642.0914	0.001
642.2784	0.0041
642.4653	0.002
642.6523	-0.0004
642.8392	0.0012
643.0261	0.0084
643.213	0.0047
643.3999	-0.0029
643.5867	-0.0008
643.7735	-0.0022
643.9604	0.0029
644.1472	-0.0053
644.3339	0.0005
644.5207	-0.0028
644.7075	-0.0027
644.8942	-0.0026
645.0809	-0.0013
645.2676	-0.0058
645.4543	0.0022
645.6409	-0.0001
645.8276	0.001
646.0142	-0.0028
646.2008	-0.0041
646.3874	-0.0036
646.574	-0.0043
646.7605	-0.0021
646.9471	-0.0103
647.1336	-0.0071
647.3201	-0.002
647.5066	0.0003
647.6931	0.0018
647.8795	-0.007
648.0659	-0.002
648.2524	-0.0041
648.4388	-0.0036
648.6252	-0.0044
648.8115	-0.011
648.9979	-0.0032
649.1842	-0.008
649.3705	-0.0079
649.5568	-0.0037
649.7431	-0.0064
649.9294	-0.0043
650.1156	-0.0008
650.3018	-0.0074
650.488	-0.0101
650.6742	-0.0013
650.8604	-0.001
651.0466	0.0048
651.2327	0.0008
651.4188	0.0019
651.6049	-0.0001
651.791	-0.002
651.9771	0.0002
652.1632	-0.0007
652.3492	-0.001
652.5352	-0.0026
652.7212	-0.0013
652.9072	0.0034
653.0932	-0.0006
653.2791	-0.004
653.465	-0.0008
653.651	-0.0024
653.8369	-0.0051
654.0227	-0.0053
654.2086	0.0013
654.3944	-0.0068
654.5803	-0.0039
654.7661	-0.0056
654.9519	-0.0034
655.1377	-0.0026
655.3234	-0
655.5092	-0
655.6949	-0
655.8806	-0
656.0663	-0
656.2519	-0
656.4376	-0.0034
656.6232	-0.0039
656.8088	-0.0042
656.9945	-0.0015
657.18	-0.0047
657.3656	-0.0023
657.5511	-0.0037
657.7367	-0.0029
657.9222	-0.001
658.1077	-0.0034
658.2932	-0.0022
658.4786	-0.0025
658.6641	-0.0039
658.8495	-0.0053
659.0349	-0.0042
659.2203	-0.0075
659.4057	-0.0062
659.591	-0.0055
659.7764	-0.0034
659.9617	-0.01
660.147	-0.0011
660.3323	-0.0056
660.5176	-0.006
660.7028	-0.0073
660.888	0
661.0733	-0.0031
661.2585	-0.0017
661.4436	-0.0021
661.6288	-0.0039
661.8139	0.002
661.9991	-0.001
662.1842	-0.0005
662.3693	-0.0026
662.5544	-0.0022
662.7394	0.0023
662.9245	-0.0011
663.1095	0.0037
663.2945	0.0006
663.4795	-0.0063
663.6644	-0.0058
663.8494	-0.006
664.0343	-0.0062
664.2193	-0.0064
664.4042	-0.0116
664.589	-0.0018
664.7739	-0.0051
664.9587	0.0025
665.1436	-0.0023
665.3284	-0.0031
665.5132	-0.0014
665.698	0.0067
665.8827	-0.0022
666.0675	-0.0034
666.2522	-0.0083
666.4369	-0.007
666.6216	-0.0063
666.8063	-0.0054
666.9909	-0.0094
667.1756	-0.0077
667.3602	-0.01
667.5448	-0.0112
667.7294	-0.0009
667.9139	-0.0045
668.0985	-0.0067
668.283	-0.0066
668.4675	-0.0132
668.652	-0.0085
668.8365	-0.0109
669.0209	-0.0113
669.2054	-0.0028
669.3898	-0.0058
669.5742	-0.0072
669.7586	-0.0112
669.943	-0.0035
670.1273	-0.0104
670.3117	-0.0014
670.496	-0.0035
670.6803	-0.0009
670.8646	-0.0067
671.0488	0.0008
671.2331	-0.0019
671.4173	0.0007
671.6015	-0.0008
671.7857	-0.0063
671.9699	-0.0052
672.1541	-0.0033
672.3382	-0.0032
672.5223	-0.0105
672.7064	-0.0079
672.8905	-0.0147
673.0746	-0.0087
673.2587	-0.0143
673.4427	-0.0137
673.6267	-0.0136
673.8107	-0.0151
673.9947	-0.0119
674.1787	-0.0087
674.3626	-0.0071
674.5465	-0.0049
674.7304	0.0038
674.9143	0.0025
675.0982	-0.0012
675.2821	-0.0031
675.4659	-0.0025
675.6497	-0.0003
675.8335	-0.0056
676.0173	-0.0064
676.2011	-0.006
676.3849	-0.0039
676.5686	-0.0034
676.7523	-0.0022
676.936	-0.0004
677.1197	-0.0034
677.3034	-0.0091
677.487	-0.009
677.6706	-0.0031
677.8542	-0.0034
678.0378	-0.0115
678.2214	-0.0107
678.405	-0.0006
678.5885	-0.0078
678.772	-0.0068
678.9555	-0.0061
679.139	-0.0099
679.3225	-0.0084
679.5059	-0.0076
679.6894	-0.0037
679.8728	0.0002
680.0562	0.002
680.2395	-0.004
680.4229	-0.0005
680.6062	0.0042
680.7896	0.0032
680.9729	-0.0009
681.1562	-0.0006
681.3394	0.0029
681.5227	-0.001
681.7059	-0.0036
681.8891	-0.0052
682.0723	-0.0041
682.2555	-0.0043
682.4387	0.004
682.6218	-0.0072
682.805	-0.0051
682.9881	-0.0068
683.1712	0.0075
683.3542	-0.0005
683.5373	-0.0024
683.7203	-0.0038
683.9034	-0.0028
684.0864	-0.0045
684.2694	-0.0054
684.4523	-0.0073
684.6353	-0.0028
684.8182	-0.0044
685.0011	-0.0022
685.184	-0.0049
685.3669	-0.0053
685.5498	0.0027
685.7326	-0.0024
685.9154	-0.002
686.0982	-0.0056
686.281	-0.0099
686.4638	-0.0012
686.6465	-0.0042
686.8293	-0.005
687.012	-0.0042
687.1947	-0.0028
687.3774	-0.0044
687.56	-0.0081
687.7427	0.0004
687.9253	-0.0021
688.1079	0.0022
688.2905	-0.0025
688.4731	-0.0023
688.6556	-0.0059
688.8382	-0.0007
689.0207	-0.0009
689.2032	0.0018
689.3857	0.0015
689.5681	-0.0003
689.7506	-0.0015
689.933	-0.0011
690.1154	0.0013
690.2978	0.002
690.4802	-0.0002
690.6626	0.0048
690.8449	0.0023
691.0272	0.0024
691.2095	0.0035
691.3918	-0.0016
691.5741	-0.0023
691.7563	-0.0002
691.9386	-0.0041
692.1208	-0.0078
692.303	-0.0016
692.4852	-0.0029
692.6673	0.0022
692.8495	-0.01
693.0316	-0.003
693.2137	-0.0037
693.3958	-0.0048
693.5778	-0.0034
693.7599	-0.0063
693.9419	-0.0065
694.1239	-0.0044
694.3059	-0.0071
694.4879	-0.0055
694.6699	-0.0111
694.8518	-0.0016
695.0337	-0.0062
695.2157	-0.0028
695.3975	-0.0063
695.5794	-0.0085
695.7613	-0.0078
695.9431	-0.0052
696.1249	-0.0071
696.3067	-0.007
696.4885	-0.0001
696.6703	-0.0058
696.852	-0.0076
697.0337	0.0027
697.2154	-0.0048
697.3971	-0.0045
697.5788	-0.0038
697.7605	-0.0062
697.9421	-0.0008
698.1237	-0.0008
698.3053	-0.0058
698.4869	-0.0033
698.6685	-0.0008
698.85	-0.0027
699.0315	-0.0008
699.213	-0.0012
699.3945	-0.0019
699.576	0.0082
699.7575	-0.0021
699.9389	-0.004
700.1203	-0.0054
700.3017	-0.0025
700.4831	-0.0021
700.6645	-0.01
700.8458	-0.001
701.0271	-0.0034
701.2084	-0.0096
701.3897	-0.0013
701.571	-0.0051
701.7523	-0.0002
701.9335	0.0053
702.1147	0.0039
702.2959	-0.0067
702.4771	-0.004
702.6583	-0.0011
702.8394	-0.0012
703.0205	0.0008
703.2016	-0.0044
703.3827	0.0001
703.5638	-0.009
703.7449	-0.0069
703.9259	-0.0048
704.1069	-0.0036
704.2879	-0.0014
704.4689	-0.0078
704.6499	-0.005
704.8308	-0.0034
705.0117	-0.0034
705.1927	-0.0011
705.3735	0.0005
705.5544	-0.0008
705.7353	-0.0028
705.9161	0.0006
706.0969	0.0036
706.2777	-0.003
706.4585	0.0018
706.6393	-0.0009
706.82	-0.0059
707.0007	-0.0059
707.1815	-0.0002
707.3621	-0.0028
707.5428	0.0003
707.7235	0.0028
707.9041	0.0031
708.0847	-0.0023
708.2653	-0.0017
708.4459	-0.0029
708.6265	-0.0049
708.807	0.0009
708.9875	-0.0028
709.168	-0.0061
709.3485	-0.0079
709.529	-0.0044
709.7095	-0.0056
709.8899	-0.0112
710.0703	-0.0005
710.2507	-0.0053
710.4311	0.0003
710.6115	0.0018
710.7918	0.0002
710.9721	-0.0013
711.1524	0.0022
711.3327	0.0017
711.513	-0.0045
711.6932	-0.0069
711.8735	0.0009
712.0537	-0.0004
712.2339	-0.0034
712.4141	-0.0005
712.5942	0.0012
712.7744	0.0012
712.9545	0.0037
713.1346	-0.0013
713.3147	0.0073
713.4947	0.0021
713.6748	0
713.8548	-0.0025
714.0348	-0.0007
714.2148	-0.0032
714.3948	-0.004
714.5748	-0.0088
714.7547	-0.0072
714.9346	-0.0057
715.1145	-0.0072
715.2944	-0.0001
715.4743	-0.0027
715.6541	-0.0036
715.834	0.001
716.0138	0.0006
716.1936	-0.0023
716.3733	-0.0087
716.5531	-0.0082
716.7328	-0.0009
716.9126	-0.0029
717.0923	-0.0045
717.2719	-0.008
717.4516	-0.004
717.6312	-0.0028
717.8109	-0.0011
717.9905	-0.0057
718.1701	0.0013
718.3496	-0.0019
718.5292	-0.0064
718.7087	-0.0065
718.8882	-0.0052
719.0677	-0.0021
719.2472	0.0001
719.4267	-0.0093
719.6061	-0.0064
719.7856	-0.0049
719.965	-0.0101
720.1443	-0.0055
720.3237	-0.0064
720.5031	-0.0123
720.6824	-0.0011
720.8617	-0.0072
721.041	0.0052
721.2203	-0.007
721.3995	-0.0029
721.5788	-0.0064
721.758	-0.0028
721.9372	-0.006
722.1164	-0.0113
722.2956	-0.0096
722.4747	-0.005
722.6538	-0.0062
722.8329	-0.0016
723.012	-0.0064
723.1911	-0.0018
723.3702	-0.0044
723.5492	-0.0085
723.7282	-0.0058
723.9072	-0.0052
724.0862	-0.0037
724.2652	-0.0013
724.4441	-0.0021
724.623	0.0017
724.8019	0.003
724.9808	-0.0015
725.1597	-0.0019
725.3385	0.0074
725.5174	0.0022
725.6962	-0.0077
725.875	0.0027
726.0538	0.0042
726.2325	-0.0024
726.4112	0.002
726.59	-0.0011
726.7687	-0.0035
726.9474	0.0015
727.126	-0.0055
727.3047	-0.0061
727.4833	0.0009
727.6619	-0.0112
727.8405	0.0002
728.0191	0.0025
728.1976	-0.0099
728.3762	-0.0078
728.5547	-0.0064
728.7332	-0.0035
728.9116	-0.0101
729.0901	-0.0126
729.2686	-0.0048
729.447	-0.0009
729.6254	-0.0091
729.8038	-0.0069
729.9821	0.0011
730.1605	-0.0024
730.3388	-0.0008
730.5171	0.0004
730.6954	-0.0011
730.8737	-0.0039
731.0519	-0.0038
731.2302	-0.0007
731.4084	0.0031
731.5866	0.004
731.7648	0.0005
731.9429	0.0083
732.1211	0.003
732.2992	0.0063
732.4773	-0.0046
732.6554	-0.0046
732.8335	0.0002
733.0115	-0.0056
733.1896	-0.0083
733.3676	0.0002
733.5456	-0.0031
733.7235	-0.0039
733.9015	-0.0015
734.0794	-0.0001
734.2574	-0.0087
734.4353	-0.0008
734.6131	-0.0013
734.791	-0.0041
734.9689	-0.0077
735.1467	0.0062
735.3245	-0.0042
735.5023	-0.0037
735.68	-0.0026
735.8578	-0.0034
736.0355	0.0064
736.2132	-0.0022
736.3909	0.0016
736.5686	-0.0037
736.7463	-0.0049
736.9239	-0.0011
737.1015	-0.0005
737.2791	-0.0134
737.4567	-0.006
737.6343	-0.0041
737.8118	-0.0025
737.9894	-0.0013
738.1669	-0.0076
738.3444	-0.0046
738.5218	0.004
738.6993	0.0023
738.8767	0.0005
739.0541	-0.003
739.2315	-0.0026
739.4089	0.0006
739.5863	-0.005
739.7636	-0.0071
739.9409	-0.0018
740.1182	0.0024
740.2955	-0.0031
740.4728	-0.0032
740.65	-0.0038
740.8272	0.0054
741.0044	0.0001
741.1816	0.004
741.3588	0.0075
741.5359	-0.0032
741.7131	-0.0014
741.8902	0.0022
742.0673	0.0028
742.2444	-0.0069
742.4214	-0.0023
742.5985	-0.0066
742.7755	-0.0053
742.9525	-0.0006
743.1295	-0.0006
743.3064	-0.0068
743.4834	0.001
743.6603	-0.0061
743.8372	0.0024
744.0141	-0.0007
744.191	-0.004
744.3678	-0.0068
744.5446	0.0023
744.7215	-0.0039
744.8982	-0.0006
745.075	-0.0007
745.2518	-0.0029
745.4285	-0.0027
745.6052	0.0001
745.7819	-0.0032
745.9586	0.0019
746.1353	-0.0046
746.3119	0.0009
746.4885	-0.0019
746.6651	-0.0032
746.8417	-0.0056
747.0183	-0.0029
747.1948	-0.0081
747.3714	-0.0095
747.5479	-0.0045
747.7244	0.0022
747.9008	-0.0018
748.0773	0.004
748.2537	0.0004
748.4301	0.0047
748.6065	-0.0007
748.7829	0.0037
748.9593	0.0036
749.1356	-0.0037
749.3119	0.0003
749.4882	0.0087
749.6645	-0.0049
749.8408	0.0012
750.017	-0.0037
750.1933	-0.0022
750.3695	-0.0026
750.5457	-0.0077
750.7218	-0.0084
750.898	-0.0057
751.0741	-0.0053
751.2502	-0.0017
751.4263	-0.0033
751.6024	-0.0048
751.7784	0.0046
751.9545	-0.0025
752.1305	0.0018
752.3065	-0.0073
752.4825	0.0022
752.6584	-0.0043
752.8344	-0.0014
753.0103	-0.0055
753.1862	0.0029
753.3621	-0.0039
753.5379	-0.0057
753.7138	-0.0006
753.8896	-0.0092
754.0654	-0.0129
754.2412	-0.0072
754.417	-0.0053
754.5927	-0.005
754.7685	-0.0091
754.9442	-0.0085
755.1199	-0.0084
755.2956	-0.0045
755.4712	-0.0056
755.6469	-0.0123
755.8225	-0.0081
755.9981	-0.0057
756.1736	-0.0059
756.3492	-0.0051
756.5248	-0.005
756.7003	-0.0088
756.8758	-0.007
757.0513	-0.0095
757.2267	-0.0113
757.4022	-0.0057
757.5776	-0.0072
757.753	-0.0161
757.9284	-0.011
758.1038	-0.0098
758.2791	-0.0089
758.4545	-0.0125
758.6298	-0.0029
758.8051	-0.0093
758.9803	-0.0159
759.1556	-0.0079
759.3308	-0.0073
759.506	-0.0057
759.6812	-0.0126
759.8564	-0.0081
760.0316	-0.006
760.2067	-0.0106
760.3819	-0.0062
760.557	-0.0078
760.732	-0.0117
760.9071	-0.0125
761.0821	-0.0128
761.2572	-0.0071
761.4322	-0.0045
761.6072	-0.0131
761.7821	-0.015
761.9571	-0.0173
762.132	-0.0102
762.3069	-0.006
762.4818	-0.0025
762.6567	-0.0115
762.8316	-0.0007
763.0064	0.0028
763.1812	-0.0028
763.356	0.0008
763.5308	0.0032
763.7055	-0.0024
763.8803	-0.0037
764.055	-0.0114
764.2297	0.0014
764.4044	-0.0005
764.579	0.0028
764.7537	-0.0068
764.9283	-0.0035
765.1029	0.0005
765.2775	0.0071
765.4521	0.0067
765.6266	0.0019
765.8011	0.0096
765.9756	-0.0032
766.1501	0.007
766.3246	-0.0029
766.4991	-0.0036
766.6735	-0.0008
766.8479	-0.005
767.0223	0.0016
767.1967	-0.0098
767.371	-0.0058
767.5454	0.0037
767.7197	-0.0032
767.894	-0
768.0683	-0.0025
768.2425	-0.0049
768.4168	-0.0053
768.591	0.002
768.7652	0.0029
768.9394	0.0033
769.1135	0.0061
769.2877	0.0042
769.4618	0.008
769.6359	-0.0023
769.81	-0.0059
769.984	-0.0035
770.1581	0.0029
770.3321	0.0046
770.5061	0.0001
770.6801	-0.0006
770.8541	0.0008
771.028	0.0093
771.202	0.0055
771.3759	-0.0017
771.5498	-0.0017
771.7236	0.0036
771.8975	-0.0011
772.0713	0.002
772.2451	-0.0001
772.4189	0.0047
772.5927	-0.0059
772.7665	-0.0004
772.9402	-0.0037
773.1139	-0.0022
773.2876	-0.0036
773.4613	-0.0049
773.635	-0.002
773.8086	-0.0042
773.9822	-0.0038
774.1558	-0.0054
774.3294	0.0094
774.503	0.0008
774.6765	-0.0102
774.8501	0.0073
775.0236	-0.0147
775.1971	0.0001
775.3705	-0.0024
775.544	-0.008
775.7174	0.0019
775.8908	-0.0025
776.0642	0.0012
776.2376	-0.0087
776.4109	-0.0095
776.5843	0.0029
776.7576	-0.0008
776.9309	-0.0019
777.1041	-0.0009
777.2774	0.0057
777.4506	0.0008
777.6238	0.0039
777.797	-0.0022
777.9702	-0.0043
778.1434	-0.001
778.3165	0.0006
778.4896	-0.0124
778.6627	-0.0014
778.8358	-0.0029
779.0089	-0.0008
779.1819	-0.0021
779.3549	-0.0075
779.5279	0.0019
779.7009	-0.0054
779.8739	-0.0058
780.0468	-0.0043
780.2197	0.0032
780.3926	-0.0081
780.5655	-0.0113
780.7384	-0.0073
780.9112	-0.0032
781.0841	-0
781.2569	-0.0065
781.4297	-0.0045
781.6024	0.0047
781.7752	0.0016
781.9479	-0.001
782.1206	-0.0014
782.2933	-0.0046
782.466	-0.0003
782.6386	-0.0038
782.8113	-0.009
782.9839	-0.0113
783.1565	-0.0088
783.329	-0.0104
783.5016	-0.0026
783.6741	-0.0044
783.8466	-0.0176
784.0191	-0.0056
784.1916	-0.0014
784.3641	0.0004
784.5365	0.0016
784.7089	-0.0022
784.8813	0.0089
785.0537	0.0137
785.2261	0.0065
785.3984	-0.008
785.5707	0.0018
785.743	0.0047
785.9153	-0.0009
786.0876	0.001
786.2598	0.0019
786.432	0.0116
786.6042	0.0014
786.7764	0.0082
786.9486	-0.005
787.1207	-0.0034
787.2928	-0.0001
787.4649	-0.0008
787.637	-0.0079
787.8091	-0.002
787.9811	0.0071
788.1532	-0.0042
788.3252	-0.0041
788.4972	0.0032
788.6691	-0.0022
788.8411	0.0007
789.013	-0.0033
789.1849	0.0031
789.3568	-0.0057
789.5287	-0.0019
789.7005	-0.0053
789.8723	-0.0002
790.0442	0.0002
790.2159	0.0039
790.3877	-0.0065
790.5595	-0.0113
790.7312	0.0022
790.9029	0.0016
791.0746	-0.0124
791.2463	-0.0022
791.4179	0.0022
791.5896	0.0101
791.7612	0
791.9328	0.0008
792.1044	-0.0101
792.2759	0.0007
792.4474	-0.0059
792.619	-0.0043
792.7905	-0.0103
792.9619	0.0013
793.1334	-0.0116
793.3048	-0.0087
793.4762	0.0014
793.6476	-0.0194
793.819	-0.0117
793.9904	-0.0172
794.1617	-0.0154
794.333	-0.0111
794.5043	-0.0054
794.6756	0.0012
794.8469	0.0036
795.0181	-0.0094
795.1893	-0.0123
795.3605	-0.0114
795.5317	-0.0044
795.7029	-0.0067
795.874	-0.0172
796.0452	-0.0103
796.2163	-0.014
796.3873	-0.0117
796.5584	-0.0112
796.7294	-0.0069
796.9005	-0.0133
797.0715	-0.0126
797.2425	-0.0113
797.4134	-0.0189
797.5844	-0.0122
797.7553	-0.0133
797.9262	-0.0142
798.0971	-0.0141
798.2679	-0.0099
798.4388	-0.0074
798.6096	-0.0134
798.7804	-0.0111
798.9512	-0.0164
799.122	-0.0005
799.2927	-0.0075
799.4635	-0.0064
799.6342	-0.0081
799.8049	-0.0091
799.9755	-0.0091
800.1462	-0.0282
800.3168	-0.0055
800.4874	-0.0073
800.658	-0.0059
800.8286	-0.0185
800.9991	-0.0173
801.1696	-0.011
801.3402	-0.0184
801.5106	-0.0158
801.6811	-0.0263
801.8516	-0.0096
802.022	-0.026
802.1924	-0.0288
802.3628	-0.0235
802.5332	-0.0137
802.7035	-0.0143
802.8739	-0.0087
803.0442	-0.0171
803.2145	-0.0146
803.3847	-0.0158
803.555	-0.0123
803.7252	-0.0178
803.8954	-0.0088
804.0656	-0.0003
804.2358	-0.0161
804.4059	-0.013
804.5761	-0.0105
804.7462	-0.0091
804.9163	0.0006
805.0864	-0.017
805.2564	-0.0133
805.4264	-0.0142
805.5965	-0.0133
805.7665	-0.0094
805.9364	-0.0066
806.1064	-0.0094
806.2763	-0.016
806.4462	-0.0095
806.6161	-0.0146
806.786	-0.0143
806.9559	-0.0048
807.1257	-0.0079
807.2955	-0.0102
807.4653	-0.0065
807.6351	-0.0112
807.8048	-0.0041
807.9746	0.0001
808.1443	-0.001
808.314	-0.0064
808.4837	0.0068
808.6533	-0.0011
808.8229	0.0017
808.9926	0.008
809.1622	-0.0142
809.3317	0.0186
809.5013	0.0051
809.6708	0.0033
809.8403	0.0092
810.0098	0.0062
810.1793	-0.0052
810.3488	0.0034
810.5182	-0.008
810.6876	-0.0099
810.857	-0.0165
811.0264	-0.0131
811.1958	0.0031
811.3651	-0.0056
811.5344	-0.003
811.7037	-0.003
811.873	-0.0222
812.0422	-0.0072
812.2115	-0.0021
812.3807	0.01
812.5499	-0.0026
812.7191	-0.0145
812.8882	-0.0022
813.0574	-0.0128
813.2265	0.0193
813.3956	-0.0007
813.5646	-0.0095
813.7337	-0.0003
813.9027	0.0076
814.0718	-0.0081
814.2407	0.0071
814.4097	-0.0019
814.5787	0.0033
814.7476	-0.002
814.9165	0.0023
815.0854	-0.0066
815.2543	0.0137
815.4232	-0.001
815.592	0.001
815.7608	0.003
815.9296	-0.0018
816.0984	0.0008
816.2671	-0.002
816.4359	0.0003
816.6046	0.0095
816.7733	0.0042
816.942	-0.0064
817.1106	-0.0018
817.2793	-0.0012
817.4479	0.0016
817.6165	-0.0025
817.785	-0.011
817.9536	-0.0119
818.1221	-0.0023
818.2906	-0.0102
818.4591	-0.0057
818.6276	0.0008
818.7961	-0.0079
818.9645	-0.0061
819.1329	-0.0023
819.3013	0.002
819.4697	-0.0036
819.638	-0.0153
819.8064	0.0019
819.9747	0.0092
820.143	0.0007
820.3113	-0.0051
820.4795	0.01
820.6477	-0.0079
820.816	-0.0013
820.9842	-0.0143
821.1523	-0.0333
821.3205	0.0018
821.4886	-0.0025
821.6567	-0.0029
821.8248	-0.0216
821.9929	0.0071
822.1609	-0.0031
822.329	-0.0119
822.497	-0.0164
822.665	-0.0149
822.833	-0.0269
823.0009	-0.0109
823.1688	-0.0037
823.3367	0.0032
823.5046	-0.0047
823.6725	-0.0111
823.8404	0.003
824.0082	-0.0108
824.176	0.0079
824.3438	-0.0093
824.5116	-0.0004
824.6793	-0.0046
824.847	0.0065
825.0147	-0.0053
825.1824	-0.0124
825.3501	-0.0049
825.5177	-0.0147
825.6854	-0.0048
825.853	-0.0042
826.0206	-0.0019
826.1881	-0.0032
826.3557	0.0105
826.5232	-0.0055
826.6907	0.0019
826.8582	-0.0032
827.0257	-0.0112
827.1931	0.0113
827.3605	0.0018
827.528	0
827.6953	0.0046
827.8627	-0.0127
828.03	-0.0079
828.1974	-0.01
828.3647	0.0197
828.532	0.0002
828.6992	-0.0003
828.8665	-0.0181
829.0337	-0.0019
829.2009	-0.0163
829.3681	-0.0301
829.5352	-0.0106
829.7024	-0.0018
829.8695	-0.0226
830.0366	-0.0258
830.2037	-0.0108
830.3707	-0.0161
830.5378	-0.0175
830.7048	-0.0099
830.8718	-0.0005
831.0388	0.0036
831.2057	-0.0229
831.3727	-0.0224
831.5396	0.0032
831.7065	-0.005
831.8734	-0.0069
832.0402	-0.0244
832.2071	-0.0006
832.3739	-0.0134
832.5407	-0.0052
832.7075	-0.0161
832.8742	-0.0023
833.041	0.0089
833.2077	-0.0249
833.3744	-0.0107
833.541	0.0045
833.7077	-0.0082
833.8743	0.0018
834.0409	0.0224
834.2075	0.0078
834.3741	0.0009
834.5407	-0.0028
834.7072	0.0136
834.8737	-0.0046
835.0402	-0.0332
835.2067	0.0072
835.3731	-0.0034
835.5395	-0.0059
835.706	-0.0267
835.8723	-0.0056
836.0387	-0.0281
836.2051	-0.0042
836.3714	0.0167
836.5377	0.0029
836.704	0
836.8703	-0.0338
837.0365	-0.0051
837.2027	-0.0149
837.3689	0.0034
837.5351	0.0016
837.7013	-0.02
837.8674	0.0069
838.0335	-0.0085
838.1997	0.008
838.3657	0.0127
838.5318	-0.006
838.6978	-0.0102
838.8639	0.0078
839.0299	-0.0053
839.1958	-0.0036
839.3618	0.0109
839.5277	0.0052
839.6937	0.0057
839.8596	0.0086
840.0254	-0.0112
840.1913	0.012
840.3571	0.013
840.523	-0.009
840.6888	-0.0023
840.8545	0.0041
841.0203	-0.0128
841.186	0.008
841.3517	-0.0306
841.5174	0.0065
841.6831	0.017
841.8488	-0.0118
842.0144	0.0044
842.18	-0.0139
842.3456	0.012
842.5112	0.0146
842.6767	0.002
842.8422	0.0001
843.0077	0.0188
843.1732	-0.0269
843.3387	0.0151
843.5042	0.0151
843.6696	0.015
843.835	-0.0264
844.0004	0.0193
844.1657	0.0151
844.3311	0.022
844.4964	-0.0106
844.6617	-0.0089
844.827	-0.01
844.9923	-0.0003
845.1575	-0.0007
845.3227	-0.019
845.4879	0.0368
845.6531	-0.0046
845.8183	-0.0208
845.9834	-0.0226
846.1485	0.0312
846.3136	-0.0321
846.4787	-0.0159
846.6438	-0.0041
846.8088	0.0078
846.9738	-0.0057
847.1388	0.0105
847.3038	0.0354
847.4687	0.0243
847.6337	0.0232
847.7986	0.0381
847.9635	0.0025
848.1284	-0.0084
848.2932	0.0111
848.458	0.0053
848.6228	-0.0122
848.7876	-0.0719
848.9524	0.0496
849.1172	-0.0322
849.2819	0.035
849.4466	-0.0213
849.6113	0.0214
849.7759	-0.0126
849.9406	-0.0355
850.1052	0.0252
850.2698	0.016
850.4344	0.0202
850.599	0.0058
850.7635	0.0284
850.928	-0.0339
851.0925	0.0237
851.257	0.0047
851.4215	0.0261
851.5859	0.0247
851.7503	0.0014
851.9147	-0.0032
852.0791	0.0307
852.2434	-0.0245
852.4078	0.0258
852.5721	-0.0478
852.7364	-0.0729
852.9007	0.0055
853.0649	0.0049
853.2291	-0.0248
853.3934	-0.0276
853.5575	-0.0134
853.7217	-0.0302
853.8859	-0.0035
854.05	0.0609
854.2141	-0.0292
854.3782	0.042
854.5423	-0.0098
854.7063	0.0174
854.8703	-0.0334
855.0343	0.0058
855.1983	0.0235
855.3623	-0.004
855.5262	0.0312
855.6901	0.0297
855.854	0.0026
856.0179	0.0696
856.1818	0.0142
856.3456	-0.0462
856.5094	0.0139
856.6732	-0.0128
856.837	-0.0063
857.0008	0.0032
857.1645	-0.0336
857.3282	-0.0484
857.4919	-0.0515
857.6556	0.0359
857.8192	0.0877
857.9828	0.0127
858.1465	0.025
858.31	-0.0245
858.4736	-0.1193
858.6372	-0.0066
858.8007	0.0515
858.9642	-0.0518
859.1277	0.0647
859.2911	0.0407
859.4546	0.0049
859.618	0.0227
859.7814	-0.0011
859.9448	-0.1405
860.1081	-0.1121
860.2715	0.0016
860.4348	0.0783
860.5981	0.0087
860.7614	-0.0829
860.9246	-0.0318
861.0879	-0.0844
861.2511	0.0664
861.4143	-0.165
861.5774	-0.0537
861.7406	0.0904
861.9037	-0.1391
862.0668	-0.0148
862.2299	-0.0201
862.393	-0.0079
862.556	0.0032
862.7191	-0.0246
862.8821	-0.006
863.0451	0.0186
863.208	0.0152
863.371	0.0349
863.5339	-0.0097
863.6968	-0.11
863.8597	-0.0065
864.0225	-0.0901
864.1854	-0.0311
864.3482	-0.0749
864.511	-0.0937
864.6737	0.0133
864.8365	0.0696
864.9992	-0.1597
865.1619	-0.022
865.3246	-0.1375
865.4873	0.0186
865.65	-0.0453
865.8126	-0.0291
865.9752	0.009
866.1378	-0.0985
866.3004	-0.0575
866.4629	-0.1787
866.6254	0.0733
866.7879	-0.1361
866.9504	0.0009
867.1129	0.0279
867.2753	-0.0311
867.4377	0.147
867.6001	-0.2697
867.7625	0.0467
867.9249	-0.0759
868.0872	0.0007
868.2495	-0.1507
868.4118	-0.1299
868.5741	-0.2449
868.7363	0.0698
868.8986	0.0565
869.0608	0.0223
869.223	-0.2008
869.3851	-0.0411
869.5473	-0.1934
869.7094	0.1735
869.8715	0.0608
870.0336	-0.0136
870.1957	-0.0286
870.3577	0.0646
870.5197	-0.4951
870.6817	-0.1425
870.8437	-0.1966
871.0057	0.0752
871.1676	0.0177
871.3295	-0.0885
871.4914	-0.014
871.6533	0.1379
871.8151	0.0293
871.977	0.3349
872.1388	0.1461
872.3006	-0.0605
872.4623	0.0857
872.6241	0.0255
872.7858	0.0175
872.9475	-0.2149
873.1092	-0.2363
873.2709	0.0985
873.4325	-0.0417
873.5941	-0.1721
873.7557	0.3416
873.9173	-0.1175
874.0789	-0.1311
874.2404	-0.0483
874.4019	-0.4352
874.5634	-0.2403
874.7249	-0.0958
874.8863	-0.2999
875.0478	0.3477
875.2092	-0.305
875.3706	0.3565
875.5319	0.4966
875.6933	-0.2263
875.8546	0.8891
876.0159	0.0372
876.1772	0.002
876.3385	-0.1853
876.4997	-0.1118
876.6609	0.1276
876.8221	-0.014
876.9833	-0.4835
877.1445	-0.0647
877.3056	0.363
877.4667	-0.9485
877.6278	0.096
877.7889	0.2189
877.9499	-0.5504
878.111	-0.0239
878.272	0.1669
878.433	0.9587
878.5939	-0.0173
878.7549	-0.1946
878.9158	0.5798
879.0767	-0.024
879.2376	0.0956
879.3984	0.0357
879.5593	-0.4369
879.7201	0.485
879.8809	0.007
880.0417	0.3388
880.2024	0.1848
880.3632	0.0585
880.5239	-0
880.6846	-0.487
880.8452	0.3026
881.0059	-0.3364
881.1665	-0
881.3271	-0.3478
881.4877	-0.069
881.6483	-0
881.8088	-0.3453
881.9693	0.1016
882.1298	0.1016
882.2903	0.1016
