Data from MonoPyChalIsomerACN10uM450nmA_Absorbance_13-11-20-292.txt Node
Date: Tue Jul 09 13:11:20 BST 2024
User: LASERRRRR
Spectrometer: FLMT03099
Trigger mode: 0
Integration Time (sec): 2.000000E-1
Scans to average: 1
Electric dark correction enabled: true
Nonlinearity correction enabled: false
Boxcar width: 0
XAxis mode: Wavelengths
Number of Pixels in Spectrum: 3648
>>>>>Begin Spectral Data<<<<<
179.3399	0.1223
179.5586	0.1223
179.7771	0.1223
179.9957	-0.2241
180.2143	-0.394
180.4329	0.1435
180.6514	-0
180.8699	-0
181.0885	0.1021
181.307	-0
181.5255	0.4282
181.744	-0
181.9625	0.6577
182.181	1.3817
182.3994	-0.1015
182.6179	-0.4149
182.8363	-0.3195
183.0547	0.0956
183.2732	0.1852
183.4916	-0.0082
183.71	0.1791
183.9284	-0.0621
184.1467	0.0677
184.3651	0.2355
184.5835	0.1407
184.8018	-0.0351
185.0201	0.1556
185.2385	0.0212
185.4568	-0.1049
185.6751	0.1539
185.8934	-0.0466
186.1117	0.0866
186.3299	-0.0292
186.5482	0.0479
186.7664	-0.0165
186.9847	0.1437
187.2029	0.047
187.4211	-0.037
187.6393	-0.0021
187.8575	0.2907
188.0757	-0.0133
188.2939	-0.0039
188.512	-0.0443
188.7302	-0.027
188.9483	0.1641
189.1665	0.1263
189.3846	0.0819
189.6027	0.2298
189.8208	0.1781
190.0389	0.2544
190.257	0.2568
190.475	0.1067
190.6931	0.1804
190.9111	0.4283
191.1292	0.2543
191.3472	0.2647
191.5652	0.3469
191.7832	0.3361
192.0012	0.4632
192.2192	0.3899
192.4371	0.5157
192.6551	0.4921
192.873	0.4685
193.091	0.4926
193.3089	0.6213
193.5268	0.5167
193.7447	0.4893
193.9626	0.4676
194.1805	0.5133
194.3984	0.6701
194.6162	0.5905
194.8341	0.5692
195.0519	0.5261
195.2697	0.65
195.4875	0.6649
195.7054	0.6344
195.9231	0.7031
196.1409	0.5877
196.3587	0.5759
196.5765	0.6281
196.7942	0.7564
197.012	0.6939
197.2297	0.6886
197.4474	0.7837
197.6651	0.6468
197.8828	0.7974
198.1005	0.8694
198.3182	0.793
198.5358	0.7628
198.7535	0.7386
198.9711	0.8087
199.1888	0.7449
199.4064	0.8518
199.624	0.7656
199.8416	0.7706
200.0592	0.8379
200.2767	0.818
200.4943	0.7597
200.7119	0.787
200.9294	0.8369
201.1469	0.7776
201.3645	0.8632
201.582	0.9063
201.7995	0.7745
202.017	0.9696
202.2344	0.8806
202.4519	0.9247
202.6694	0.8127
202.8868	0.9839
203.1042	0.9966
203.3217	1.1337
203.5391	0.9318
203.7565	0.8504
203.9739	0.8536
204.1913	0.8173
204.4086	0.9773
204.626	1.0061
204.8433	0.943
205.0607	0.9645
205.278	0.9406
205.4953	1.0979
205.7126	0.8514
205.9299	0.9724
206.1472	0.973
206.3644	0.9025
206.5817	1.0596
206.7989	1.1087
207.0162	1.0698
207.2334	1.0193
207.4506	0.9818
207.6678	0.9843
207.885	1.0957
208.1022	1.0731
208.3194	1.1065
208.5365	1.0804
208.7537	1.07
208.9708	1.08
209.1879	1.0132
209.405	1.1096
209.6222	1.0509
209.8392	1.1853
210.0563	1.0488
210.2734	1.0379
210.4905	1.1379
210.7075	0.9601
210.9245	1.0302
211.1416	1.1169
211.3586	1.0924
211.5756	1.1185
211.7926	1.1007
212.0096	1.0097
212.2265	1.0692
212.4435	1.1654
212.6604	1.0815
212.8774	1.0499
213.0943	1.078
213.3112	1.0524
213.5281	0.9846
213.745	1.0118
213.9619	0.9291
214.1788	1.0251
214.3956	0.8859
214.6125	0.9693
214.8293	0.9472
215.0461	0.9209
215.2629	0.8703
215.4798	0.8117
215.6965	0.8821
215.9133	0.8539
216.1301	0.837
216.3469	0.8033
216.5636	0.8036
216.7803	0.7464
216.9971	0.7542
217.2138	0.727
217.4305	0.7039
217.6472	0.6732
217.8639	0.662
218.0805	0.6109
218.2972	0.5789
218.5138	0.5286
218.7305	0.5114
218.9471	0.4729
219.1637	0.4691
219.3803	0.4316
219.5969	0.384
219.8135	0.3896
220.0301	0.3705
220.2466	0.368
220.4632	0.3416
220.6797	0.3122
220.8962	0.3116
221.1127	0.3016
221.3292	0.2958
221.5457	0.2928
221.7622	0.2899
221.9787	0.2903
222.1951	0.3002
222.4116	0.2707
222.628	0.2849
222.8444	0.2561
223.0608	0.2713
223.2772	0.2681
223.4936	0.2671
223.71	0.2698
223.9264	0.2723
224.1427	0.2668
224.3591	0.2808
224.5754	0.2741
224.7917	0.2836
225.008	0.2785
225.2243	0.2741
225.4406	0.2851
225.6569	0.279
225.8732	0.2983
226.0894	0.2835
226.3057	0.281
226.5219	0.288
226.7381	0.2888
226.9543	0.2776
227.1705	0.2992
227.3867	0.3075
227.6029	0.2861
227.8191	0.3091
228.0352	0.3059
228.2513	0.3163
228.4675	0.3059
228.6836	0.3111
228.8997	0.3205
229.1158	0.317
229.3319	0.3131
229.548	0.3265
229.764	0.3303
229.9801	0.3264
230.1961	0.3389
230.4121	0.3336
230.6282	0.3439
230.8442	0.3532
231.0602	0.3351
231.2761	0.343
231.4921	0.3642
231.7081	0.366
231.924	0.3613
232.14	0.3697
232.3559	0.3681
232.5718	0.3598
232.7877	0.3571
233.0036	0.3641
233.2195	0.3696
233.4353	0.3719
233.6512	0.368
233.867	0.3716
234.0829	0.3782
234.2987	0.3802
234.5145	0.3779
234.7303	0.3859
234.9461	0.396
235.1619	0.3863
235.3776	0.3827
235.5934	0.3956
235.8091	0.3915
236.0249	0.3888
236.2406	0.3941
236.4563	0.38
236.672	0.3993
236.8877	0.4036
237.1034	0.3915
237.319	0.4109
237.5347	0.4151
237.7503	0.4026
237.966	0.4175
238.1816	0.4122
238.3972	0.4228
238.6128	0.4169
238.8284	0.4089
239.0439	0.4147
239.2595	0.4337
239.475	0.4155
239.6906	0.4254
239.9061	0.4089
240.1216	0.4184
240.3371	0.4307
240.5526	0.4168
240.7681	0.4129
240.9836	0.4143
241.199	0.4073
241.4145	0.3952
241.6299	0.4052
241.8453	0.4091
242.0607	0.3826
242.2761	0.3917
242.4915	0.388
242.7069	0.3939
242.9223	0.3665
243.1376	0.3707
243.353	0.3492
243.5683	0.3648
243.7836	0.3557
243.9989	0.3361
244.2142	0.3301
244.4295	0.3338
244.6448	0.3216
244.86	0.3076
245.0753	0.3034
245.2905	0.2923
245.5057	0.3019
245.721	0.2974
245.9362	0.2866
246.1514	0.289
246.3665	0.2881
246.5817	0.2678
246.7969	0.2744
247.012	0.263
247.2271	0.2609
247.4423	0.2632
247.6574	0.2602
247.8725	0.2538
248.0876	0.2477
248.3026	0.2481
248.5177	0.2432
248.7328	0.236
248.9478	0.2336
249.1628	0.2362
249.3779	0.231
249.5929	0.2229
249.8079	0.2338
250.0228	0.2223
250.2378	0.2289
250.4528	0.2183
250.6677	0.2196
250.8827	0.2086
251.0976	0.2192
251.3125	0.2095
251.5274	0.2062
251.7423	0.2066
251.9572	0.2086
252.172	0.2097
252.3869	0.2025
252.6017	0.2082
252.8166	0.2086
253.0314	0.2075
253.2462	0.2141
253.461	0.2017
253.6758	0.1971
253.8906	0.1998
254.1053	0.204
254.3201	0.2113
254.5348	0.2057
254.7496	0.2049
254.9643	0.1991
255.179	0.1997
255.3937	0.206
255.6083	0.1995
255.823	0.2006
256.0377	0.1944
256.2523	0.1921
256.467	0.1966
256.6816	0.1857
256.8962	0.201
257.1108	0.1978
257.3254	0.1903
257.54	0.1969
257.7545	0.1947
257.9691	0.1969
258.1836	0.1987
258.3981	0.1947
258.6127	0.1882
258.8272	0.1939
259.0417	0.1946
259.2561	0.2043
259.4706	0.1885
259.6851	0.1994
259.8995	0.1847
260.114	0.191
260.3284	0.1958
260.5428	0.19
260.7572	0.2021
260.9716	0.1927
261.186	0.2022
261.4003	0.2038
261.6147	0.1974
261.829	0.2026
262.0433	0.194
262.2577	0.1966
262.472	0.2001
262.6863	0.1851
262.9005	0.1966
263.1148	0.1923
263.3291	0.1896
263.5433	0.1815
263.7576	0.192
263.9718	0.1935
264.186	0.1904
264.4002	0.1832
264.6144	0.1873
264.8286	0.1818
265.0427	0.1853
265.2569	0.1857
265.471	0.1825
265.6851	0.1772
265.8993	0.1708
266.1134	0.1764
266.3275	0.1776
266.5415	0.1719
266.7556	0.177
266.9697	0.1768
267.1837	0.1753
267.3978	0.1872
267.6118	0.1891
267.8258	0.1878
268.0398	0.2035
268.2538	0.1908
268.4677	0.1916
268.6817	0.1949
268.8957	0.1939
269.1096	0.1808
269.3235	0.179
269.5374	0.1733
269.7514	0.1699
269.9652	0.1703
270.1791	0.1546
270.393	0.1597
270.6068	0.1492
270.8207	0.1505
271.0345	0.1531
271.2483	0.1506
271.4622	0.1537
271.676	0.1454
271.8897	0.1449
272.1035	0.1375
272.3173	0.1431
272.531	0.1407
272.7448	0.1403
272.9585	0.1403
273.1722	0.1345
273.3859	0.1311
273.5996	0.1319
273.8133	0.1458
274.0269	0.1431
274.2406	0.1402
274.4542	0.1405
274.6679	0.1375
274.8815	0.1453
275.0951	0.1396
275.3087	0.1365
275.5223	0.1314
275.7358	0.1391
275.9494	0.1516
276.1629	0.1416
276.3765	0.1394
276.59	0.1366
276.8035	0.1475
277.017	0.1435
277.2305	0.1436
277.444	0.1371
277.6574	0.1436
277.8709	0.1497
278.0843	0.1424
278.2978	0.1433
278.5112	0.1465
278.7246	0.1414
278.938	0.1459
279.1513	0.1471
279.3647	0.1509
279.5781	0.1418
279.7914	0.1495
280.0047	0.14
280.2181	0.1437
280.4314	0.1458
280.6447	0.1498
280.8579	0.1533
281.0712	0.1498
281.2845	0.1463
281.4977	0.1474
281.711	0.1531
281.9242	0.1521
282.1374	0.1511
282.3506	0.1438
282.5638	0.1492
282.7769	0.1587
282.9901	0.1531
283.2033	0.1592
283.4164	0.158
283.6295	0.1553
283.8426	0.1584
284.0557	0.1491
284.2688	0.1497
284.4819	0.1493
284.695	0.1552
284.908	0.1537
285.1211	0.1578
285.3341	0.1537
285.5471	0.158
285.7601	0.1503
285.9731	0.1651
286.1861	0.1693
286.3991	0.1593
286.612	0.1581
286.825	0.1588
287.0379	0.1656
287.2508	0.1517
287.4637	0.1614
287.6766	0.1531
287.8895	0.1601
288.1024	0.1587
288.3152	0.1581
288.5281	0.1665
288.7409	0.1581
288.9538	0.168
289.1666	0.1602
289.3794	0.159
289.5922	0.1641
289.8049	0.1562
290.0177	0.1674
290.2304	0.1595
290.4432	0.1574
290.6559	0.165
290.8686	0.1633
291.0813	0.1599
291.294	0.1601
291.5067	0.1563
291.7194	0.1576
291.932	0.1587
292.1447	0.161
292.3573	0.1618
292.5699	0.1667
292.7825	0.1686
292.9951	0.1662
293.2077	0.1569
293.4203	0.1555
293.6328	0.1705
293.8454	0.1586
294.0579	0.1681
294.2704	0.1641
294.4829	0.169
294.6954	0.1599
294.9079	0.1646
295.1204	0.1683
295.3328	0.157
295.5453	0.1599
295.7577	0.1576
295.9701	0.1551
296.1825	0.1581
296.3949	0.1606
296.6073	0.1691
296.8197	0.1597
297.0321	0.161
297.2444	0.1543
297.4567	0.1582
297.6691	0.1662
297.8814	0.1549
298.0937	0.159
298.306	0.1639
298.5182	0.1558
298.7305	0.1621
298.9428	0.161
299.155	0.1605
299.3672	0.1604
299.5794	0.1603
299.7916	0.1646
300.0038	0.161
300.216	0.1619
300.4282	0.1508
300.6403	0.1554
300.8525	0.1535
301.0646	0.1584
301.2767	0.1604
301.4888	0.1491
301.7009	0.164
301.913	0.1681
302.125	0.157
302.3371	0.1615
302.5491	0.1539
302.7612	0.1641
302.9732	0.1627
303.1852	0.1531
303.3972	0.1552
303.6092	0.1564
303.8211	0.1605
304.0331	0.1495
304.245	0.1513
304.457	0.1543
304.6689	0.1638
304.8808	0.1539
305.0927	0.1534
305.3046	0.1486
305.5164	0.1576
305.7283	0.1496
305.9401	0.1494
306.152	0.15
306.3638	0.1558
306.5756	0.1472
306.7874	0.1372
306.9992	0.1433
307.2109	0.1385
307.4227	0.1378
307.6344	0.1346
307.8462	0.1363
308.0579	0.1387
308.2696	0.1316
308.4813	0.1362
308.693	0.1335
308.9046	0.1253
309.1163	0.1205
309.328	0.1291
309.5396	0.1218
309.7512	0.1278
309.9628	0.1199
310.1744	0.1152
310.386	0.1044
310.5976	0.1152
310.8091	0.1122
311.0207	0.1124
311.2322	0.1133
311.4437	0.122
311.6552	0.1155
311.8667	0.1086
312.0782	0.1099
312.2897	0.1008
312.5012	0.1095
312.7126	0.097
312.924	0.1042
313.1355	0.1005
313.3469	0.0988
313.5583	0.1089
313.7696	0.0993
313.981	0.0927
314.1924	0.097
314.4037	0.1038
314.6151	0.096
314.8264	0.0979
315.0377	0.1028
315.249	0.1059
315.4603	0.0976
315.6716	0.0945
315.8828	0.1045
316.0941	0.0872
316.3053	0.0926
316.5165	0.0925
316.7277	0.0911
316.9389	0.1025
317.1501	0.0926
317.3613	0.0913
317.5724	0.0968
317.7836	0.0871
317.9947	0.0899
318.2058	0.0928
318.417	0.0949
318.6281	0.0966
318.8391	0.0888
319.0502	0.0858
319.2613	0.0986
319.4723	0.0931
319.6834	0.088
319.8944	0.0986
320.1054	0.0985
320.3164	0.0929
320.5274	0.0981
320.7383	0.0905
320.9493	0.0954
321.1602	0.0961
321.3712	0.0994
321.5821	0.1015
321.793	0.086
322.0039	0.0883
322.2148	0.0952
322.4257	0.0916
322.6365	0.0915
322.8474	0.1012
323.0582	0.0919
323.269	0.0913
323.4798	0.0972
323.6906	0.0968
323.9014	0.0914
324.1122	0.0967
324.3229	0.0995
324.5337	0.0893
324.7444	0.0963
324.9551	0.0966
325.1658	0.0911
325.3765	0.0938
325.5872	0.0954
325.7979	0.1023
326.0085	0.1044
326.2192	0.0993
326.4298	0.1067
326.6404	0.0996
326.851	0.086
327.0616	0.0982
327.2722	0.1048
327.4828	0.1044
327.6933	0.1017
327.9039	0.1053
328.1144	0.0999
328.3249	0.1016
328.5354	0.0981
328.7459	0.0967
328.9564	0.0953
329.1669	0.1002
329.3773	0.1052
329.5878	0.1051
329.7982	0.1012
330.0086	0.1031
330.219	0.1115
330.4294	0.0936
330.6398	0.1066
330.8502	0.099
331.0605	0.1051
331.2708	0.1105
331.4812	0.0977
331.6915	0.0987
331.9018	0.0952
332.1121	0.1078
332.3224	0.1026
332.5326	0.0895
332.7429	0.116
332.9531	0.1044
333.1633	0.1052
333.3735	0.107
333.5837	0.1018
333.7939	0.1038
334.0041	0.1044
334.2143	0.1012
334.4244	0.1023
334.6346	0.0972
334.8447	0.11
335.0548	0.1015
335.2649	0.1005
335.475	0.1065
335.685	0.1028
335.8951	0.1103
336.1051	0.0981
336.3152	0.1075
336.5252	0.1025
336.7352	0.1062
336.9452	0.1073
337.1552	0.1107
337.3652	0.109
337.5751	0.1087
337.7851	0.1032
337.995	0.1093
338.2049	0.1068
338.4148	0.1067
338.6247	0.1108
338.8346	0.1069
339.0445	0.1102
339.2543	0.1111
339.4642	0.1068
339.674	0.1114
339.8838	0.102
340.0936	0.1142
340.3034	0.1143
340.5132	0.1074
340.7229	0.1179
340.9327	0.1114
341.1424	0.1147
341.3522	0.1055
341.5619	0.1196
341.7716	0.1189
341.9813	0.1106
342.1909	0.1225
342.4006	0.1137
342.6102	0.114
342.8199	0.1177
343.0295	0.1172
343.2391	0.1152
343.4487	0.1189
343.6583	0.1195
343.8679	0.1172
344.0774	0.1258
344.287	0.1315
344.4965	0.1129
344.706	0.1247
344.9155	0.1278
345.125	0.1372
345.3345	0.1316
345.544	0.1169
345.7534	0.1228
345.9629	0.1276
346.1723	0.1318
346.3817	0.1349
346.5911	0.129
346.8005	0.1255
347.0099	0.119
347.2193	0.1324
347.4286	0.1384
347.638	0.1407
347.8473	0.1278
348.0566	0.1312
348.2659	0.1204
348.4752	0.1325
348.6845	0.1327
348.8937	0.1374
349.103	0.1336
349.3122	0.135
349.5214	0.1401
349.7306	0.1259
349.9398	0.1228
350.149	0.1297
350.3582	0.1261
350.5674	0.14
350.7765	0.1319
350.9856	0.1392
351.1948	0.1416
351.4039	0.1403
351.613	0.1283
351.822	0.1409
352.0311	0.1315
352.2402	0.1366
352.4492	0.1438
352.6582	0.1433
352.8672	0.146
353.0762	0.1499
353.2852	0.1521
353.4942	0.1488
353.7032	0.1484
353.9121	0.1504
354.1211	0.1518
354.33	0.1442
354.5389	0.1482
354.7478	0.1485
354.9567	0.1508
355.1655	0.1465
355.3744	0.1573
355.5833	0.1406
355.7921	0.1456
356.0009	0.1443
356.2097	0.1522
356.4185	0.1548
356.6273	0.1657
356.8361	0.1492
357.0448	0.1631
357.2536	0.1494
357.4623	0.1498
357.671	0.1575
357.8797	0.1684
358.0884	0.1659
358.2971	0.1615
358.5057	0.1736
358.7144	0.1659
358.923	0.1693
359.1316	0.1681
359.3402	0.1679
359.5488	0.1634
359.7574	0.1701
359.966	0.176
360.1746	0.1703
360.3831	0.1795
360.5916	0.1754
360.8002	0.1791
361.0087	0.181
361.2172	0.1757
361.4256	0.1719
361.6341	0.1771
361.8426	0.185
362.051	0.1662
362.2594	0.1834
362.4678	0.179
362.6762	0.191
362.8846	0.1804
363.093	0.181
363.3014	0.1795
363.5097	0.1852
363.718	0.1957
363.9264	0.1923
364.1347	0.197
364.343	0.1841
364.5513	0.1881
364.7595	0.1923
364.9678	0.1951
365.176	0.1951
365.3842	0.1846
365.5925	0.1887
365.8007	0.2006
366.0089	0.197
366.217	0.205
366.4252	0.2029
366.6333	0.2023
366.8415	0.195
367.0496	0.2059
367.2577	0.211
367.4658	0.204
367.6739	0.2109
367.882	0.2064
368.09	0.2025
368.2981	0.2038
368.5061	0.2037
368.7141	0.214
368.9221	0.2002
369.1301	0.2211
369.3381	0.2109
369.5461	0.2133
369.754	0.2117
369.962	0.2037
370.1699	0.213
370.3778	0.2092
370.5857	0.2166
370.7936	0.2087
371.0015	0.2131
371.2093	0.2227
371.4172	0.2195
371.625	0.2241
371.8328	0.2239
372.0406	0.227
372.2484	0.2223
372.4562	0.2298
372.664	0.2242
372.8717	0.2204
373.0795	0.2161
373.2872	0.2248
373.4949	0.2198
373.7026	0.2339
373.9103	0.2233
374.118	0.2148
374.3256	0.2217
374.5333	0.2207
374.7409	0.2318
374.9485	0.227
375.1561	0.2334
375.3637	0.2288
375.5713	0.2291
375.7789	0.2311
375.9864	0.2334
376.194	0.24
376.4015	0.2326
376.609	0.2309
376.8165	0.2347
377.024	0.2265
377.2315	0.235
377.4389	0.2359
377.6464	0.2312
377.8538	0.2321
378.0612	0.2343
378.2686	0.2383
378.476	0.2357
378.6834	0.242
378.8908	0.2564
379.0981	0.2506
379.3055	0.252
379.5128	0.235
379.7201	0.241
379.9274	0.2389
380.1347	0.2526
380.342	0.2491
380.5492	0.2573
380.7565	0.2596
380.9637	0.2536
381.1709	0.2481
381.3781	0.2334
381.5853	0.2466
381.7925	0.2456
381.9997	0.2562
382.2068	0.2497
382.4139	0.26
382.6211	0.2526
382.8282	0.2457
383.0353	0.2515
383.2424	0.2543
383.4494	0.262
383.6565	0.2421
383.8635	0.2622
384.0706	0.2469
384.2776	0.253
384.4846	0.2591
384.6916	0.2663
384.8986	0.2537
385.1055	0.2593
385.3125	0.2594
385.5194	0.2633
385.7263	0.2595
385.9333	0.2579
386.1402	0.2637
386.347	0.2635
386.5539	0.2559
386.7608	0.2648
386.9676	0.2619
387.1744	0.2533
387.3813	0.2538
387.5881	0.2506
387.7948	0.2587
388.0016	0.2537
388.2084	0.2611
388.4151	0.25
388.6219	0.2565
388.8286	0.2568
389.0353	0.2419
389.242	0.256
389.4487	0.238
389.6553	0.2484
389.862	0.2415
390.0686	0.2419
390.2753	0.247
390.4819	0.2405
390.6885	0.2399
390.8951	0.2548
391.1016	0.2512
391.3082	0.2511
391.5147	0.241
391.7213	0.2513
391.9278	0.2208
392.1343	0.2523
392.3408	0.2384
392.5473	0.2407
392.7537	0.2366
392.9602	0.235
393.1666	0.2312
393.373	0.2368
393.5794	0.2351
393.7858	0.2345
393.9922	0.2259
394.1986	0.2182
394.4049	0.2352
394.6113	0.2293
394.8176	0.2194
395.0239	0.2214
395.2302	0.2248
395.4365	0.2246
395.6428	0.2163
395.8491	0.2167
396.0553	0.2271
396.2615	0.2245
396.4678	0.225
396.674	0.2185
396.8802	0.2176
397.0863	0.2245
397.2925	0.2338
397.4987	0.2078
397.7048	0.2233
397.9109	0.2297
398.117	0.223
398.3231	0.2323
398.5292	0.2163
398.7353	0.2126
398.9413	0.2132
399.1474	0.2203
399.3534	0.2185
399.5594	0.216
399.7654	0.2162
399.9714	0.2111
400.1774	0.2192
400.3833	0.2194
400.5893	0.2159
400.7952	0.212
401.0011	0.2108
401.207	0.2046
401.4129	0.208
401.6188	0.2
401.8247	0.2148
402.0305	0.2108
402.2364	0.219
402.4422	0.2122
402.648	0.2179
402.8538	0.2157
403.0596	0.2079
403.2654	0.1946
403.4711	0.2023
403.6768	0.2188
403.8826	0.2107
404.0883	0.2189
404.294	0.2192
404.4997	0.1984
404.7054	0.213
404.911	0.2123
405.1167	0.2091
405.3223	0.2158
405.5279	0.2122
405.7335	0.2119
405.9391	0.2165
406.1447	0.21
406.3502	0.2103
406.5558	0.202
406.7613	0.2029
406.9668	0.2173
407.1724	0.2179
407.3778	0.2139
407.5833	0.2035
407.7888	0.2313
407.9942	0.2123
408.1997	0.2136
408.4051	0.2158
408.6105	0.2188
408.8159	0.2209
409.0213	0.2075
409.2267	0.2109
409.432	0.2141
409.6374	0.2212
409.8427	0.2271
410.048	0.208
410.2533	0.2109
410.4586	0.2169
410.6639	0.2032
410.8691	0.2107
411.0744	0.2096
411.2796	0.2157
411.4848	0.2032
411.69	0.2182
411.8952	0.2093
412.1004	0.2066
412.3056	0.2255
412.5107	0.2167
412.7158	0.2056
412.921	0.2096
413.1261	0.2066
413.3312	0.2073
413.5362	0.2093
413.7413	0.2143
413.9464	0.21
414.1514	0.1978
414.3564	0.2117
414.5614	0.2189
414.7664	0.2055
414.9714	0.1987
415.1764	0.2031
415.3813	0.2117
415.5863	0.2101
415.7912	0.2074
415.9961	0.2062
416.201	0.2182
416.4059	0.2172
416.6108	0.2064
416.8156	0.2037
417.0205	0.2101
417.2253	0.2024
417.4301	0.2096
417.6349	0.2051
417.8397	0.1875
418.0445	0.1988
418.2492	0.2123
418.454	0.2001
418.6587	0.2105
418.8634	0.1967
419.0681	0.2036
419.2728	0.1994
419.4775	0.1992
419.6822	0.2009
419.8868	0.1925
420.0915	0.2008
420.2961	0.2104
420.5007	0.1872
420.7053	0.1972
420.9099	0.1853
421.1144	0.1962
421.319	0.2003
421.5235	0.1979
421.728	0.1856
421.9325	0.1919
422.137	0.1777
422.3415	0.1977
422.546	0.1863
422.7504	0.188
422.9549	0.1812
423.1593	0.1981
423.3637	0.1926
423.5681	0.2039
423.7725	0.1779
423.9769	0.1725
424.1812	0.1769
424.3856	0.1953
424.5899	0.1895
424.7942	0.1713
424.9985	0.185
425.2028	0.1679
425.4071	0.1703
425.6113	0.1752
425.8156	0.1698
426.0198	0.1755
426.224	0.1569
426.4282	0.172
426.6324	0.1587
426.8366	0.1754
427.0407	0.1592
427.2449	0.1739
427.449	0.162
427.6531	0.1597
427.8572	0.1553
428.0613	0.1695
428.2654	0.1572
428.4694	0.1675
428.6735	0.171
428.8775	0.1541
429.0815	0.161
429.2855	0.1687
429.4895	0.1496
429.6935	0.143
429.8975	0.1514
430.1014	0.1446
430.3053	0.1362
430.5093	0.1475
430.7132	0.1469
430.9171	0.1387
431.1209	0.155
431.3248	0.1458
431.5286	0.1426
431.7325	0.1433
431.9363	0.1378
432.1401	0.1329
432.3439	0.1278
432.5477	0.1346
432.7514	0.1282
432.9552	0.1291
433.1589	0.1326
433.3627	0.1241
433.5664	0.1216
433.7701	0.1202
433.9737	0.1121
434.1774	0.1238
434.3811	0.1132
434.5847	0.1268
434.7883	0.1027
434.9919	0.1132
435.1955	0.1027
435.3991	0.0996
435.6027	0.1076
435.8062	0.1079
436.0098	0.1103
436.2133	0.1078
436.4168	0.1013
436.6203	0.1084
436.8238	0.0921
437.0272	0.097
437.2307	0.0947
437.4341	0.0996
437.6375	0.0974
437.841	0.0876
438.0443	0.0891
438.2477	0.0856
438.4511	0.1002
438.6545	0.0905
438.8578	0.0866
439.0611	0.0798
439.2644	0.0911
439.4677	0.089
439.671	0.0776
439.8743	0.0877
440.0775	0.0668
440.2808	0.0647
440.484	0.0785
440.6872	0.0699
440.8904	0.0708
441.0936	0.0745
441.2967	0.0728
441.4999	0.0712
441.703	0.057
441.9062	0.0712
442.1093	0.0611
442.3124	0.0638
442.5155	0.0592
442.7185	0.0496
442.9216	0.0616
443.1246	0.0547
443.3276	0.0569
443.5307	0.0435
443.7337	0.0569
443.9366	0.0571
444.1396	0.0496
444.3426	0.0494
444.5455	0.049
444.7484	0.0482
444.9513	0.0418
445.1542	0.0511
445.3571	0.0462
445.56	0.0449
445.7628	0.0417
445.9657	0.0533
446.1685	0.0458
446.3713	0.0418
446.5741	0.0411
446.7769	0.0358
446.9797	0.0324
447.1824	0.0423
447.3852	0.038
447.5879	0.0393
447.7906	0.0492
447.9933	0.0347
448.196	0.04
448.3986	0.0392
448.6013	0.0274
448.8039	0.0301
449.0066	0.0364
449.2092	0.033
449.4118	0.0251
449.6143	0.0211
449.8169	0.0201
450.0195	0.019
450.222	0.0109
450.4245	0.0231
450.627	0.0236
450.8295	0.0216
451.032	0.0279
451.2345	0.0227
451.4369	0.0214
451.6394	0.0146
451.8418	0.0247
452.0442	0.0104
452.2466	0.0214
452.449	0.0228
452.6513	0.0196
452.8537	0.0183
453.056	0.0073
453.2583	0.0207
453.4607	0.023
453.663	0.0197
453.8652	0.0099
454.0675	0.0152
454.2697	0.0136
454.472	0.019
454.6742	0.0161
454.8764	0.0182
455.0786	0.0287
455.2808	0.0115
455.4829	0.0113
455.6851	0.0033
455.8872	0.011
456.0893	0.0104
456.2915	0.0037
456.4935	0.0056
456.6956	0.018
456.8977	0.0133
457.0997	0.0064
457.3018	0.013
457.5038	0.0186
457.7058	-0.0023
457.9078	0.0072
458.1098	0.0112
458.3117	0.0125
458.5137	0.0167
458.7156	0.0149
458.9175	-0.007
459.1194	0.0046
459.3213	0.0031
459.5232	0.0005
459.725	-0.0018
459.9269	0.0045
460.1287	0.0072
460.3305	-0.0007
460.5323	0.0096
460.7341	0.0009
460.9359	-0.0002
461.1376	0.0002
461.3394	0.0017
461.5411	0.0024
461.7428	0.003
461.9445	0.0017
462.1462	-0.0028
462.3479	-0.0039
462.5495	0.0061
462.7512	0.0024
462.9528	-0.007
463.1544	0.0065
463.356	0.001
463.5576	-0.0071
463.7592	-0.0025
463.9607	0.0056
464.1623	-0.0011
464.3638	0.0041
464.5653	0.009
464.7668	-0.0029
464.9683	0.0028
465.1697	0.007
465.3712	0.0079
465.5726	-0.0059
465.7741	-0.0072
465.9755	-0.005
466.1769	-0.015
466.3782	-0.0064
466.5796	-0.0036
466.7809	0.0022
466.9823	-0.0027
467.1836	-0.0086
467.3849	0.0127
467.5862	-0.0055
467.7875	-0.0071
467.9887	-0.0006
468.19	-0.001
468.3912	0.0019
468.5924	0.0042
468.7936	-0.0046
468.9948	0.0056
469.196	-0.0075
469.3972	0.0059
469.5983	0.0145
469.7994	-0.0002
470.0006	-0.0135
470.2017	-0.0042
470.4027	0.0064
470.6038	-0.0017
470.8049	-0.0056
471.0059	-0.0066
471.2069	0.0039
471.408	-0.0004
471.6089	-0.0114
471.8099	-0.0049
472.0109	-0.014
472.2119	-0.0145
472.4128	0.002
472.6137	-0.0084
472.8146	-0.0074
473.0155	-0.0018
473.2164	-0.0163
473.4173	0.0028
473.6181	-0.0018
473.819	-0.0044
474.0198	-0.0104
474.2206	-0.0091
474.4214	-0.0063
474.6222	-0.0138
474.8229	-0.0073
475.0237	0.0061
475.2244	0.0006
475.4251	-0.0021
475.6258	0.008
475.8265	-0.0047
476.0272	-0.0021
476.2278	-0.0032
476.4285	-0.0025
476.6291	-0.0041
476.8297	-0.0152
477.0303	-0.0109
477.2309	-0.004
477.4315	-0.0005
477.632	-0.011
477.8326	-0.0036
478.0331	-0.0095
478.2336	-0.0045
478.4341	-0.0091
478.6346	0.0029
478.8351	-0.0057
479.0355	-0.0092
479.236	-0.0072
479.4364	-0.0076
479.6368	0.0054
479.8372	-0.0081
480.0376	0.0011
480.2379	-0.0044
480.4383	0.0018
480.6386	-0.0134
480.8389	-0.0117
481.0392	-0.0096
481.2395	-0.0112
481.4398	0.0034
481.6401	-0.0144
481.8403	-0.0045
482.0405	-0.0136
482.2408	0.006
482.441	-0.0033
482.6411	0.0041
482.8413	-0.0123
483.0415	-0.0084
483.2416	-0.0015
483.4417	-0.0086
483.6419	-0.0007
483.8419	-0.0114
484.042	-0.0013
484.2421	-0.0098
484.4422	-0.0065
484.6422	-0.0108
484.8422	-0.0025
485.0422	-0.0103
485.2422	-0.0089
485.4422	-0.0027
485.6422	-0.0058
485.8421	-0.008
486.042	-0.0061
486.242	-0.0074
486.4419	-0.0069
486.6417	-0.011
486.8416	-0.0047
487.0415	-0.0067
487.2413	-0.0003
487.4411	-0.006
487.641	-0.0091
487.8408	-0.0099
488.0405	-0.0061
488.2403	-0.0116
488.4401	-0.009
488.6398	-0.0036
488.8395	-0.0063
489.0392	-0.0063
489.2389	-0.0016
489.4386	-0.0072
489.6383	-0.0076
489.8379	-0.0054
490.0376	-0.0064
490.2372	-0.0002
490.4368	-0.0099
490.6364	-0.0023
490.836	-0.006
491.0355	-0.0053
491.2351	-0.0053
491.4346	-0.0083
491.6341	-0.0035
491.8336	-0.0057
492.0331	-0.0102
492.2326	-0.0078
492.432	-0.0042
492.6315	-0.0089
492.8309	-0.0038
493.0303	-0.005
493.2297	-0.0078
493.4291	-0.0097
493.6284	-0.0023
493.8278	-0.0005
494.0271	-0.0016
494.2264	-0.0044
494.4257	0.0001
494.625	-0.0096
494.8243	-0.0018
495.0236	-0.0183
495.2228	-0.01
495.422	0.0012
495.6213	-0.0069
495.8205	-0.0032
496.0196	-0.0077
496.2188	-0.0043
496.418	-0.0038
496.6171	-0.0066
496.8162	-0.0055
497.0153	0.0001
497.2144	0.0017
497.4135	0
497.6126	-0.0091
497.8116	-0.0044
498.0107	-0.0108
498.2097	-0.0055
498.4087	-0.0094
498.6077	-0.0088
498.8067	-0.0096
499.0056	-0.0049
499.2046	-0.0051
499.4035	-0.0076
499.6024	-0.0076
499.8013	-0.0055
500.0002	-0.0068
500.199	-0.0014
500.3979	-0.0077
500.5967	-0.0126
500.7956	-0.0127
500.9944	-0.0069
501.1932	-0.0033
501.3919	-0.0084
501.5907	-0.0055
501.7895	0.0009
501.9882	-0.0133
502.1869	-0.0083
502.3856	0.0039
502.5843	-0.0117
502.783	-0.0033
502.9816	-0.0072
503.1803	-0.0091
503.3789	-0.0014
503.5775	-0.0052
503.7761	-0.007
503.9747	-0.007
504.1732	-0.0011
504.3718	-0.0049
504.5703	-0.0048
504.7689	-0.0054
504.9674	-0.0052
505.1658	-0.0059
505.3643	-0.0038
505.5628	0.0019
505.7612	-0.0105
505.9597	-0.0055
506.1581	-0.0068
506.3565	-0.0066
506.5549	-0.0113
506.7532	-0.0054
506.9516	-0.0078
507.1499	-0.0079
507.3482	0.0004
507.5465	0.0007
507.7448	0
507.9431	-0.0079
508.1414	-0.0031
508.3396	-0.0055
508.5379	-0.0073
508.7361	0.0018
508.9343	-0.0088
509.1325	-0.0074
509.3306	-0.003
509.5288	-0.0053
509.7269	-0.0076
509.9251	-0.0045
510.1232	-0.0037
510.3213	-0.0106
510.5193	-0.0007
510.7174	0.0028
510.9154	-0.0055
511.1135	-0.0024
511.3115	-0.0088
511.5095	-0.0112
511.7075	-0.0009
511.9055	-0.0103
512.1034	-0.0072
512.3014	-0.0073
512.4993	-0.0063
512.6972	-0.0069
512.8951	-0.005
513.093	-0.012
513.2908	-0.0045
513.4887	-0.0078
513.6865	-0.0037
513.8844	-0.0012
514.0822	-0.0056
514.2799	-0.0103
514.4777	-0.0048
514.6755	-0.0066
514.8732	-0.0104
515.0709	-0.0061
515.2687	-0.0112
515.4664	-0.0062
515.664	-0.0048
515.8617	-0.0096
516.0594	-0.0032
516.257	0.006
516.4546	-0.0121
516.6522	-0.0036
516.8498	-0.008
517.0474	0.0045
517.2449	-0.007
517.4425	-0.0061
517.64	-0.0018
517.8375	-0.0043
518.035	-0.0059
518.2325	-0.0113
518.43	-0.0027
518.6274	-0.0107
518.8249	-0.0023
519.0223	-0.0108
519.2197	-0.0079
519.4171	-0.0053
519.6145	-0.0054
519.8118	-0.0107
520.0092	0.0011
520.2065	-0.0126
520.4038	-0.0034
520.6011	-0.0115
520.7984	-0.0081
520.9956	-0.013
521.1929	-0.0092
521.3901	-0.0056
521.5874	-0.0057
521.7846	-0.0023
521.9818	-0.0065
522.1789	-0.0041
522.3761	-0.0042
522.5732	-0.0073
522.7704	-0.0036
522.9675	-0.0038
523.1646	-0.0046
523.3617	0.0029
523.5587	-0.0076
523.7558	-0.0042
523.9528	-0.0042
524.1498	-0.0044
524.3468	-0.0047
524.5438	-0.0039
524.7408	-0.0115
524.9378	-0.0112
525.1347	0.0063
525.3316	-0.0025
525.5285	-0.0021
525.7254	-0.0131
525.9223	-0.0032
526.1192	-0.007
526.316	-0.0068
526.5129	-0.0052
526.7097	-0.0102
526.9065	-0.0068
527.1033	-0.0011
527.3	-0.0029
527.4968	-0.0038
527.6935	-0.0014
527.8903	-0.002
528.087	-0.0103
528.2837	-0.0083
528.4804	-0.0017
528.677	-0.0029
528.8737	-0.008
529.0703	-0.0012
529.2669	-0.0004
529.4635	-0.0046
529.6601	-0.0036
529.8567	-0.0015
530.0532	0.0012
530.2498	-0.0101
530.4463	-0.0044
530.6428	0.0016
530.8393	0.0036
531.0358	-0.0081
531.2322	-0.0103
531.4287	-0.0119
531.6251	-0.0015
531.8215	0.0043
532.0179	-0.0061
532.2143	-0.0017
532.4107	0.0052
532.607	-0.0112
532.8034	-0.0083
532.9997	0.0009
533.196	-0.0065
533.3923	-0.001
533.5886	-0.006
533.7848	0.0007
533.9811	-0.009
534.1773	-0.01
534.3735	0.0007
534.5697	-0.0034
534.7659	-0.0018
534.9621	-0.0009
535.1582	-0.0108
535.3544	-0.0101
535.5505	-0.0102
535.7466	-0.006
535.9427	-0.0036
536.1387	-0.0067
536.3348	0.002
536.5308	-0.0046
536.7269	0.0021
536.9229	-0.0049
537.1189	-0.0022
537.3148	0
537.5108	0.0013
537.7068	-0.0044
537.9027	-0.0079
538.0986	-0.0074
538.2945	-0.0029
538.4904	-0.0111
538.6863	-0.0058
538.8821	-0.0027
539.078	-0.0111
539.2738	-0.0126
539.4696	-0.0073
539.6654	0.0008
539.8611	-0.0031
540.0569	-0.0055
540.2526	-0.0001
540.4484	0.0044
540.6441	-0.0022
540.8398	-0.0036
541.0355	-0.001
541.2311	-0.0033
541.4268	0.0021
541.6224	0.0006
541.818	-0.0084
542.0136	-0.0026
542.2092	-0.0002
542.4048	-0.0038
542.6003	-0.0014
542.7959	-0.0019
542.9914	-0.0099
543.1869	-0.0031
543.3824	-0.0058
543.5779	-0.0117
543.7734	-0.0079
543.9688	-0.0121
544.1642	-0.0027
544.3596	-0.0107
544.555	-0.0105
544.7504	-0.0012
544.9458	-0.0058
545.1411	0.0017
545.3365	-0.0109
545.5318	0.0047
545.7271	0.0029
545.9224	0.0031
546.1177	-0.0074
546.3129	0.0008
546.5081	-0.006
546.7034	-0.0071
546.8986	-0.0045
547.0938	-0.0089
547.289	-0.0065
547.4841	-0.0065
547.6793	-0.0081
547.8744	-0.0043
548.0695	-0.0026
548.2646	-0.0078
548.4597	-0.002
548.6548	-0.0003
548.8498	-0.0033
549.0448	-0.001
549.2399	-0.0037
549.4349	-0.0052
549.6298	-0.01
549.8248	-0.0031
550.0198	-0.0042
550.2147	0.0009
550.4096	-0.0035
550.6045	-0.0069
550.7994	0.0002
550.9943	0.0004
551.1892	-0.0075
551.384	-0.007
551.5788	-0.0025
551.7737	-0.0062
551.9685	-0.0093
552.1632	-0.0048
552.358	-0.0073
552.5528	-0.0061
552.7475	-0.0079
552.9422	-0.0101
553.1369	-0.0078
553.3316	-0.0034
553.5263	-0.0054
553.7209	-0.0103
553.9156	-0.0059
554.1102	-0.0097
554.3048	-0.0123
554.4994	-0.0078
554.694	0.007
554.8885	-0.0043
555.0831	-0.0002
555.2776	-0.0002
555.4721	-0.0117
555.6666	-0.0095
555.8611	-0.0043
556.0555	-0.0051
556.25	-0.0073
556.4444	0.0003
556.6388	-0.007
556.8332	0.0019
557.0276	-0.0004
557.222	-0.001
557.4163	0.0041
557.6107	-0.0039
557.805	-0.004
557.9993	-0.0015
558.1936	-0.0018
558.3879	0.003
558.5821	-0.0044
558.7764	-0.0084
558.9706	0.0003
559.1648	-0.007
559.359	-0.0074
559.5532	-0.0022
559.7473	-0.0077
559.9415	-0.0106
560.1356	-0.0046
560.3297	-0.0109
560.5238	-0.0064
560.7179	-0.0072
560.9119	0.0004
561.106	-0.0003
561.3	-0.0011
561.494	-0.0065
561.688	-0.0046
561.882	-0.0037
562.076	-0.0038
562.2699	-0.0079
562.4639	-0.0044
562.6578	-0.0121
562.8517	-0.0032
563.0456	0.0009
563.2395	-0.0098
563.4333	-0.0018
563.6272	-0.0101
563.821	-0.0041
564.0148	-0.0001
564.2086	-0.0086
564.4024	-0.0044
564.5961	-0.0015
564.7899	0.0023
564.9836	-0.0007
565.1773	-0.0023
565.371	-0.0001
565.5647	0.0014
565.7584	0.0019
565.952	0.0011
566.1456	0.0006
566.3393	-0.0006
566.5329	-0.0003
566.7264	-0.0016
566.92	0.0005
567.1136	-0.0014
567.3071	0.0014
567.5006	0.0004
567.6941	-0.0001
567.8876	-0.0047
568.0811	-0.0026
568.2745	-0.0052
568.468	-0.0056
568.6614	-0.0094
568.8548	-0.0096
569.0482	-0.0037
569.2416	-0.0026
569.4349	-0.0021
569.6283	-0.0115
569.8216	-0.0069
570.0149	-0.0049
570.2082	-0.003
570.4015	-0.0045
570.5947	-0.0021
570.788	-0.0025
570.9812	-0.0037
571.1744	-0.0105
571.3676	-0.0075
571.5608	-0.0023
571.754	0.0004
571.9471	-0.0024
572.1402	-0.003
572.3333	-0.0032
572.5264	-0.0026
572.7195	0.0029
572.9126	-0.0038
573.1057	-0.0021
573.2987	-0.0012
573.4917	-0.0053
573.6847	0.001
573.8777	-0.0043
574.0707	0.0016
574.2636	-0.004
574.4566	0.0015
574.6495	-0.0058
574.8424	-0.005
575.0353	-0.0041
575.2281	-0.001
575.421	-0.0052
575.6138	-0.0012
575.8067	-0.0034
575.9995	-0
576.1923	-0.0023
576.385	-0.006
576.5778	-0.0047
576.7706	0.0035
576.9633	-0.005
577.156	-0.0001
577.3487	-0.0013
577.5414	0.0037
577.734	0.001
577.9267	0.0019
578.1193	-0.0063
578.3119	-0.0014
578.5045	-0.0035
578.6971	0.0027
578.8897	-0.0078
579.0822	-0.0037
579.2747	0.0026
579.4673	-0.0054
579.6598	-0.0039
579.8522	-0.0001
580.0447	-0.0032
580.2372	0.0021
580.4296	0.0074
580.622	0.0004
580.8144	-0.003
581.0068	-0.0068
581.1992	0.0031
581.3915	0.0004
581.5839	-0.002
581.7762	-0.0058
581.9685	0.0009
582.1608	-0.0038
582.353	0.0029
582.5453	-0.0041
582.7375	0.0016
582.9298	-0.0066
583.122	0.0016
583.3142	0.0014
583.5063	-0.0032
583.6985	0.0001
583.8906	-0.0055
584.0827	-0.0029
584.2749	-0.0035
584.4669	-0.0056
584.659	-0.0105
584.8511	-0.0041
585.0431	-0.0012
585.2352	-0.0068
585.4272	-0.0056
585.6192	-0.0046
585.8111	-0.0037
586.0031	-0.0012
586.195	-0.0044
586.387	0.0008
586.5789	0.0024
586.7708	-0.0085
586.9627	-0.0029
587.1545	-0.0051
587.3464	-0.0062
587.5382	-0.0055
587.73	-0.0074
587.9218	-0.0013
588.1136	-0.0013
588.3053	-0.0029
588.4971	-0.0084
588.6888	-0.0011
588.8805	-0.0074
589.0722	0.0023
589.2639	-0.0003
589.4556	-0.0041
589.6472	-0.0038
589.8389	0.0002
590.0305	-0.0046
590.2221	0.0005
590.4137	-0.0024
590.6052	-0.006
590.7968	-0.0013
590.9883	-0.0056
591.1798	-0.0121
591.3713	-0.0022
591.5628	-0.0023
591.7543	-0.0015
591.9458	-0.0023
592.1372	-0.0007
592.3286	-0.0033
592.52	-0.0047
592.7114	0.0058
592.9028	-0.0053
593.0941	-0.0023
593.2855	-0.0012
593.4768	0.0011
593.6681	-0.0014
593.8594	0.0045
594.0506	-0.0013
594.2419	0.004
594.4331	-0.0045
594.6244	-0.0018
594.8156	-0.007
595.0067	-0.0027
595.1979	-0.0038
595.3891	-0.0012
595.5802	-0.002
595.7713	-0.0074
595.9624	-0.0018
596.1535	-0.0034
596.3446	-0.0035
596.5357	-0.0007
596.7267	-0.004
596.9177	0.0033
597.1087	-0.0006
597.2997	0.0006
597.4907	-0.002
597.6817	-0.0028
597.8726	-0.0059
598.0635	-0.0071
598.2544	-0.0027
598.4453	-0.0043
598.6362	-0.0062
598.827	-0.007
599.0179	-0.0022
599.2087	-0.0076
599.3995	-0.004
599.5903	-0.0013
599.7811	-0.0058
599.9718	0.0025
600.1626	-0.0032
600.3533	-0.0059
600.544	-0.0031
600.7347	0.0021
600.9254	0.0009
601.116	-0.0036
601.3067	-0.0063
601.4973	-0.0085
601.6879	-0.002
601.8785	-0.0078
602.0691	-0
602.2596	-0.001
602.4502	-0.0034
602.6407	-0.0023
602.8312	-0.0052
603.0217	-0.0009
603.2122	0.0004
603.4027	-0.0021
603.5931	-0.0031
603.7835	-0.003
603.9739	-0.006
604.1643	0.0009
604.3547	-0.0014
604.5451	-0.006
604.7354	0.0023
604.9257	-0.0055
605.116	-0.0025
605.3063	-0.0004
605.4966	-0.0034
605.6869	-0.004
605.8771	-0.0029
606.0673	-0.0005
606.2575	-0.002
606.4477	-0.0041
606.6379	-0.011
606.8281	-0.0061
607.0182	-0.0098
607.2083	-0.0053
607.3985	-0.0115
607.5885	0.0011
607.7786	-0.004
607.9687	-0.003
608.1587	-0.0054
608.3488	-0.0032
608.5388	0.0011
608.7288	-0.0077
608.9187	-0
609.1087	-0.003
609.2986	-0.0024
609.4886	0.0005
609.6785	-0
609.8684	-0.0034
610.0582	-0.0031
610.2481	-0.005
610.4379	-0.0007
610.6278	0.0023
610.8176	-0.0017
611.0074	-0.003
611.1971	0.0026
611.3869	-0.0044
611.5766	-0.002
611.7664	-0.004
611.9561	-0.0007
612.1458	0.0041
612.3354	-0.0071
612.5251	-0.0094
612.7147	-0.0037
612.9044	-0.0031
613.094	-0.0027
613.2836	0.0037
613.4731	-0.008
613.6627	-0.0052
613.8522	-0.0027
614.0417	-0.0052
614.2313	-0.0074
614.4207	-0.0028
614.6102	0.0009
614.7997	-0.0071
614.9891	-0.0039
615.1785	-0.0045
615.3679	0.0004
615.5573	-0
615.7467	-0.003
615.9361	-0.0027
616.1254	-0.0009
616.3147	-0.0015
616.504	-0.0004
616.6933	-0.0013
616.8826	-0.0055
617.0718	-0.0036
617.2611	0.0044
617.4503	0.0032
617.6395	-0.0032
617.8287	0.0008
618.0179	-0.0005
618.207	-0.005
618.3961	-0.0036
618.5853	-0
618.7744	-0.0036
618.9634	0.0015
619.1525	-0.0041
619.3416	-0.0053
619.5306	-0.0023
619.7196	0.0027
619.9086	-0.0013
620.0976	0.0005
620.2866	0.0018
620.4755	-0.004
620.6645	-0.0008
620.8534	-0.002
621.0423	-0.006
621.2312	-0.0038
621.42	0.0029
621.6089	-0.0011
621.7977	-0.0049
621.9865	-0.0047
622.1753	-0.0012
622.3641	0.0023
622.5529	0.0005
622.7416	-0.0029
622.9303	0.0067
623.1191	-0.0069
623.3078	-0.001
623.4964	-0.0022
623.6851	0.0028
623.8737	-0.0038
624.0624	-0.0006
624.251	-0.0005
624.4396	-0.0028
624.6282	-0.0007
624.8167	-0.0001
625.0053	-0.0048
625.1938	0.0018
625.3823	-0.0008
625.5708	0.0044
625.7593	-0.0016
625.9477	-0.0073
626.1362	-0.0007
626.3246	-0.0032
626.513	-0.004
626.7014	-0.004
626.8898	-0.004
627.0781	-0.0018
627.2665	-0.0012
627.4548	-0.0091
627.6431	-0.0013
627.8314	-0.0034
628.0197	0.0005
628.2079	-0.0024
628.3962	-0.0002
628.5844	0.0029
628.7726	0.0003
628.9608	-0.0019
629.1489	0.0032
629.3371	-0.0025
629.5252	0.001
629.7134	0.0004
629.9015	-0.0027
630.0895	-0.0022
630.2776	-0.0021
630.4657	-0.0041
630.6537	-0.0038
630.8417	-0.0004
631.0297	-0.0023
631.2177	0.0052
631.4057	0.0019
631.5936	-0.0008
631.7815	-0.0042
631.9695	-0.0002
632.1574	-0.0037
632.3452	-0.0074
632.5331	0.0029
632.7209	-0.0063
632.9088	-0.0025
633.0966	-0.0059
633.2844	-0.0072
633.4722	0.0011
633.6599	-0.0016
633.8477	-0.0026
634.0354	-0.0063
634.2231	-0.0075
634.4108	0.0007
634.5985	-0.0009
634.7861	-0.0074
634.9738	-0.0058
635.1614	-0.0026
635.349	-0.0041
635.5366	-0.0037
635.7242	-0.0026
635.9117	0.0016
636.0993	-0.0024
636.2868	-0.0033
636.4743	0.0009
636.6618	-0.0075
636.8492	0.0031
637.0367	-0.0036
637.2241	-0.0015
637.4115	-0.0062
637.5989	-0.0002
637.7863	0.0007
637.9737	-0.0032
638.161	-0.0022
638.3484	-0.0024
638.5357	-0.0015
638.723	-0.0035
638.9103	0.0054
639.0975	0.001
639.2848	-0.0025
639.472	0.0025
639.6592	0.0073
639.8464	-0.0026
640.0336	-0.006
640.2208	0.001
640.4079	-0.0001
640.595	0.0016
640.7821	0
640.9692	0.0044
641.1563	0.0022
641.3434	0.0046
641.5304	-0.0022
641.7174	-0.001
641.9044	0.0036
642.0914	0.0005
642.2784	0.0037
642.4653	0.0053
642.6523	0.0031
642.8392	0.004
643.0261	0.0076
643.213	0.0008
643.3999	-0.005
643.5867	-0.0024
643.7735	-0.0002
643.9604	-0.0004
644.1472	0.0006
644.3339	-0.0006
644.5207	-0.0003
644.7075	-0.0026
644.8942	-0.0029
645.0809	0.0007
645.2676	-0.0035
645.4543	0.001
645.6409	-0.0057
645.8276	0.0012
646.0142	-0.003
646.2008	-0.0091
646.3874	0.0008
646.574	-0.006
646.7605	-0.0011
646.9471	-0.0022
647.1336	-0.0044
647.3201	-0.0049
647.5066	-0.0019
647.6931	0.0005
647.8795	-0.0042
648.0659	-0.0034
648.2524	-0.0046
648.4388	-0.0025
648.6252	-0.0019
648.8115	-0.0108
648.9979	-0.0061
649.1842	-0.0091
649.3705	-0.0051
649.5568	-0.0045
649.7431	-0.0046
649.9294	-0.0014
650.1156	-0.0057
650.3018	-0.0087
650.488	-0.0089
650.6742	-0.0073
650.8604	-0.0034
651.0466	-0.0012
651.2327	-0.002
651.4188	-0.001
651.6049	0.0029
651.791	-0.0043
651.9771	0.0018
652.1632	0.0021
652.3492	0.0016
652.5352	-0.0009
652.7212	-0.0004
652.9072	0.0017
653.0932	-0.0006
653.2791	-0.0022
653.465	-0.0005
653.651	-0.0011
653.8369	-0.0046
654.0227	0.0003
654.2086	-0.0002
654.3944	-0.0068
654.5803	-0.0085
654.7661	-0.0074
654.9519	-0.0034
655.1377	0.0002
655.3234	0.0001
655.5092	0.0001
655.6949	0.0001
655.8806	0.0001
656.0663	0.0001
656.2519	0.0001
656.4376	-0.004
656.6232	-0.0035
656.8088	-0.0031
656.9945	-0.0035
657.18	0.0034
657.3656	-0.0022
657.5511	-0.0014
657.7367	-0.0059
657.9222	0.0007
658.1077	-0.0037
658.2932	-0.0052
658.4786	-0.0014
658.6641	0.0003
658.8495	-0.0039
659.0349	-0.0042
659.2203	-0.0081
659.4057	-0.0041
659.591	-0.0007
659.7764	-0.0062
659.9617	-0.0043
660.147	-0.0033
660.3323	-0.0016
660.5176	-0.0069
660.7028	-0.0053
660.888	-0.002
661.0733	0.0001
661.2585	-0.0102
661.4436	-0.0005
661.6288	-0.0054
661.8139	0.0007
661.9991	0
662.1842	-0.0018
662.3693	-0.0062
662.5544	-0.0012
662.7394	-0.0027
662.9245	0.0039
663.1095	0.0016
663.2945	0.0004
663.4795	-0.0042
663.6644	-0.0069
663.8494	-0.0072
664.0343	0.0014
664.2193	-0.0029
664.4042	-0.0103
664.589	-0.0024
664.7739	-0.0025
664.9587	0.0047
665.1436	0.0034
665.3284	-0.0043
665.5132	-0.0018
665.698	0.0037
665.8827	0.0024
666.0675	-0.0073
666.2522	-0.0078
666.4369	-0.0099
666.6216	-0.0097
666.8063	-0.0078
666.9909	-0.0135
667.1756	-0.0077
667.3602	-0.007
667.5448	-0.013
667.7294	-0.0019
667.9139	-0.0113
668.0985	-0.0078
668.283	-0.0101
668.4675	-0.0134
668.652	-0.0106
668.8365	-0.0067
669.0209	-0.0068
669.2054	-0.0021
669.3898	-0.0041
669.5742	-0.0057
669.7586	-0.0052
669.943	-0.0052
670.1273	-0.0097
670.3117	-0.0044
670.496	-0.0035
670.6803	0.0011
670.8646	-0.0029
671.0488	-0.0023
671.2331	0.0007
671.4173	0.0001
671.6015	0.0016
671.7857	-0.0038
671.9699	-0.0046
672.1541	-0.0047
672.3382	-0.0076
672.5223	-0.0085
672.7064	-0.0086
672.8905	-0.0133
673.0746	-0.0104
673.2587	-0.012
673.4427	-0.0142
673.6267	-0.0103
673.8107	-0.0095
673.9947	-0.0082
674.1787	-0.0124
674.3626	-0.0072
674.5465	-0.0037
674.7304	0.0012
674.9143	0.0015
675.0982	-0.005
675.2821	-0.0016
675.4659	-0.0035
675.6497	-0.0007
675.8335	-0.0027
676.0173	-0.0077
676.2011	-0.002
676.3849	-0.0076
676.5686	-0.0023
676.7523	-0.0051
676.936	-0.0015
677.1197	0.002
677.3034	-0.007
677.487	-0.0055
677.6706	-0.0053
677.8542	-0.005
678.0378	-0.003
678.2214	-0.0092
678.405	-0.0021
678.5885	-0.0102
678.772	-0.004
678.9555	-0.0035
679.139	-0.0071
679.3225	-0.0049
679.5059	-0.0089
679.6894	-0.0048
679.8728	-0.0011
680.0562	0.0021
680.2395	-0.0037
680.4229	0.0031
680.6062	-0.0012
680.7896	-0.0011
680.9729	-0.0024
681.1562	-0.0002
681.3394	0.0007
681.5227	-0.0034
681.7059	-0.0039
681.8891	-0.0062
682.0723	-0.0059
682.2555	-0.0041
682.4387	-0.0012
682.6218	-0.0061
682.805	-0.0033
682.9881	-0.0052
683.1712	0.0035
683.3542	0.0029
683.5373	-0.0069
683.7203	-0.001
683.9034	-0.0022
684.0864	-0.0063
684.2694	-0.0065
684.4523	-0.0057
684.6353	-0.0014
684.8182	-0.0007
685.0011	0.0012
685.184	-0.0066
685.3669	-0.0039
685.5498	-0.0025
685.7326	0.0017
685.9154	-0.004
686.0982	-0.0054
686.281	-0.0062
686.4638	-0.0026
686.6465	-0.0049
686.8293	-0.0056
687.012	-0.0036
687.1947	-0.0033
687.3774	-0.0021
687.56	-0.0053
687.7427	0.0011
687.9253	-0.002
688.1079	-0.0003
688.2905	0.0004
688.4731	-0.0056
688.6556	0.0023
688.8382	0.0025
689.0207	-0.0029
689.2032	-0.0002
689.3857	-0.0004
689.5681	0.0009
689.7506	0.0033
689.933	-0.0005
690.1154	-0.0012
690.2978	-0.006
690.4802	-0.0048
690.6626	0.0053
690.8449	0.0011
691.0272	0.0046
691.2095	0.0012
691.3918	0.0002
691.5741	-0.0017
691.7563	0.001
691.9386	-0.0058
692.1208	-0.0077
692.303	-0.009
692.4852	-0.0014
692.6673	-0.0019
692.8495	-0.0097
693.0316	-0.0048
693.2137	-0.0078
693.3958	-0.0055
693.5778	-0.0026
693.7599	-0.0093
693.9419	-0.0077
694.1239	-0.007
694.3059	-0.0065
694.4879	-0.0035
694.6699	-0.0101
694.8518	-0.0069
695.0337	-0.0037
695.2157	-0.0039
695.3975	-0.0074
695.5794	-0.0103
695.7613	-0.0059
695.9431	-0.0048
696.1249	-0.0048
696.3067	-0.004
696.4885	-0.0012
696.6703	-0.0022
696.852	-0.0049
697.0337	0.0023
697.2154	-0.0036
697.3971	-0.0035
697.5788	-0.0034
697.7605	-0.002
697.9421	-0.0056
698.1237	-0.0018
698.3053	-0.005
698.4869	-0.002
698.6685	-0.0077
698.85	-0.0032
699.0315	0.001
699.213	-0.0009
699.3945	0.0022
699.576	0.0057
699.7575	-0.0043
699.9389	0.0015
700.1203	-0.0008
700.3017	-0.004
700.4831	-0.0025
700.6645	-0.0053
700.8458	-0.0052
701.0271	-0.0014
701.2084	-0.0102
701.3897	-0.0048
701.571	-0.0007
701.7523	0.0033
701.9335	0.0034
702.1147	0.0068
702.2959	-0.0045
702.4771	0
702.6583	-0.0045
702.8394	-0.0045
703.0205	0.0004
703.2016	-0.0074
703.3827	0.005
703.5638	-0.0084
703.7449	-0.0089
703.9259	-0.001
704.1069	0.0036
704.2879	-0.0023
704.4689	-0.0025
704.6499	-0.0031
704.8308	-0.0025
705.0117	-0.0009
705.1927	-0.001
705.3735	0.0039
705.5544	0.0035
705.7353	0.003
705.9161	0.0017
706.0969	0.0046
706.2777	-0.0017
706.4585	-0.0059
706.6393	0.0002
706.82	-0.0044
707.0007	-0.0063
707.1815	0.0035
707.3621	-0.0042
707.5428	-0.0044
707.7235	-0.0014
707.9041	-0.0039
708.0847	-0.0008
708.2653	-0.0081
708.4459	-0.0074
708.6265	-0.0072
708.807	-0.0027
708.9875	-0.002
709.168	-0.0043
709.3485	-0.0043
709.529	-0.0101
709.7095	-0.0036
709.8899	-0.0126
710.0703	-0.002
710.2507	-0.0055
710.4311	-0.0057
710.6115	0.001
710.7918	-0.0041
710.9721	0.0032
711.1524	-0.0002
711.3327	0.0005
711.513	-0.0048
711.6932	-0.004
711.8735	0.0011
712.0537	-0.0059
712.2339	-0.0017
712.4141	-0.0017
712.5942	0.005
712.7744	0.0024
712.9545	0.0043
713.1346	-0.004
713.3147	0.0025
713.4947	-0.001
713.6748	-0.0015
713.8548	-0.0086
714.0348	-0.0024
714.2148	-0.0054
714.3948	-0.0079
714.5748	-0.0098
714.7547	-0.0071
714.9346	-0.0066
715.1145	-0.0079
715.2944	-0.0006
715.4743	-0.0087
715.6541	-0.0019
715.834	-0.0043
716.0138	-0.0014
716.1936	-0.0008
716.3733	-0.0064
716.5531	-0.0068
716.7328	-0.0065
716.9126	-0.0076
717.0923	-0.0022
717.2719	-0.0085
717.4516	-0.0069
717.6312	-0.0032
717.8109	-0.0011
717.9905	-0.0051
718.1701	-0.0007
718.3496	0.0003
718.5292	-0.0052
718.7087	-0.0004
718.8882	0.0014
719.0677	-0.004
719.2472	-0.0005
719.4267	-0.0145
719.6061	-0.008
719.7856	-0.0053
719.965	-0.0079
720.1443	0
720.3237	-0.0016
720.5031	-0.0016
720.6824	-0.0023
720.8617	-0.0015
721.041	0.0001
721.2203	-0.008
721.3995	-0.0051
721.5788	-0.0079
721.758	-0.0046
721.9372	-0.0109
722.1164	-0.0073
722.2956	-0.0062
722.4747	-0.0071
722.6538	-0.0053
722.8329	-0.0016
723.012	-0.0025
723.1911	-0.0027
723.3702	-0.0002
723.5492	-0.0071
723.7282	-0.0061
723.9072	-0.0021
724.0862	0.0058
724.2652	-0.002
724.4441	-0.0054
724.623	-0.0001
724.8019	-0.0046
724.9808	0.0034
725.1597	-0.0008
725.3385	0.0036
725.5174	0.0015
725.6962	-0.0081
725.875	0.0007
726.0538	0.0034
726.2325	0.0027
726.4112	-0.0058
726.59	0.0013
726.7687	-0.005
726.9474	-0.001
727.126	-0.0064
727.3047	-0.0011
727.4833	-0.0027
727.6619	-0.0133
727.8405	-0.0028
728.0191	0.0016
728.1976	-0.0042
728.3762	-0.0057
728.5547	-0.0105
728.7332	-0.0123
728.9116	-0.0145
729.0901	-0.0073
729.2686	-0.0094
729.447	-0.0044
729.6254	-0.0053
729.8038	-0.0032
729.9821	-0.0029
730.1605	-0.0001
730.3388	-0.0026
730.5171	0.0013
730.6954	-0.0014
730.8737	-0.004
731.0519	0.0041
731.2302	0.005
731.4084	0.0065
731.5866	0.0014
731.7648	0.0016
731.9429	0.0009
732.1211	-0.0039
732.2992	0.0008
732.4773	-0.0049
732.6554	-0.0045
732.8335	-0.0061
733.0115	-0.0101
733.1896	-0.0116
733.3676	-0.0086
733.5456	0.0016
733.7235	0.0019
733.9015	-0.0021
734.0794	-0.001
734.2574	0.0038
734.4353	-0.0044
734.6131	-0.0011
734.791	-0.0027
734.9689	-0.0052
735.1467	0.0026
735.3245	-0.0007
735.5023	-0.0076
735.68	0.0014
735.8578	-0.0032
736.0355	0.0107
736.2132	-0.0002
736.3909	-0.001
736.5686	0.0005
736.7463	-0.0068
736.9239	-0.0057
737.1015	0.0001
737.2791	-0.0106
737.4567	-0.0041
737.6343	-0.0041
737.8118	-0.0078
737.9894	0.0015
738.1669	-0.0052
738.3444	-0.0025
738.5218	-0.0001
738.6993	-0.0005
738.8767	0.0009
739.0541	-0.0035
739.2315	-0.0041
739.4089	-0.0046
739.5863	-0.0073
739.7636	0.0001
739.9409	-0.0013
740.1182	0.0036
740.2955	-0.0009
740.4728	-0.0064
740.65	-0.0033
740.8272	0.0002
741.0044	-0.0061
741.1816	0.0011
741.3588	0.0029
741.5359	-0.0012
741.7131	0.0023
741.8902	0.0018
742.0673	0.0018
742.2444	-0.0078
742.4214	-0.0046
742.5985	-0.0091
742.7755	0.0013
742.9525	0.0026
743.1295	0.0003
743.3064	-0.0049
743.4834	-0.0003
743.6603	-0.0061
743.8372	-0.0011
744.0141	-0.005
744.191	-0.0058
744.3678	-0.0015
744.5446	0.0018
744.7215	-0.0061
744.8982	-0.0009
745.075	0.0009
745.2518	0.0048
745.4285	-0.0019
745.6052	0.0028
745.7819	0.0031
745.9586	0.0007
746.1353	-0.0016
746.3119	0.0047
746.4885	-0.0018
746.6651	-0.0001
746.8417	-0.0019
747.0183	-0.0053
747.1948	-0.003
747.3714	-0.0098
747.5479	-0.007
747.7244	0.0003
747.9008	0.0044
748.0773	0.0018
748.2537	0.0006
748.4301	0.0014
748.6065	0.0004
748.7829	0.0027
748.9593	0.003
749.1356	-0.0049
749.3119	0.0011
749.4882	0.0032
749.6645	0.0022
749.8408	-0.0012
750.017	-0.0036
750.1933	-0.0025
750.3695	-0.004
750.5457	-0.0047
750.7218	-0.0046
750.898	-0.0003
751.0741	-0.0154
751.2502	-0.0021
751.4263	-0.0023
751.6024	-0.0064
751.7784	-0.0009
751.9545	-0.0005
752.1305	-0.0034
752.3065	-0.0024
752.4825	-0.0019
752.6584	-0.0028
752.8344	0.0005
753.0103	-0.005
753.1862	0.0078
753.3621	-0.0006
753.5379	-0.0066
753.7138	0.0058
753.8896	-0.0103
754.0654	-0.0034
754.2412	-0.0141
754.417	-0.0042
754.5927	-0.0039
754.7685	-0.01
754.9442	-0.0116
755.1199	-0.0098
755.2956	-0.0014
755.4712	-0.0067
755.6469	-0.0109
755.8225	-0.0078
755.9981	-0.006
756.1736	-0.0078
756.3492	-0.0081
756.5248	-0.0011
756.7003	-0.0068
756.8758	-0.0076
757.0513	-0.0147
757.2267	-0.0117
757.4022	-0.0088
757.5776	-0.0104
757.753	-0.011
757.9284	-0.0072
758.1038	-0.0061
758.2791	-0.0126
758.4545	-0.0037
758.6298	-0.005
758.8051	-0.0102
758.9803	-0.0086
759.1556	-0.0067
759.3308	-0.0068
759.506	-0.0083
759.6812	-0.0117
759.8564	-0.0041
760.0316	-0.0141
760.2067	-0.0083
760.3819	-0.0053
760.557	-0.0086
760.732	-0.0125
760.9071	-0.0144
761.0821	-0.0149
761.2572	-0.0172
761.4322	-0.0089
761.6072	-0.0107
761.7821	-0.0066
761.9571	-0.0106
762.132	-0.0145
762.3069	-0.0073
762.4818	-0.0026
762.6567	-0.0097
762.8316	0.0006
763.0064	-0.004
763.1812	-0.0058
763.356	-0.0005
763.5308	-0.0011
763.7055	-0.001
763.8803	-0.0058
764.055	-0.0032
764.2297	0.0016
764.4044	0.0047
764.579	0.0009
764.7537	-0.0048
764.9283	-0.0073
765.1029	0.002
765.2775	0.0036
765.4521	0.0039
765.6266	0.0048
765.8011	0.0102
765.9756	-0.0009
766.1501	0.0023
766.3246	-0.0034
766.4991	-0.0048
766.6735	-0.0068
766.8479	-0.0044
767.0223	0.0018
767.1967	-0.0063
767.371	-0.0016
767.5454	-0.0038
767.7197	-0.0027
767.894	-0.0003
768.0683	0.0007
768.2425	-0.0036
768.4168	-0.0026
768.591	0.0036
768.7652	-0.0045
768.9394	0.0061
769.1135	0.0042
769.2877	0.0009
769.4618	0.0098
769.6359	0.0031
769.81	0.0021
769.984	-0.0046
770.1581	-0.0005
770.3321	0.0032
770.5061	-0.0005
770.6801	-0.0008
770.8541	-0.0041
771.028	0.0061
771.202	0.0054
771.3759	-0.0003
771.5498	0.0028
771.7236	0.0021
771.8975	-0.0012
772.0713	0.0069
772.2451	0.0031
772.4189	0.0058
772.5927	-0.0052
772.7665	-0.0033
772.9402	0.001
773.1139	0.0027
773.2876	0.0014
773.4613	-0.0005
773.635	0.0052
773.8086	0.0059
773.9822	0.0023
774.1558	0.0004
774.3294	0.0076
774.503	0.0069
774.6765	-0.0003
774.8501	0.0061
775.0236	-0.0109
775.1971	-0.0095
775.3705	0.0056
775.544	-0.0006
775.7174	-0.0015
775.8908	-0.0063
776.0642	0.0029
776.2376	0.0002
776.4109	-0.0062
776.5843	0.0046
776.7576	0.0053
776.9309	-0.0044
777.1041	-0.0086
777.2774	-0.0038
777.4506	-0.0016
777.6238	0.0051
777.797	-0.0039
777.9702	0.0002
778.1434	-0.0029
778.3165	0
778.4896	-0.0064
778.6627	-0.0008
778.8358	-0.0062
779.0089	-0.0023
779.1819	-0.0053
779.3549	-0.0043
779.5279	0.0019
779.7009	-0.0046
779.8739	0.0016
780.0468	-0.0044
780.2197	-0.0046
780.3926	-0.0054
780.5655	-0.0049
780.7384	-0.0008
780.9112	-0.0076
781.0841	0.0043
781.2569	-0.0055
781.4297	-0.0023
781.6024	0.0002
781.7752	-0.0043
781.9479	-0.0026
782.1206	0.0017
782.2933	-0.0034
782.466	-0.0119
782.6386	-0.0018
782.8113	-0.016
782.9839	-0.0056
783.1565	-0.0087
783.329	-0.006
783.5016	-0.0033
783.6741	-0.0122
783.8466	-0.0072
784.0191	-0.0116
784.1916	-0.0039
784.3641	0.0006
784.5365	-0.0022
784.7089	0.0099
784.8813	0.0118
785.0537	0.0123
785.2261	-0.0017
785.3984	-0.0064
785.5707	0.0005
785.743	0.0104
785.9153	-0.0006
786.0876	0.0002
786.2598	0.0072
786.432	0.0008
786.6042	0.0039
786.7764	0.0074
786.9486	0.0015
787.1207	-0.0021
787.2928	0.0015
787.4649	-0.009
787.637	0.0007
787.8091	0.0032
787.9811	0.0091
788.1532	-0.0054
788.3252	-0.0083
788.4972	0.0036
788.6691	-0.0106
788.8411	0.0041
789.013	0.0026
789.1849	0.0025
789.3568	-0.0037
789.5287	-0.0071
789.7005	0
789.8723	0.0004
790.0442	-0.0095
790.2159	-0.0012
790.3877	-0.007
790.5595	-0.0051
790.7312	0.0041
790.9029	-0.0095
791.0746	-0.0103
791.2463	-0.0011
791.4179	-0.0039
791.5896	0.0019
791.7612	-0.0035
791.9328	0.001
792.1044	-0.0031
792.2759	0.0066
792.4474	-0.0033
792.619	-0.0036
792.7905	-0.0067
792.9619	-0.0059
793.1334	-0.0086
793.3048	-0.0026
793.4762	-0.0055
793.6476	-0.0209
793.819	-0.0129
793.9904	-0.0079
794.1617	-0.0093
794.333	-0.0056
794.5043	-0.0129
794.6756	0.002
794.8469	-0.0053
795.0181	-0.0119
795.1893	-0.0056
795.3605	-0.0102
795.5317	-0.0049
795.7029	-0.0104
795.874	-0.0063
796.0452	0.0011
796.2163	-0.0035
796.3873	-0.0126
796.5584	-0.0131
796.7294	-0.0145
796.9005	-0.0133
797.0715	-0.0134
797.2425	-0.0105
797.4134	-0.012
797.5844	-0.0064
797.7553	-0.0092
797.9262	-0.0125
798.0971	-0.0118
798.2679	-0.0059
798.4388	-0.0115
798.6096	-0.0083
798.7804	-0.0095
798.9512	-0.0188
799.122	-0.008
799.2927	-0.0122
799.4635	-0.0035
799.6342	-0.0086
799.8049	-0.0165
799.9755	-0.0062
800.1462	-0.0232
800.3168	-0.0072
800.4874	-0.0119
800.658	-0.009
800.8286	-0.0158
800.9991	-0.0124
801.1696	-0.008
801.3402	-0.0159
801.5106	-0.0221
801.6811	-0.0156
801.8516	-0.0109
802.022	-0.0305
802.1924	-0.0089
802.3628	-0.0158
802.5332	-0.0176
802.7035	-0.0187
802.8739	-0.0112
803.0442	-0.023
803.2145	-0.014
803.3847	-0.0231
803.555	-0.0182
803.7252	-0.0086
803.8954	-0.0102
804.0656	-0.0095
804.2358	-0.011
804.4059	-0.0099
804.5761	-0.0126
804.7462	-0.0075
804.9163	-0.0053
805.0864	-0.0161
805.2564	-0.0116
805.4264	-0.0036
805.5965	-0.0121
805.7665	-0.0217
805.9364	-0.0047
806.1064	-0.0084
806.2763	0.0005
806.4462	-0.0061
806.6161	-0.0163
806.786	-0.004
806.9559	-0.0069
807.1257	-0.0142
807.2955	-0.0116
807.4653	-0.0095
807.6351	-0.0142
807.8048	-0.0037
807.9746	-0.006
808.1443	0.0019
808.314	-0.007
808.4837	0.0095
808.6533	0.0001
808.8229	0.004
808.9926	0.0019
809.1622	-0.0014
809.3317	0.0073
809.5013	0.0052
809.6708	0.002
809.8403	-0.0056
810.0098	0.0132
810.1793	-0.0049
810.3488	0.0082
810.5182	-0.0043
810.6876	0.0037
810.857	-0.012
811.0264	-0.0106
811.1958	0.0032
811.3651	-0.01
811.5344	-0.0024
811.7037	-0.0165
811.873	0.0022
812.0422	-0.015
812.2115	-0.0074
812.3807	-0.0056
812.5499	-0.0103
812.7191	-0.0073
812.8882	0.0007
813.0574	-0.006
813.2265	0.0071
813.3956	0.0007
813.5646	-0.0113
813.7337	-0.0061
813.9027	0.0112
814.0718	-0.0058
814.2407	0.0038
814.4097	-0.0013
814.5787	0.0053
814.7476	-0.0021
814.9165	0.0017
815.0854	-0.0119
815.2543	-0.0016
815.4232	-0.0016
815.592	0.0021
815.7608	-0.006
815.9296	0.0032
816.0984	0.0126
816.2671	-0.0027
816.4359	-0.0013
816.6046	0.0033
816.7733	-0.0001
816.942	-0.0068
817.1106	0.0005
817.2793	0.0019
817.4479	0.0005
817.6165	-0.0043
817.785	-0.0089
817.9536	-0.0041
818.1221	-0.0041
818.2906	-0.0077
818.4591	-0.0084
818.6276	-0.0023
818.7961	-0.0079
818.9645	-0.016
819.1329	0.003
819.3013	-0.0093
819.4697	-0.0059
819.638	-0.0111
819.8064	-0.0067
819.9747	-0.0071
820.143	0.0061
820.3113	0.0034
820.4795	0.0085
820.6477	0.0097
820.816	-0.0136
820.9842	-0.0041
821.1523	-0.0191
821.3205	0
821.4886	-0.0045
821.6567	0.0122
821.8248	-0.0182
821.9929	-0.0136
822.1609	-0.0078
822.329	0.0007
822.497	-0.0185
822.665	-0.0156
822.833	-0.0197
823.0009	-0.0044
823.1688	-0.0181
823.3367	-0.0038
823.5046	-0.0059
823.6725	-0.0138
823.8404	0.0032
824.0082	0.0084
824.176	0.0047
824.3438	-0.0009
824.5116	0.0142
824.6793	0.0005
824.847	0.0036
825.0147	-0.016
825.1824	-0.0216
825.3501	-0.009
825.5177	-0.0143
825.6854	-0.0003
825.853	-0.0016
826.0206	-0.0083
826.1881	-0.003
826.3557	-0.0136
826.5232	-0.0027
826.6907	-0.0024
826.8582	-0.0026
827.0257	-0.014
827.1931	0.0061
827.3605	-0.001
827.528	0.0021
827.6953	-0.0048
827.8627	0.001
828.03	-0.0118
828.1974	0.0055
828.3647	0.0129
828.532	-0.0163
828.6992	0.0087
828.8665	-0.0139
829.0337	-0.0173
829.2009	-0.011
829.3681	-0.0292
829.5352	-0.0105
829.7024	-0.0087
829.8695	-0.0217
830.0366	-0.0298
830.2037	-0.0037
830.3707	-0.0232
830.5378	-0.0092
830.7048	-0.0132
830.8718	0.0002
831.0388	-0.0127
831.2057	-0.0216
831.3727	-0.023
831.5396	0.0162
831.7065	0.0063
831.8734	0.0029
832.0402	-0.016
832.2071	0.0168
832.3739	-0.0102
832.5407	0.003
832.7075	-0.0185
832.8742	0.0175
833.041	0.0186
833.2077	-0.0161
833.3744	-0.0165
833.541	0.0098
833.7077	-0.0022
833.8743	-0.0002
834.0409	0.007
834.2075	-0.0064
834.3741	0.0082
834.5407	0.0107
834.7072	0.0127
834.8737	-0.0286
835.0402	-0.0222
835.2067	-0.0014
835.3731	-0.0115
835.5395	-0.0062
835.706	-0.0256
835.8723	-0.0182
836.0387	-0.0179
836.2051	-0.0139
836.3714	0.0157
836.5377	-0.0113
836.704	-0.0155
836.8703	-0.0046
837.0365	0.0109
837.2027	-0.0007
837.3689	0.0049
837.5351	-0.0145
837.7013	-0.0075
837.8674	0.0164
838.0335	-0.0098
838.1997	0.0079
838.3657	0.0018
838.5318	0.0249
838.6978	-0.0131
838.8639	0.0003
839.0299	-0.0092
839.1958	0.0059
839.3618	0.0128
839.5277	-0.0132
839.6937	-0.005
839.8596	-0.0028
840.0254	0.0049
840.1913	-0.0005
840.3571	0.0284
840.523	-0.0076
840.6888	0.0009
840.8545	0.0025
841.0203	0.0021
841.186	-0.0006
841.3517	-0.0091
841.5174	-0.0033
841.6831	0.0125
841.8488	0.0059
842.0144	0.0115
842.18	0.0066
842.3456	-0.0039
842.5112	0.0075
842.6767	-0.0252
842.8422	0.0052
843.0077	-0.0036
843.1732	0.0021
843.3387	-0.0175
843.5042	0.0228
843.6696	-0.0047
843.835	-0.0153
844.0004	0.0147
844.1657	0.0098
844.3311	0.0249
844.4964	0.0012
844.6617	-0.0021
844.827	0.0049
844.9923	0.0052
845.1575	0.0066
845.3227	-0.0179
845.4879	0.0067
845.6531	0.0079
845.8183	-0.0144
845.9834	-0.0254
846.1485	0.0107
846.3136	-0.0255
846.4787	0.0017
846.6438	0.0131
846.8088	0.0326
846.9738	-0.0066
847.1388	0.0013
847.3038	0.0353
847.4687	0.0104
847.6337	0.0531
847.7986	0.018
847.9635	-0.0043
848.1284	0.0107
848.2932	0.0224
848.458	0.0294
848.6228	-0.0142
848.7876	-0.0618
848.9524	0.0093
849.1172	-0.0216
849.2819	0.0313
849.4466	0.0098
849.6113	0.0256
849.7759	0.0017
849.9406	-0.0042
850.1052	0.0536
850.2698	0.0394
850.4344	0.028
850.599	-0.0286
850.7635	0.0563
850.928	-0.0104
851.0925	-0.0043
851.257	-0.0166
851.4215	0.0286
851.5859	0.0586
851.7503	0.0325
851.9147	-0.0105
852.0791	0.0127
852.2434	-0.0188
852.4078	0.0627
852.5721	0.008
852.7364	-0.0736
852.9007	0.0123
853.0649	-0.0174
853.2291	-0.0227
853.3934	-0.0047
853.5575	0.0081
853.7217	-0.0165
853.8859	0.0141
854.05	0.0055
854.2141	-0.0199
854.3782	0.0499
854.5423	-0.0041
854.7063	0.0336
854.8703	0.0136
855.0343	0.0478
855.1983	0.0163
855.3623	0.0229
855.5262	0.0085
855.6901	0.0113
855.854	0.0017
856.0179	0.0566
856.1818	0.053
856.3456	0.017
856.5094	-0.0122
856.6732	0.0037
856.837	0.0258
857.0008	0.032
857.1645	0.0222
857.3282	0.0044
857.4919	-0.0371
857.6556	0.0633
857.8192	0.0387
857.9828	0.0456
858.1465	0.0595
858.31	-0.0395
858.4736	-0.1226
858.6372	0.0012
858.8007	-0.0012
858.9642	-0.1116
859.1277	0.0445
859.2911	0.0506
859.4546	0.0678
859.618	0.0303
859.7814	0.0026
859.9448	-0.0016
860.1081	-0.0644
860.2715	0.0753
860.4348	-0.0137
860.5981	0.0476
860.7614	-0.078
860.9246	-0.0384
861.0879	-0.0715
861.2511	0.0133
861.4143	-0.1094
861.5774	-0.0268
861.7406	0.068
861.9037	-0.1509
862.0668	0.0178
862.2299	0.0097
862.393	-0.0081
862.556	0.0546
862.7191	-0.0203
862.8821	0.0176
863.0451	0.0913
863.208	-0.0501
863.371	0.1385
863.5339	-0.0616
863.6968	-0.0174
863.8597	0.0671
864.0225	-0.2315
864.1854	0.1144
864.3482	0.051
864.511	-0.0164
864.6737	-0.0881
864.8365	0.0346
864.9992	0.0535
865.1619	-0.0487
865.3246	-0.2194
865.4873	0.3102
865.65	0.0111
865.8126	0.1314
865.9752	-0.1056
866.1378	-0.0959
866.3004	0.0245
866.4629	-0.0563
866.6254	0.2702
866.7879	-0.0356
866.9504	0.0419
867.1129	0.1634
867.2753	0.1734
867.4377	0.0471
867.6001	-0.0686
867.7625	0.0245
867.9249	0.0884
868.0872	-0.0914
868.2495	-0.189
868.4118	0.0003
868.5741	-0.1699
868.7363	0.0578
868.8986	-0.1171
869.0608	0.1047
869.223	-0.0299
869.3851	0.1789
869.5473	-0.0878
869.7094	-0.1084
869.8715	0.0551
870.0336	-0.1901
870.1957	0.0322
870.3577	-0.1082
870.5197	-0.5212
870.6817	-0.1777
870.8437	-0.1093
871.0057	0.2738
871.1676	0.0785
871.3295	-0.2276
871.4914	0.1095
871.6533	0.0446
871.8151	-0.061
871.977	0.2783
872.1388	0.0975
872.3006	-0.1923
872.4623	0.1272
872.6241	0.1562
872.7858	0.0343
872.9475	-0.158
873.1092	-0.0856
873.2709	-0.1454
873.4325	-0.2581
873.5941	-0.1242
873.7557	-0.0939
873.9173	0.1931
874.0789	-0.1683
874.2404	-0.1804
874.4019	-0.1717
874.5634	-0.2291
874.7249	-0.0786
874.8863	-0.0163
875.0478	-0
875.2092	-0.3158
875.3706	-0.2127
875.5319	-0.0154
875.6933	0.2403
875.8546	-0.0725
876.0159	0.0762
876.1772	-0.2017
876.3385	-0.5469
876.4997	0.5752
876.6609	0.5063
876.8221	-0.0963
876.9833	-0.3267
877.1445	0.4369
877.3056	-0.0459
877.4667	-0.6812
877.6278	0.2645
877.7889	0.7787
877.9499	0.4801
878.111	0.6205
878.272	0.1555
878.433	0.5472
878.5939	0.005
878.7549	-0.33
878.9158	0.242
879.0767	-0.0702
879.2376	0.3863
879.3984	0.0978
879.5593	-0
879.7201	-0
879.8809	-0.0112
880.0417	-0.1686
880.2024	-0.0774
880.3632	-0.3129
880.5239	-0
880.6846	-0.2311
880.8452	0.1609
881.0059	-0.3372
881.1665	-0
881.3271	-0.3
881.4877	-0.0216
881.6483	-0.3083
881.8088	-0.1986
881.9693	0.1011
882.1298	0.1011
882.2903	0.1011
