Data from MonoPyChalIsomerACN10uM450nmA_Absorbance_13-11-22-891.txt Node
Date: Tue Jul 09 13:11:22 BST 2024
User: LASERRRRR
Spectrometer: FLMT03099
Trigger mode: 0
Integration Time (sec): 2.000000E-1
Scans to average: 1
Electric dark correction enabled: true
Nonlinearity correction enabled: false
Boxcar width: 0
XAxis mode: Wavelengths
Number of Pixels in Spectrum: 3648
>>>>>Begin Spectral Data<<<<<
179.3399	0.6101
179.5586	0.6101
179.7771	0.6101
179.9957	-0.1044
180.2143	0.0731
180.4329	-0
180.6514	-0
180.8699	-0
181.0885	-0.2166
181.307	-0
181.5255	-0.0743
181.744	-0
181.9625	0.0331
182.181	0.6756
182.3994	-0
182.6179	-0.0184
182.8363	-0.7936
183.0547	0.0519
183.2732	0.1606
183.4916	0.0708
183.71	-0.0019
183.9284	-0.0443
184.1467	0.1081
184.3651	0.0604
184.5835	0.1553
184.8018	-0
185.0201	0.2145
185.2385	0.0796
185.4568	-0.1051
185.6751	0.0192
185.8934	-0
186.1117	0.0145
186.3299	-0
186.5482	-0.005
186.7664	-0.0796
186.9847	0.0669
187.2029	0.1066
187.4211	0.0856
187.6393	0.0161
187.8575	0.1356
188.0757	0.0197
188.2939	0.0791
188.512	-0.0122
188.7302	0.0479
188.9483	0.0912
189.1665	0.1617
189.3846	0.1217
189.6027	0.303
189.8208	0.0691
190.0389	0.0948
190.257	0.2656
190.475	0.1606
190.6931	0.1347
190.9111	0.2118
191.1292	0.1816
191.3472	0.4089
191.5652	0.3467
191.7832	0.2956
192.0012	0.2119
192.2192	0.4233
192.4371	0.375
192.6551	0.3711
192.873	0.4171
193.091	0.401
193.3089	0.5717
193.5268	0.542
193.7447	0.5538
193.9626	0.4453
194.1805	0.4783
194.3984	0.5289
194.6162	0.5877
194.8341	0.6548
195.0519	0.6508
195.2697	0.541
195.4875	0.4922
195.7054	0.6525
195.9231	0.6199
196.1409	0.6695
196.3587	0.5707
196.5765	0.6241
196.7942	0.677
197.012	0.5768
197.2297	0.7455
197.4474	0.749
197.6651	0.6523
197.8828	0.693
198.1005	0.8219
198.3182	0.7262
198.5358	0.6934
198.7535	0.9245
198.9711	0.8785
199.1888	0.7563
199.4064	0.7483
199.624	0.7214
199.8416	0.8272
200.0592	0.7474
200.2767	0.7564
200.4943	0.7707
200.7119	0.8812
200.9294	0.9029
201.1469	0.8908
201.3645	0.7515
201.582	0.9692
201.7995	0.766
202.017	0.9618
202.2344	0.7582
202.4519	0.9358
202.6694	0.8178
202.8868	0.8527
203.1042	0.9914
203.3217	1.0724
203.5391	0.9665
203.7565	0.8761
203.9739	0.8081
204.1913	0.8004
204.4086	0.9451
204.626	1.0542
204.8433	0.9484
205.0607	0.9686
205.278	0.9712
205.4953	0.9621
205.7126	0.9024
205.9299	1.0408
206.1472	0.9823
206.3644	0.976
206.5817	0.9988
206.7989	0.9953
207.0162	1.0396
207.2334	0.9035
207.4506	0.9251
207.6678	1.0125
207.885	1.0439
208.1022	1.0108
208.3194	1.0338
208.5365	0.9575
208.7537	1.0228
208.9708	0.9742
209.1879	1.0546
209.405	1.0494
209.6222	1.0338
209.8392	1.1686
210.0563	1.0221
210.2734	1.0282
210.4905	1.0562
210.7075	0.9857
210.9245	1.0492
211.1416	1.1521
211.3586	1.0836
211.5756	1.1003
211.7926	1.017
212.0096	0.9982
212.2265	0.9657
212.4435	1.0238
212.6604	1.0165
212.8774	1.0586
213.0943	1.0123
213.3112	1.0168
213.5281	1.0882
213.745	0.9803
213.9619	0.9957
214.1788	0.9869
214.3956	0.9248
214.6125	0.9178
214.8293	0.8669
215.0461	0.8936
215.2629	0.898
215.4798	0.8652
215.6965	0.8441
215.9133	0.8682
216.1301	0.8223
216.3469	0.7825
216.5636	0.7988
216.7803	0.7675
216.9971	0.7781
217.2138	0.7024
217.4305	0.7107
217.6472	0.6517
217.8639	0.6355
218.0805	0.6443
218.2972	0.57
218.5138	0.5369
218.7305	0.5018
218.9471	0.4807
219.1637	0.4467
219.3803	0.4388
219.5969	0.389
219.8135	0.3857
220.0301	0.3631
220.2466	0.3388
220.4632	0.3311
220.6797	0.3339
220.8962	0.3275
221.1127	0.3093
221.3292	0.3096
221.5457	0.2748
221.7622	0.2824
221.9787	0.2795
222.1951	0.2791
222.4116	0.2791
222.628	0.282
222.8444	0.2716
223.0608	0.266
223.2772	0.2661
223.4936	0.2645
223.71	0.2614
223.9264	0.2681
224.1427	0.268
224.3591	0.2809
224.5754	0.2751
224.7917	0.2694
225.008	0.2828
225.2243	0.2606
225.4406	0.2763
225.6569	0.2689
225.8732	0.2948
226.0894	0.2769
226.3057	0.2794
226.5219	0.2963
226.7381	0.2864
226.9543	0.2777
227.1705	0.2886
227.3867	0.2922
227.6029	0.298
227.8191	0.3006
228.0352	0.3
228.2513	0.3045
228.4675	0.3096
228.6836	0.3232
228.8997	0.3117
229.1158	0.3247
229.3319	0.3228
229.548	0.3171
229.764	0.3222
229.9801	0.3241
230.1961	0.3393
230.4121	0.3279
230.6282	0.3485
230.8442	0.339
231.0602	0.3343
231.2761	0.3449
231.4921	0.3405
231.7081	0.3582
231.924	0.3521
232.14	0.3624
232.3559	0.3493
232.5718	0.3631
232.7877	0.3572
233.0036	0.3648
233.2195	0.3555
233.4353	0.3641
233.6512	0.3749
233.867	0.373
234.0829	0.38
234.2987	0.3903
234.5145	0.3721
234.7303	0.3878
234.9461	0.3897
235.1619	0.3926
235.3776	0.3833
235.5934	0.4005
235.8091	0.3945
236.0249	0.3873
236.2406	0.3849
236.4563	0.3861
236.672	0.3901
236.8877	0.4134
237.1034	0.4015
237.319	0.4072
237.5347	0.3957
237.7503	0.3993
237.966	0.4109
238.1816	0.4075
238.3972	0.4065
238.6128	0.417
238.8284	0.4054
239.0439	0.4148
239.2595	0.424
239.475	0.4237
239.6906	0.412
239.9061	0.4163
240.1216	0.4104
240.3371	0.431
240.5526	0.4246
240.7681	0.4046
240.9836	0.4093
241.199	0.4212
241.4145	0.3966
241.6299	0.4008
241.8453	0.3868
242.0607	0.3853
242.2761	0.3942
242.4915	0.3883
242.7069	0.3868
242.9223	0.3694
243.1376	0.3744
243.353	0.355
243.5683	0.3685
243.7836	0.3526
243.9989	0.3538
244.2142	0.3345
244.4295	0.3285
244.6448	0.3277
244.86	0.3235
245.0753	0.3037
245.2905	0.2932
245.5057	0.3046
245.721	0.2936
245.9362	0.2815
246.1514	0.2872
246.3665	0.2859
246.5817	0.273
246.7969	0.2739
247.012	0.2666
247.2271	0.2624
247.4423	0.2666
247.6574	0.2654
247.8725	0.2599
248.0876	0.2546
248.3026	0.2461
248.5177	0.2549
248.7328	0.242
248.9478	0.2418
249.1628	0.2324
249.3779	0.2297
249.5929	0.225
249.8079	0.2347
250.0228	0.2261
250.2378	0.2198
250.4528	0.2117
250.6677	0.216
250.8827	0.2045
251.0976	0.2108
251.3125	0.2268
251.5274	0.2072
251.7423	0.2062
251.9572	0.2085
252.172	0.2001
252.3869	0.2081
252.6017	0.2031
252.8166	0.2019
253.0314	0.2033
253.2462	0.2206
253.461	0.2016
253.6758	0.2014
253.8906	0.1989
254.1053	0.2089
254.3201	0.2015
254.5348	0.2002
254.7496	0.2063
254.9643	0.1961
255.179	0.2038
255.3937	0.2007
255.6083	0.1978
255.823	0.1985
256.0377	0.1951
256.2523	0.1945
256.467	0.193
256.6816	0.193
256.8962	0.1967
257.1108	0.1975
257.3254	0.1976
257.54	0.1961
257.7545	0.1943
257.9691	0.1917
258.1836	0.1957
258.3981	0.1905
258.6127	0.1948
258.8272	0.1949
259.0417	0.195
259.2561	0.1937
259.4706	0.1834
259.6851	0.1901
259.8995	0.1864
260.114	0.1893
260.3284	0.2025
260.5428	0.1859
260.7572	0.1979
260.9716	0.2046
261.186	0.196
261.4003	0.2067
261.6147	0.2065
261.829	0.199
262.0433	0.1962
262.2577	0.193
262.472	0.1845
262.6863	0.1909
262.9005	0.1999
263.1148	0.1952
263.3291	0.1832
263.5433	0.193
263.7576	0.1893
263.9718	0.1853
264.186	0.1861
264.4002	0.1826
264.6144	0.1875
264.8286	0.1759
265.0427	0.1777
265.2569	0.1818
265.471	0.1819
265.6851	0.1818
265.8993	0.1749
266.1134	0.1788
266.3275	0.1846
266.5415	0.1769
266.7556	0.1725
266.9697	0.1841
267.1837	0.1687
267.3978	0.1882
267.6118	0.1951
267.8258	0.1932
268.0398	0.1877
268.2538	0.1919
268.4677	0.189
268.6817	0.1957
268.8957	0.1941
269.1096	0.1864
269.3235	0.1833
269.5374	0.1796
269.7514	0.1647
269.9652	0.166
270.1791	0.1629
270.393	0.1646
270.6068	0.153
270.8207	0.1501
271.0345	0.1545
271.2483	0.1563
271.4622	0.1549
271.676	0.1458
271.8897	0.14
272.1035	0.1418
272.3173	0.1439
272.531	0.1471
272.7448	0.1444
272.9585	0.1439
273.1722	0.1366
273.3859	0.1432
273.5996	0.1336
273.8133	0.1447
274.0269	0.1431
274.2406	0.1369
274.4542	0.1378
274.6679	0.1402
274.8815	0.139
275.0951	0.149
275.3087	0.1375
275.5223	0.1359
275.7358	0.1401
275.9494	0.146
276.1629	0.1404
276.3765	0.1396
276.59	0.1511
276.8035	0.151
277.017	0.1428
277.2305	0.1461
277.444	0.1429
277.6574	0.1436
277.8709	0.1532
278.0843	0.151
278.2978	0.1477
278.5112	0.1453
278.7246	0.1429
278.938	0.1469
279.1513	0.1435
279.3647	0.1506
279.5781	0.1445
279.7914	0.1488
280.0047	0.1467
280.2181	0.1491
280.4314	0.1407
280.6447	0.1485
280.8579	0.1504
281.0712	0.154
281.2845	0.144
281.4977	0.1475
281.711	0.1452
281.9242	0.1511
282.1374	0.1437
282.3506	0.1503
282.5638	0.1519
282.7769	0.156
282.9901	0.1518
283.2033	0.1556
283.4164	0.1578
283.6295	0.1614
283.8426	0.1548
284.0557	0.1522
284.2688	0.1578
284.4819	0.1502
284.695	0.1565
284.908	0.1539
285.1211	0.1642
285.3341	0.1515
285.5471	0.1576
285.7601	0.1539
285.9731	0.1542
286.1861	0.1603
286.3991	0.1581
286.612	0.1546
286.825	0.1612
287.0379	0.162
287.2508	0.1497
287.4637	0.154
287.6766	0.1516
287.8895	0.1635
288.1024	0.1658
288.3152	0.1597
288.5281	0.1566
288.7409	0.1567
288.9538	0.1506
289.1666	0.1644
289.3794	0.165
289.5922	0.1602
289.8049	0.1628
290.0177	0.1645
290.2304	0.165
290.4432	0.1608
290.6559	0.1625
290.8686	0.1556
291.0813	0.1587
291.294	0.1651
291.5067	0.1685
291.7194	0.1641
291.932	0.1624
292.1447	0.1638
292.3573	0.1565
292.5699	0.1709
292.7825	0.1592
292.9951	0.1579
293.2077	0.1566
293.4203	0.1587
293.6328	0.1696
293.8454	0.1483
294.0579	0.1556
294.2704	0.1699
294.4829	0.1662
294.6954	0.1619
294.9079	0.1623
295.1204	0.163
295.3328	0.1593
295.5453	0.1559
295.7577	0.1532
295.9701	0.1585
296.1825	0.1562
296.3949	0.1567
296.6073	0.162
296.8197	0.1628
297.0321	0.162
297.2444	0.1564
297.4567	0.1515
297.6691	0.1627
297.8814	0.1579
298.0937	0.1578
298.306	0.1517
298.5182	0.1488
298.7305	0.1629
298.9428	0.1489
299.155	0.1542
299.3672	0.1596
299.5794	0.1619
299.7916	0.1596
300.0038	0.1566
300.216	0.1624
300.4282	0.1538
300.6403	0.157
300.8525	0.1613
301.0646	0.1543
301.2767	0.1574
301.4888	0.1549
301.7009	0.1601
301.913	0.1576
302.125	0.1531
302.3371	0.1603
302.5491	0.154
302.7612	0.1632
302.9732	0.1597
303.1852	0.1541
303.3972	0.1583
303.6092	0.1549
303.8211	0.1596
304.0331	0.1504
304.245	0.157
304.457	0.1559
304.6689	0.153
304.8808	0.1535
305.0927	0.1505
305.3046	0.1469
305.5164	0.1463
305.7283	0.1521
305.9401	0.1512
306.152	0.1527
306.3638	0.1561
306.5756	0.1434
306.7874	0.141
306.9992	0.1403
307.2109	0.1343
307.4227	0.1344
307.6344	0.1337
307.8462	0.1296
308.0579	0.1269
308.2696	0.1265
308.4813	0.1308
308.693	0.1314
308.9046	0.1256
309.1163	0.1266
309.328	0.1175
309.5396	0.123
309.7512	0.1269
309.9628	0.122
310.1744	0.1153
310.386	0.1063
310.5976	0.1197
310.8091	0.1167
311.0207	0.1099
311.2322	0.113
311.4437	0.1229
311.6552	0.114
311.8667	0.1091
312.0782	0.104
312.2897	0.1025
312.5012	0.1101
312.7126	0.1002
312.924	0.1035
313.1355	0.1066
313.3469	0.1096
313.5583	0.1069
313.7696	0.1022
313.981	0.0949
314.1924	0.0937
314.4037	0.1018
314.6151	0.092
314.8264	0.1005
315.0377	0.0953
315.249	0.1052
315.4603	0.0998
315.6716	0.108
315.8828	0.099
316.0941	0.0977
316.3053	0.0939
316.5165	0.0926
316.7277	0.097
316.9389	0.1013
317.1501	0.0896
317.3613	0.0917
317.5724	0.0991
317.7836	0.0906
317.9947	0.102
318.2058	0.0935
318.417	0.0911
318.6281	0.0932
318.8391	0.0964
319.0502	0.0846
319.2613	0.0968
319.4723	0.0954
319.6834	0.0935
319.8944	0.0953
320.1054	0.0984
320.3164	0.1012
320.5274	0.0997
320.7383	0.092
320.9493	0.0945
321.1602	0.097
321.3712	0.0986
321.5821	0.0944
321.793	0.0901
322.0039	0.0948
322.2148	0.0978
322.4257	0.0969
322.6365	0.0996
322.8474	0.0955
323.0582	0.1121
323.269	0.0966
323.4798	0.1003
323.6906	0.0989
323.9014	0.0932
324.1122	0.1083
324.3229	0.0984
324.5337	0.0935
324.7444	0.0999
324.9551	0.101
325.1658	0.1032
325.3765	0.0931
325.5872	0.1068
325.7979	0.1001
326.0085	0.1054
326.2192	0.0994
326.4298	0.1087
326.6404	0.1029
326.851	0.0969
327.0616	0.1
327.2722	0.1018
327.4828	0.0963
327.6933	0.101
327.9039	0.1034
328.1144	0.1006
328.3249	0.1045
328.5354	0.1014
328.7459	0.1026
328.9564	0.1002
329.1669	0.1034
329.3773	0.1048
329.5878	0.1026
329.7982	0.1081
330.0086	0.1075
330.219	0.0993
330.4294	0.1057
330.6398	0.107
330.8502	0.1026
331.0605	0.1059
331.2708	0.102
331.4812	0.1002
331.6915	0.0997
331.9018	0.0939
332.1121	0.1088
332.3224	0.102
332.5326	0.0969
332.7429	0.1075
332.9531	0.1023
333.1633	0.1071
333.3735	0.1057
333.5837	0.1099
333.7939	0.1024
334.0041	0.1077
334.2143	0.109
334.4244	0.0971
334.6346	0.1001
334.8447	0.1209
335.0548	0.1106
335.2649	0.098
335.475	0.107
335.685	0.1117
335.8951	0.1073
336.1051	0.1009
336.3152	0.106
336.5252	0.1061
336.7352	0.1082
336.9452	0.1063
337.1552	0.109
337.3652	0.1082
337.5751	0.108
337.7851	0.1036
337.995	0.1079
338.2049	0.1057
338.4148	0.1131
338.6247	0.1107
338.8346	0.11
339.0445	0.1144
339.2543	0.1127
339.4642	0.1096
339.674	0.1095
339.8838	0.1069
340.0936	0.1163
340.3034	0.1245
340.5132	0.116
340.7229	0.1152
340.9327	0.1136
341.1424	0.1215
341.3522	0.1091
341.5619	0.1221
341.7716	0.1208
341.9813	0.1216
342.1909	0.1222
342.4006	0.1156
342.6102	0.1184
342.8199	0.1241
343.0295	0.1226
343.2391	0.1157
343.4487	0.121
343.6583	0.1195
343.8679	0.1218
344.0774	0.125
344.287	0.1294
344.4965	0.115
344.706	0.1287
344.9155	0.1239
345.125	0.1337
345.3345	0.1304
345.544	0.1129
345.7534	0.1177
345.9629	0.1207
346.1723	0.1315
346.3817	0.133
346.5911	0.1324
346.8005	0.1243
347.0099	0.1185
347.2193	0.139
347.4286	0.1306
347.638	0.1368
347.8473	0.1251
348.0566	0.1352
348.2659	0.1214
348.4752	0.128
348.6845	0.1373
348.8937	0.1343
349.103	0.1289
349.3122	0.1387
349.5214	0.1391
349.7306	0.1309
349.9398	0.1289
350.149	0.132
350.3582	0.1312
350.5674	0.1399
350.7765	0.1363
350.9856	0.1416
351.1948	0.1392
351.4039	0.1392
351.613	0.1341
351.822	0.1386
352.0311	0.1379
352.2402	0.1427
352.4492	0.142
352.6582	0.1433
352.8672	0.1427
353.0762	0.1441
353.2852	0.1547
353.4942	0.1483
353.7032	0.142
353.9121	0.1493
354.1211	0.147
354.33	0.1394
354.5389	0.1432
354.7478	0.1542
354.9567	0.1434
355.1655	0.1477
355.3744	0.1538
355.5833	0.1512
355.7921	0.1503
356.0009	0.1515
356.2097	0.1551
356.4185	0.1429
356.6273	0.155
356.8361	0.151
357.0448	0.1616
357.2536	0.1602
357.4623	0.1548
357.671	0.1611
357.8797	0.1593
358.0884	0.1645
358.2971	0.1567
358.5057	0.1649
358.7144	0.1722
358.923	0.1718
359.1316	0.1686
359.3402	0.1712
359.5488	0.1676
359.7574	0.1721
359.966	0.169
360.1746	0.1695
360.3831	0.1779
360.5916	0.1826
360.8002	0.1769
361.0087	0.1702
361.2172	0.1709
361.4256	0.18
361.6341	0.1797
361.8426	0.1814
362.051	0.1679
362.2594	0.174
362.4678	0.1739
362.6762	0.1819
362.8846	0.1904
363.093	0.1899
363.3014	0.1774
363.5097	0.1844
363.718	0.1946
363.9264	0.1808
364.1347	0.1914
364.343	0.1878
364.5513	0.1919
364.7595	0.191
364.9678	0.1934
365.176	0.2008
365.3842	0.1916
365.5925	0.1931
365.8007	0.1824
366.0089	0.1873
366.217	0.2014
366.4252	0.1975
366.6333	0.194
366.8415	0.1937
367.0496	0.1991
367.2577	0.2045
367.4658	0.2029
367.6739	0.2024
367.882	0.2062
368.09	0.1968
368.2981	0.2136
368.5061	0.2007
368.7141	0.2145
368.9221	0.1934
369.1301	0.2129
369.3381	0.2146
369.5461	0.2037
369.754	0.2038
369.962	0.2034
370.1699	0.2084
370.3778	0.2145
370.5857	0.2131
370.7936	0.2168
371.0015	0.2195
371.2093	0.2147
371.4172	0.2128
371.625	0.2085
371.8328	0.2269
372.0406	0.2245
372.2484	0.2207
372.4562	0.2196
372.664	0.2193
372.8717	0.2189
373.0795	0.2137
373.2872	0.2251
373.4949	0.2033
373.7026	0.2139
373.9103	0.2273
374.118	0.2274
374.3256	0.2133
374.5333	0.2154
374.7409	0.2223
374.9485	0.2304
375.1561	0.2234
375.3637	0.2242
375.5713	0.229
375.7789	0.2266
375.9864	0.2217
376.194	0.2223
376.4015	0.239
376.609	0.2234
376.8165	0.227
377.024	0.2215
377.2315	0.2262
377.4389	0.2285
377.6464	0.2222
377.8538	0.2358
378.0612	0.229
378.2686	0.2331
378.476	0.2336
378.6834	0.2363
378.8908	0.2369
379.0981	0.2414
379.3055	0.2363
379.5128	0.2367
379.7201	0.2359
379.9274	0.2479
380.1347	0.2406
380.342	0.2463
380.5492	0.2422
380.7565	0.2397
380.9637	0.2526
381.1709	0.2388
381.3781	0.2354
381.5853	0.24
381.7925	0.2407
381.9997	0.2478
382.2068	0.2381
382.4139	0.2466
382.6211	0.2386
382.8282	0.2397
383.0353	0.2364
383.2424	0.2561
383.4494	0.2491
383.6565	0.2518
383.8635	0.2546
384.0706	0.2397
384.2776	0.2525
384.4846	0.2501
384.6916	0.2535
384.8986	0.2587
385.1055	0.2609
385.3125	0.2536
385.5194	0.2479
385.7263	0.2571
385.9333	0.2542
386.1402	0.246
386.347	0.2538
386.5539	0.2577
386.7608	0.2462
386.9676	0.2538
387.1744	0.2551
387.3813	0.2483
387.5881	0.2481
387.7948	0.2507
388.0016	0.2426
388.2084	0.2648
388.4151	0.2384
388.6219	0.2479
388.8286	0.26
389.0353	0.241
389.242	0.2403
389.4487	0.2443
389.6553	0.2374
389.862	0.2367
390.0686	0.2294
390.2753	0.2403
390.4819	0.2414
390.6885	0.239
390.8951	0.2501
391.1016	0.2425
391.3082	0.2371
391.5147	0.2357
391.7213	0.2348
391.9278	0.2353
392.1343	0.2331
392.3408	0.2333
392.5473	0.2322
392.7537	0.2425
392.9602	0.2187
393.1666	0.2309
393.373	0.2262
393.5794	0.2304
393.7858	0.2239
393.9922	0.2175
394.1986	0.2195
394.4049	0.2263
394.6113	0.224
394.8176	0.2132
395.0239	0.2151
395.2302	0.2068
395.4365	0.2218
395.6428	0.2176
395.8491	0.2169
396.0553	0.2092
396.2615	0.2117
396.4678	0.2218
396.674	0.2093
396.8802	0.207
397.0863	0.2129
397.2925	0.203
397.4987	0.2141
397.7048	0.2057
397.9109	0.2111
398.117	0.2144
398.3231	0.207
398.5292	0.2094
398.7353	0.2121
398.9413	0.2126
399.1474	0.2126
399.3534	0.2069
399.5594	0.2111
399.7654	0.2107
399.9714	0.2106
400.1774	0.2095
400.3833	0.2016
400.5893	0.2093
400.7952	0.1969
401.0011	0.2121
401.207	0.2106
401.4129	0.1937
401.6188	0.1974
401.8247	0.2036
402.0305	0.1988
402.2364	0.2131
402.4422	0.2065
402.648	0.2242
402.8538	0.2041
403.0596	0.2044
403.2654	0.2052
403.4711	0.206
403.6768	0.2096
403.8826	0.2062
404.0883	0.2079
404.294	0.2064
404.4997	0.2123
404.7054	0.2075
404.911	0.2196
405.1167	0.2113
405.3223	0.205
405.5279	0.2067
405.7335	0.2102
405.9391	0.2057
406.1447	0.2059
406.3502	0.194
406.5558	0.2067
406.7613	0.2044
406.9668	0.2015
407.1724	0.2096
407.3778	0.2095
407.5833	0.2004
407.7888	0.2078
407.9942	0.2022
408.1997	0.2081
408.4051	0.2042
408.6105	0.2097
408.8159	0.2176
409.0213	0.21
409.2267	0.2044
409.432	0.2133
409.6374	0.2134
409.8427	0.213
410.048	0.2071
410.2533	0.1943
410.4586	0.1975
410.6639	0.1969
410.8691	0.2015
411.0744	0.2036
411.2796	0.2055
411.4848	0.1933
411.69	0.2144
411.8952	0.1897
412.1004	0.2089
412.3056	0.2122
412.5107	0.2099
412.7158	0.2086
412.921	0.1978
413.1261	0.1937
413.3312	0.219
413.5362	0.1978
413.7413	0.201
413.9464	0.1851
414.1514	0.1944
414.3564	0.205
414.5614	0.1973
414.7664	0.2125
414.9714	0.197
415.1764	0.1919
415.3813	0.1969
415.5863	0.1993
415.7912	0.2061
415.9961	0.2081
416.201	0.2062
416.4059	0.1927
416.6108	0.2075
416.8156	0.1968
417.0205	0.1994
417.2253	0.2094
417.4301	0.1933
417.6349	0.1982
417.8397	0.1897
418.0445	0.2012
418.2492	0.1907
418.454	0.1961
418.6587	0.1953
418.8634	0.1858
419.0681	0.1995
419.2728	0.204
419.4775	0.196
419.6822	0.1922
419.8868	0.1874
420.0915	0.1851
420.2961	0.1945
420.5007	0.1926
420.7053	0.1867
420.9099	0.1802
421.1144	0.1868
421.319	0.1883
421.5235	0.1929
421.728	0.185
421.9325	0.1821
422.137	0.1743
422.3415	0.187
422.546	0.1819
422.7504	0.1706
422.9549	0.1885
423.1593	0.1785
423.3637	0.1758
423.5681	0.185
423.7725	0.1742
423.9769	0.1893
424.1812	0.1728
424.3856	0.1706
424.5899	0.1793
424.7942	0.1765
424.9985	0.174
425.2028	0.1578
425.4071	0.1725
425.6113	0.175
425.8156	0.1653
426.0198	0.1935
426.224	0.1558
426.4282	0.1617
426.6324	0.1706
426.8366	0.1558
427.0407	0.1661
427.2449	0.1689
427.449	0.1531
427.6531	0.1626
427.8572	0.1613
428.0613	0.1419
428.2654	0.1511
428.4694	0.156
428.6735	0.1638
428.8775	0.1554
429.0815	0.1589
429.2855	0.1519
429.4895	0.1525
429.6935	0.153
429.8975	0.1435
430.1014	0.1477
430.3053	0.1427
430.5093	0.143
430.7132	0.1441
430.9171	0.1422
431.1209	0.1366
431.3248	0.1348
431.5286	0.1291
431.7325	0.1366
431.9363	0.1468
432.1401	0.1355
432.3439	0.1252
432.5477	0.1284
432.7514	0.1339
432.9552	0.1241
433.1589	0.1215
433.3627	0.1232
433.5664	0.1158
433.7701	0.1239
433.9737	0.0924
434.1774	0.1078
434.3811	0.1058
434.5847	0.1157
434.7883	0.1027
434.9919	0.105
435.1955	0.0953
435.3991	0.1022
435.6027	0.0965
435.8062	0.1001
436.0098	0.104
436.2133	0.0943
436.4168	0.0922
436.6203	0.1008
436.8238	0.0978
437.0272	0.0987
437.2307	0.094
437.4341	0.0915
437.6375	0.0932
437.841	0.0924
438.0443	0.0816
438.2477	0.0808
438.4511	0.0884
438.6545	0.077
438.8578	0.0854
439.0611	0.0807
439.2644	0.0876
439.4677	0.0868
439.671	0.0758
439.8743	0.0734
440.0775	0.0652
440.2808	0.0647
440.484	0.0822
440.6872	0.0678
440.8904	0.0604
441.0936	0.0626
441.2967	0.0595
441.4999	0.0633
441.703	0.0643
441.9062	0.0652
442.1093	0.055
442.3124	0.0604
442.5155	0.0556
442.7185	0.0402
442.9216	0.0566
443.1246	0.0502
443.3276	0.0614
443.5307	0.0436
443.7337	0.0552
443.9366	0.0513
444.1396	0.044
444.3426	0.0428
444.5455	0.0443
444.7484	0.0472
444.9513	0.0537
445.1542	0.0494
445.3571	0.0343
445.56	0.0454
445.7628	0.0356
445.9657	0.0494
446.1685	0.0346
446.3713	0.0381
446.5741	0.04
446.7769	0.0402
446.9797	0.0363
447.1824	0.0262
447.3852	0.0296
447.5879	0.0407
447.7906	0.0271
447.9933	0.0293
448.196	0.034
448.3986	0.0302
448.6013	0.0281
448.8039	0.0313
449.0066	0.0287
449.2092	0.0282
449.4118	0.028
449.6143	0.0224
449.8169	0.0216
450.0195	0.0201
450.222	0.0114
450.4245	0.0204
450.627	0.0266
450.8295	0.0279
451.032	0.0266
451.2345	0.0164
451.4369	0.0295
451.6394	0.013
451.8418	0.0231
452.0442	0.0185
452.2466	0.025
452.449	0.0232
452.6513	0.0188
452.8537	0.0254
453.056	0.0123
453.2583	0.0141
453.4607	0.0146
453.663	0.0221
453.8652	0.0138
454.0675	0.0145
454.2697	0.0165
454.472	0.0232
454.6742	0.0081
454.8764	0.0139
455.0786	0.0134
455.2808	0.0153
455.4829	0.0042
455.6851	0.0073
455.8872	0.0082
456.0893	0.007
456.2915	0.011
456.4935	0.0134
456.6956	0.0052
456.8977	0.0107
457.0997	-0.0002
457.3018	0.0148
457.5038	0.005
457.7058	0.0021
457.9078	0.0063
458.1098	0.0014
458.3117	0.0079
458.5137	0.0097
458.7156	0.009
458.9175	-0.0021
459.1194	-0.0017
459.3213	0.0152
459.5232	0.0068
459.725	0.0051
459.9269	0.0066
460.1287	-0.0019
460.3305	-0.0048
460.5323	0.006
460.7341	0.0025
460.9359	-0.0034
461.1376	-0.0004
461.3394	-0.0015
461.5411	0.0006
461.7428	-0.0071
461.9445	0.008
462.1462	0.0014
462.3479	-0.0028
462.5495	0.0109
462.7512	-0.001
462.9528	-0.0001
463.1544	0.0007
463.356	0.0015
463.5576	-0.0096
463.7592	-0.0097
463.9607	-0.0004
464.1623	0.0066
464.3638	0.0024
464.5653	0.0023
464.7668	-0.0022
464.9683	0.0128
465.1697	-0.0063
465.3712	-0.0045
465.5726	0.0037
465.7741	-0.0042
465.9755	-0.0011
466.1769	-0.0155
466.3782	-0.0046
466.5796	-0.0184
466.7809	-0.0051
466.9823	-0.0106
467.1836	0.0017
467.3849	-0.0035
467.5862	-0.0136
467.7875	-0.009
467.9887	0.0006
468.19	-0.0149
468.3912	-0.0098
468.5924	-0.0063
468.7936	-0.0095
468.9948	0.0062
469.196	-0.0081
469.3972	0.0013
469.5983	0.0084
469.7994	-0.007
470.0006	-0.0062
470.2017	-0.0011
470.4027	-0.0018
470.6038	-0.0087
470.8049	-0.0043
471.0059	0.0022
471.2069	0.0068
471.408	-0.0039
471.6089	-0.0013
471.8099	-0.0027
472.0109	-0.0083
472.2119	-0.0081
472.4128	-0.0026
472.6137	-0.0185
472.8146	-0.0119
473.0155	-0.0118
473.2164	-0.0171
473.4173	-0.0121
473.6181	-0.006
473.819	-0.0094
474.0198	-0.0065
474.2206	0.001
474.4214	-0.0035
474.6222	-0.0036
474.8229	-0.0108
475.0237	-0.0015
475.2244	0.0001
475.4251	-0.0065
475.6258	0.0036
475.8265	-0.0091
476.0272	-0.0114
476.2278	-0.0047
476.4285	-0.0032
476.6291	-0.0082
476.8297	-0.011
477.0303	-0.0038
477.2309	-0.0061
477.4315	-0.0015
477.632	-0.015
477.8326	-0.0033
478.0331	-0.0114
478.2336	-0.005
478.4341	-0.0137
478.6346	0.0041
478.8351	-0.0028
479.0355	-0.0032
479.236	-0.0078
479.4364	-0.004
479.6368	0.0001
479.8372	-0.0026
480.0376	-0.0102
480.2379	-0.0072
480.4383	0.0002
480.6386	-0.0163
480.8389	-0.0041
481.0392	-0.0129
481.2395	-0.012
481.4398	0.0027
481.6401	-0.0083
481.8403	-0.0081
482.0405	-0.0132
482.2408	-0.0028
482.441	-0.0079
482.6411	0.003
482.8413	-0.0074
483.0415	-0.0048
483.2416	0.0019
483.4417	-0.0073
483.6419	-0.0019
483.8419	-0.011
484.042	-0.0043
484.2421	-0.0083
484.4422	-0.0039
484.6422	-0.0104
484.8422	-0.011
485.0422	-0.0074
485.2422	-0.0044
485.4422	-0.0125
485.6422	-0.0069
485.8421	-0.0098
486.042	-0.002
486.242	-0.0041
486.4419	-0.0048
486.6417	-0.0034
486.8416	-0.0033
487.0415	-0.0078
487.2413	-0.0032
487.4411	0.001
487.641	0.0008
487.8408	-0.0072
488.0405	-0.0117
488.2403	-0.0075
488.4401	-0.0069
488.6398	-0.0146
488.8395	-0.0111
489.0392	-0.0074
489.2389	-0.0101
489.4386	-0.0057
489.6383	-0.0089
489.8379	-0.0104
490.0376	-0.0072
490.2372	-0.0022
490.4368	-0.0122
490.6364	-0.0036
490.836	-0.0052
491.0355	-0.0049
491.2351	-0.0026
491.4346	-0.0069
491.6341	-0.0094
491.8336	-0.0078
492.0331	-0.0123
492.2326	-0.0148
492.432	-0.0066
492.6315	-0.0083
492.8309	0
493.0303	-0.0041
493.2297	-0.0068
493.4291	-0.0111
493.6284	-0.0005
493.8278	-0.0037
494.0271	0.0001
494.2264	-0.0062
494.4257	-0.0049
494.625	-0.0074
494.8243	-0.0077
495.0236	-0.0137
495.2228	-0.0096
495.422	-0.0099
495.6213	-0.0044
495.8205	-0.0033
496.0196	-0.0049
496.2188	0.0003
496.418	-0.0017
496.6171	-0.0072
496.8162	-0.0056
497.0153	-0.0049
497.2144	-0.0013
497.4135	-0.0073
497.6126	-0.0046
497.8116	-0.002
498.0107	-0.0005
498.2097	-0.0063
498.4087	-0.0112
498.6077	-0.0041
498.8067	-0.012
499.0056	-0.0029
499.2046	-0.007
499.4035	-0.0106
499.6024	-0.0019
499.8013	-0.0012
500.0002	-0.0093
500.199	-0.0085
500.3979	-0
500.5967	-0.0091
500.7956	-0.0107
500.9944	-0.0075
501.1932	-0.0032
501.3919	-0.0152
501.5907	-0.0032
501.7895	-0.0018
501.9882	-0.0144
502.1869	-0.0032
502.3856	-0.0025
502.5843	-0.0114
502.783	-0.0071
502.9816	-0.0061
503.1803	-0.0075
503.3789	-0.0037
503.5775	-0.0024
503.7761	-0.008
503.9747	-0.0098
504.1732	-0.0073
504.3718	-0.0017
504.5703	-0.0063
504.7689	-0.0014
504.9674	-0.0013
505.1658	-0.0109
505.3643	-0.0049
505.5628	0.0025
505.7612	-0.0106
505.9597	-0.0096
506.1581	-0.0019
506.3565	-0.0061
506.5549	-0.0073
506.7532	-0.0076
506.9516	0.0015
507.1499	0.0007
507.3482	-0.004
507.5465	0.0002
507.7448	-0.0086
507.9431	-0.0049
508.1414	-0.0089
508.3396	-0.0022
508.5379	-0.0045
508.7361	0.0028
508.9343	-0.004
509.1325	-0.0019
509.3306	0.0016
509.5288	-0.0032
509.7269	-0.0103
509.9251	-0.0031
510.1232	-0.0058
510.3213	-0.016
510.5193	-0.0015
510.7174	0.0017
510.9154	-0.0067
511.1135	-0.0087
511.3115	-0.0128
511.5095	-0.006
511.7075	-0.0039
511.9055	-0.0089
512.1034	-0.0059
512.3014	-0.0023
512.4993	-0.0061
512.6972	-0.0053
512.8951	-0.0105
513.093	-0.0131
513.2908	-0.0002
513.4887	-0.0028
513.6865	-0.0055
513.8844	-0.0037
514.0822	-0.0056
514.2799	-0.0128
514.4777	-0.0004
514.6755	-0.0045
514.8732	-0.0134
515.0709	-0.0071
515.2687	-0.0099
515.4664	-0.0057
515.664	-0.0082
515.8617	-0.0096
516.0594	-0.0037
516.257	-0.0013
516.4546	-0.0165
516.6522	-0.0053
516.8498	-0.0125
517.0474	0.0015
517.2449	-0.0154
517.4425	-0.0031
517.64	-0.0013
517.8375	-0.0029
518.035	-0.0056
518.2325	-0.0041
518.43	0.004
518.6274	-0.0094
518.8249	-0.0111
519.0223	-0.0096
519.2197	-0.0093
519.4171	-0.0042
519.6145	-0.0029
519.8118	-0.0135
520.0092	-0.0052
520.2065	-0.0105
520.4038	-0.0107
520.6011	-0.0121
520.7984	-0.0106
520.9956	-0.0143
521.1929	-0.0076
521.3901	-0.0053
521.5874	-0.0027
521.7846	0.0023
521.9818	-0.007
522.1789	-0.0062
522.3761	-0.0102
522.5732	-0.0014
522.7704	-0.0106
522.9675	-0.0067
523.1646	-0.0008
523.3617	-0.0108
523.5587	-0.0061
523.7558	-0.0033
523.9528	-0.006
524.1498	-0.0054
524.3468	-0.0018
524.5438	-0.0054
524.7408	-0.0119
524.9378	-0.0037
525.1347	0.0011
525.3316	-0.0065
525.5285	-0.0074
525.7254	-0.0078
525.9223	0.0017
526.1192	-0.004
526.316	-0.0031
526.5129	-0.01
526.7097	-0.0078
526.9065	0.0024
527.1033	0.0016
527.3	-0.0103
527.4968	-0.0101
527.6935	-0.0053
527.8903	-0.0032
528.087	-0.0074
528.2837	-0.0008
528.4804	-0.0039
528.677	-0.0108
528.8737	-0.0125
529.0703	-0.0008
529.2669	-0.0024
529.4635	-0.0076
529.6601	-0.0013
529.8567	-0.0093
530.0532	-0.0002
530.2498	-0.0099
530.4463	-0.004
530.6428	-0.004
530.8393	0.0001
531.0358	-0.0133
531.2322	-0.0091
531.4287	-0.0098
531.6251	-0.0085
531.8215	-0.0005
532.0179	-0.0058
532.2143	-0.0047
532.4107	-0.0041
532.607	-0.0132
532.8034	-0.0068
532.9997	-0.0063
533.196	-0.0095
533.3923	-0.0038
533.5886	-0.0011
533.7848	-0.0009
533.9811	-0.0038
534.1773	-0.0165
534.3735	-0.0053
534.5697	-0.0042
534.7659	-0.0076
534.9621	-0.0026
535.1582	-0.0056
535.3544	-0.0059
535.5505	-0.0027
535.7466	-0.0027
535.9427	0.0015
536.1387	-0.0023
536.3348	-0.0024
536.5308	-0.0047
536.7269	-0.0029
536.9229	-0.004
537.1189	-0.0085
537.3148	-0.0057
537.5108	0.0003
537.7068	-0.0072
537.9027	-0.0092
538.0986	0.002
538.2945	-0.0018
538.4904	-0.0075
538.6863	-0.0053
538.8821	-0.0003
539.078	-0.0109
539.2738	-0.0149
539.4696	-0.0113
539.6654	-0.0054
539.8611	-0.0089
540.0569	-0.0033
540.2526	-0.0037
540.4484	0.0077
540.6441	-0.0062
540.8398	-0.0057
541.0355	-0.0036
541.2311	-0.004
541.4268	0.0013
541.6224	-0.0052
541.818	-0.0079
542.0136	-0.0046
542.2092	-0.0053
542.4048	-0.0078
542.6003	0.0003
542.7959	-0.0003
542.9914	-0.0055
543.1869	-0.0075
543.3824	-0.0075
543.5779	-0.0132
543.7734	-0.0133
543.9688	-0.0128
544.1642	-0.0116
544.3596	-0.004
544.555	-0.0022
544.7504	-0.0093
544.9458	0.0017
545.1411	0.0054
545.3365	-0.0087
545.5318	-0.0003
545.7271	0.0033
545.9224	0.0022
546.1177	-0.0111
546.3129	-0.0013
546.5081	-0.007
546.7034	-0.0053
546.8986	-0.0058
547.0938	-0.0005
547.289	-0.006
547.4841	-0.0105
547.6793	-0.0106
547.8744	-0
548.0695	-0.0101
548.2646	-0.0095
548.4597	0.0026
548.6548	-0.003
548.8498	-0.0084
549.0448	0.0004
549.2399	-0.0047
549.4349	-0.0065
549.6298	-0.0047
549.8248	-0.0044
550.0198	0.002
550.2147	-0.0007
550.4096	-0.0088
550.6045	-0.005
550.7994	-0.0037
550.9943	-0.0031
551.1892	-0.0082
551.384	-0.0121
551.5788	-0.0111
551.7737	-0.0083
551.9685	-0.0048
552.1632	-0.0061
552.358	-0.0137
552.5528	-0.0045
552.7475	-0.0024
552.9422	-0.0033
553.1369	-0.007
553.3316	-0.0017
553.5263	-0.0063
553.7209	-0.0057
553.9156	-0.0034
554.1102	-0.0135
554.3048	-0.0057
554.4994	-0.0032
554.694	-0.0048
554.8885	-0.0043
555.0831	-0.0027
555.2776	-0.0036
555.4721	-0.0026
555.6666	-0.0121
555.8611	-0.0061
556.0555	-0.0077
556.25	-0.0042
556.4444	-0.004
556.6388	-0.0118
556.8332	-0.0046
557.0276	-0.0085
557.222	-0.0042
557.4163	-0.0004
557.6107	-0.0079
557.805	-0.0053
557.9993	-0.0032
558.1936	-0.0037
558.3879	-0.0014
558.5821	-0.009
558.7764	-0.0071
558.9706	-0.0016
559.1648	-0.0016
559.359	-0.0093
559.5532	-0.0052
559.7473	-0.0085
559.9415	-0.0064
560.1356	-0.0084
560.3297	-0.0086
560.5238	-0.0113
560.7179	-0.0106
560.9119	-0.0021
561.106	-0.0039
561.3	-0.0035
561.494	-0.0083
561.688	-0.003
561.882	-0.0027
562.076	-0.0058
562.2699	-0.0087
562.4639	-0.0078
562.6578	-0.0114
562.8517	-0.0039
563.0456	-0.004
563.2395	-0.004
563.4333	-0.0052
563.6272	-0.0086
563.821	-0.0068
564.0148	-0.0014
564.2086	-0.0026
564.4024	-0.0043
564.5961	-0.0035
564.7899	-0.0019
564.9836	0.0001
565.1773	-0.0047
565.371	-0.0039
565.5647	-0.0008
565.7584	0.0028
565.952	0.0039
566.1456	-0.0028
566.3393	-0.0094
566.5329	-0.0064
566.7264	0.0004
566.92	-0.0022
567.1136	-0.0076
567.3071	-0.005
567.5006	-0.0041
567.6941	-0.0016
567.8876	-0.0076
568.0811	-0.004
568.2745	-0.0054
568.468	-0.0082
568.6614	-0.0052
568.8548	-0.0091
569.0482	-0.0038
569.2416	-0.0017
569.4349	0.001
569.6283	-0.0084
569.8216	-0.0094
570.0149	-0.0051
570.2082	-0.0031
570.4015	-0.0022
570.5947	-0.001
570.788	-0.0062
570.9812	-0.0037
571.1744	-0.0065
571.3676	-0.0048
571.5608	-0.0029
571.754	-0.0052
571.9471	-0.0082
572.1402	-0.0061
572.3333	-0.0018
572.5264	-0.0023
572.7195	-0.0021
572.9126	-0.0026
573.1057	-0.0053
573.2987	-0.0002
573.4917	-0.0097
573.6847	-0.0033
573.8777	-0.0077
574.0707	-0.0005
574.2636	-0.0029
574.4566	-0.0086
574.6495	-0.0037
574.8424	-0.0028
575.0353	-0.0039
575.2281	-0.0039
575.421	-0.0085
575.6138	-0.0022
575.8067	-0.0019
575.9995	0.0006
576.1923	-0.0058
576.385	0
576.5778	-0.0033
576.7706	0.0012
576.9633	-0.0055
577.156	-0.0014
577.3487	-0.0011
577.5414	0.0027
577.734	0.0014
577.9267	0.0017
578.1193	-0.0079
578.3119	-0.0018
578.5045	-0.0031
578.6971	-0.0032
578.8897	-0.0065
579.0822	-0.005
579.2747	0.0036
579.4673	-0.0021
579.6598	-0.0008
579.8522	-0.0026
580.0447	-0.0016
580.2372	0.0017
580.4296	0.0042
580.622	0.0008
580.8144	-0.0052
581.0068	0.0008
581.1992	0.0028
581.3915	-0.0026
581.5839	-0.0047
581.7762	-0.0044
581.9685	-0.0016
582.1608	-0.0027
582.353	0.0032
582.5453	-0.0053
582.7375	-0.0006
582.9298	-0.0059
583.122	0.0041
583.3142	-0.0031
583.5063	-0.0054
583.6985	-0.0048
583.8906	-0.0052
584.0827	-0.0075
584.2749	-0.0096
584.4669	-0.0036
584.659	-0.005
584.8511	-0.0029
585.0431	-0.004
585.2352	-0.0086
585.4272	-0.0042
585.6192	-0.0022
585.8111	-0.0046
586.0031	-0.0006
586.195	-0.0036
586.387	-0.0012
586.5789	-0.0028
586.7708	-0.0067
586.9627	-0.0037
587.1545	-0.0055
587.3464	-0.005
587.5382	-0.0051
587.73	-0.0049
587.9218	-0.0034
588.1136	-0.0024
588.3053	-0.0017
588.4971	-0.01
588.6888	-0.0018
588.8805	-0.0029
589.0722	-0.0011
589.2639	-0.0025
589.4556	-0.0031
589.6472	0.0008
589.8389	-0.0023
590.0305	-0.0031
590.2221	-0.0025
590.4137	-0.0062
590.6052	-0.0066
590.7968	-0.003
590.9883	-0.0037
591.1798	-0.0054
591.3713	0.0038
591.5628	-0.0084
591.7543	-0.0046
591.9458	-0.0038
592.1372	-0.0004
592.3286	-0.0038
592.52	-0.0063
592.7114	0.0065
592.9028	-0.0083
593.0941	-0.0017
593.2855	0.0022
593.4768	-0.0053
593.6681	0.0008
593.8594	-0.0006
594.0506	0.0033
594.2419	0.0046
594.4331	-0.0088
594.6244	-0.0078
594.8156	-0.0078
595.0067	-0.0045
595.1979	-0
595.3891	-0.0087
595.5802	-0.0052
595.7713	-0.0039
595.9624	0.0026
596.1535	0.0016
596.3446	-0.0006
596.5357	-0.0038
596.7267	-0.0076
596.9177	0.0068
597.1087	-0.0053
597.2997	-0.0012
597.4907	-0.0037
597.6817	-0.0041
597.8726	-0.0017
598.0635	-0.006
598.2544	-0.0047
598.4453	-0.0047
598.6362	-0.0048
598.827	-0.0071
599.0179	-0.0034
599.2087	-0.0085
599.3995	-0.0071
599.5903	-0.0029
599.7811	-0.004
599.9718	-0.0035
600.1626	0.0003
600.3533	-0.0033
600.544	-0.0036
600.7347	0.0024
600.9254	0.0003
601.116	-0.0065
601.3067	-0.0008
601.4973	-0.0072
601.6879	0.0013
601.8785	-0.0018
602.0691	-0.0049
602.2596	-0.005
602.4502	-0.007
602.6407	0.0002
602.8312	-0.0035
603.0217	-0.0033
603.2122	-0.0051
603.4027	0.0008
603.5931	-0.0044
603.7835	-0.0016
603.9739	-0.0055
604.1643	-0.0043
604.3547	-0.0003
604.5451	-0.0085
604.7354	-0.0007
604.9257	-0.0071
605.116	-0.0052
605.3063	-0.0034
605.4966	0.0003
605.6869	-0.0077
605.8771	-0.0013
606.0673	-0.0072
606.2575	-0.0049
606.4477	-0.0047
606.6379	-0.0082
606.8281	-0.0099
607.0182	-0.0092
607.2083	-0.0024
607.3985	-0.0137
607.5885	-0.0037
607.7786	-0.0062
607.9687	-0.0052
608.1587	-0.0022
608.3488	-0.0029
608.5388	-0.0018
608.7288	-0.0063
608.9187	-0.0029
609.1087	-0.0054
609.2986	-0.002
609.4886	-0.0038
609.6785	0.001
609.8684	-0.0043
610.0582	-0.0032
610.2481	-0.0035
610.4379	-0.0023
610.6278	0.0008
610.8176	0.0039
611.0074	-0.0035
611.1971	-0.0005
611.3869	-0.0023
611.5766	-0.003
611.7664	-0.0005
611.9561	-0.0012
612.1458	-0.0015
612.3354	-0.0033
612.5251	-0.0089
612.7147	-0.0016
612.9044	-0.0046
613.094	-0.0016
613.2836	-0.0054
613.4731	-0.0047
613.6627	-0.0083
613.8522	-0.003
614.0417	-0.0042
614.2313	-0.0076
614.4207	-0.0032
614.6102	0.0016
614.7997	-0.0008
614.9891	-0.0066
615.1785	-0.0038
615.3679	-0.0013
615.5573	-0.0036
615.7467	-0.0035
615.9361	-0.0046
616.1254	-0.0073
616.3147	-0.0044
616.504	-0.0069
616.6933	-0.0037
616.8826	-0.0065
617.0718	-0.006
617.2611	0.0002
617.4503	0.0014
617.6395	-0.0032
617.8287	-0.0017
618.0179	0.004
618.207	-0.007
618.3961	-0.001
618.5853	-0.0064
618.7744	-0.0028
618.9634	0.0021
619.1525	-0.0104
619.3416	-0.0067
619.5306	-0.0047
619.7196	0.0006
619.9086	-0.0025
620.0976	0.0018
620.2866	-0.0002
620.4755	-0.0026
620.6645	-0.003
620.8534	0.0019
621.0423	-0.0099
621.2312	-0.0083
621.42	-0.0028
621.6089	-0.0054
621.7977	-0.0026
621.9865	0.0008
622.1753	0.0001
622.3641	0.002
622.5529	0.0012
622.7416	-0.0027
622.9303	0.0051
623.1191	-0.0027
623.3078	-0.0031
623.4964	-0.0047
623.6851	-0.001
623.8737	0.0016
624.0624	0.001
624.251	-0.0013
624.4396	-0.0002
624.6282	-0.0003
624.8167	0.0034
625.0053	0.0003
625.1938	0.0041
625.3823	0.0008
625.5708	-0.0009
625.7593	-0.0026
625.9477	-0.0093
626.1362	-0.0097
626.3246	-0.0055
626.513	-0.005
626.7014	-0.0085
626.8898	-0.0029
627.0781	-0.0032
627.2665	-0.0029
627.4548	-0.0081
627.6431	-0.0052
627.8314	-0.0042
628.0197	-0.0019
628.2079	-0.0013
628.3962	0.0039
628.5844	-0.0005
628.7726	-0.0003
628.9608	0.0019
629.1489	0.002
629.3371	0.001
629.5252	0.0014
629.7134	-0.0016
629.9015	0.0015
630.0895	-0.0017
630.2776	-0.0049
630.4657	0.0006
630.6537	-0.0021
630.8417	-0.0008
631.0297	-0.0025
631.2177	0.0001
631.4057	0.0053
631.5936	0.0012
631.7815	-0.0026
631.9695	-0.0046
632.1574	-0.0071
632.3452	-0.0081
632.5331	-0.0065
632.7209	-0.0073
632.9088	-0.0071
633.0966	-0.0068
633.2844	-0.0058
633.4722	-0.0021
633.6599	-0.0035
633.8477	-0.0008
634.0354	-0.0027
634.2231	-0.0079
634.4108	-0.0037
634.5985	-0.0032
634.7861	-0.0098
634.9738	-0.0033
635.1614	-0.0069
635.349	-0.0025
635.5366	-0.0016
635.7242	-0.0006
635.9117	0.0043
636.0993	-0.0069
636.2868	0.0012
636.4743	-0.0037
636.6618	-0.0127
636.8492	-0.005
637.0367	-0.0011
637.2241	-0.0031
637.4115	-0.0062
637.5989	-0.0039
637.7863	-0.0015
637.9737	-0.0077
638.161	-0.004
638.3484	-0.0071
638.5357	-0.0003
638.723	-0.003
638.9103	0.0022
639.0975	0.001
639.2848	-0.0018
639.472	0.0018
639.6592	0.0044
639.8464	-0.0023
640.0336	-0.0038
640.2208	0.0025
640.4079	-0.0053
640.595	-0.0008
640.7821	-0.0038
640.9692	0.0028
641.1563	0.0016
641.3434	-0.0014
641.5304	-0
641.7174	0.0036
641.9044	-0.0001
642.0914	-0.0026
642.2784	0.0016
642.4653	0.0049
642.6523	0.0006
642.8392	0.0061
643.0261	0.0002
643.213	-0.0016
643.3999	-0.0013
643.5867	-0.0007
643.7735	-0.0016
643.9604	-0.0008
644.1472	-0.0047
644.3339	-0.0011
644.5207	-0.0055
644.7075	-0.0038
644.8942	-0.0025
645.0809	0.0015
645.2676	-0.0011
645.4543	0.0035
645.6409	-0.0002
645.8276	-0.0031
646.0142	-0.0059
646.2008	-0.0082
646.3874	-0.0025
646.574	-0.0017
646.7605	-0.0009
646.9471	-0.0091
647.1336	-0.0058
647.3201	-0.0064
647.5066	0.0003
647.6931	-0.0005
647.8795	-0.0092
648.0659	-0.002
648.2524	-0.0037
648.4388	-0.0043
648.6252	-0.0041
648.8115	-0.0111
648.9979	-0.0037
649.1842	-0.0125
649.3705	-0.0008
649.5568	-0.0016
649.7431	-0.0018
649.9294	-0.0061
650.1156	-0.0041
650.3018	-0.0075
650.488	-0.0064
650.6742	-0.0061
650.8604	-0.0005
651.0466	-0.0007
651.2327	-0.002
651.4188	0.0016
651.6049	0.0015
651.791	-0.0006
651.9771	-0.001
652.1632	0.0033
652.3492	0.0048
652.5352	0.001
652.7212	-0.0026
652.9072	0.0043
653.0932	0.0017
653.2791	-0.0018
653.465	-0.0034
653.651	-0.0057
653.8369	-0.0003
654.0227	0.0018
654.2086	-0.0021
654.3944	-0.0059
654.5803	-0.0078
654.7661	-0.0052
654.9519	-0.0041
655.1377	-0.0017
655.3234	-0.0001
655.5092	-0.0001
655.6949	-0.0001
655.8806	-0.0001
656.0663	-0.0001
656.2519	-0.0001
656.4376	-0.0032
656.6232	-0.0062
656.8088	-0.0036
656.9945	-0.0033
657.18	0.0008
657.3656	-0.0025
657.5511	-0.0043
657.7367	-0.0063
657.9222	-0.0029
658.1077	-0.0016
658.2932	-0.0018
658.4786	-0.0032
658.6641	-0.0028
658.8495	-0.004
659.0349	-0.0007
659.2203	-0.0087
659.4057	-0.0047
659.591	-0.0065
659.7764	-0.0083
659.9617	-0.0034
660.147	0.0013
660.3323	-0.0049
660.5176	-0.0081
660.7028	-0.0032
660.888	-0.0034
661.0733	0.0015
661.2585	-0.009
661.4436	-0.0008
661.6288	-0.005
661.8139	-0.0018
661.9991	0.0008
662.1842	-0.0002
662.3693	-0.0033
662.5544	-0.003
662.7394	-0.0026
662.9245	-0.002
663.1095	0.0031
663.2945	-0.0019
663.4795	-0.0047
663.6644	-0.0087
663.8494	-0.0042
664.0343	-0.003
664.2193	-0.0044
664.4042	-0.0063
664.589	-0.0037
664.7739	-0.0026
664.9587	0.0016
665.1436	0.0025
665.3284	-0.0026
665.5132	-0.0018
665.698	0.0001
665.8827	-0.004
666.0675	-0.0104
666.2522	-0.0056
666.4369	-0.0034
666.6216	-0.0116
666.8063	-0.0067
666.9909	-0.0104
667.1756	-0.005
667.3602	-0.0088
667.5448	-0.0105
667.7294	-0.0067
667.9139	-0.0019
668.0985	-0.0105
668.283	-0.0083
668.4675	-0.015
668.652	-0.0107
668.8365	-0.0086
669.0209	-0.0123
669.2054	-0.0028
669.3898	-0.0034
669.5742	-0.0103
669.7586	0.0017
669.943	-0.0089
670.1273	-0.0055
670.3117	-0.0038
670.496	-0.0079
670.6803	0.0047
670.8646	-0.0007
671.0488	-0.0013
671.2331	-0.0067
671.4173	0.001
671.6015	0.002
671.7857	-0.0077
671.9699	-0.004
672.1541	-0.0043
672.3382	-0.0103
672.5223	-0.0081
672.7064	-0.0096
672.8905	-0.0101
673.0746	-0.008
673.2587	-0.0189
673.4427	-0.0154
673.6267	-0.0099
673.8107	-0.0126
673.9947	-0.0072
674.1787	-0.0084
674.3626	-0.0089
674.5465	-0.0068
674.7304	-0.0013
674.9143	-0.0028
675.0982	-0.0069
675.2821	-0.0036
675.4659	-0.0066
675.6497	0.0014
675.8335	-0.0024
676.0173	-0.0079
676.2011	-0.0075
676.3849	-0.0065
676.5686	-0.0012
676.7523	-0.0044
676.936	-0.0018
677.1197	-0.0043
677.3034	-0.0068
677.487	-0.007
677.6706	-0.0023
677.8542	-0.005
678.0378	-0.007
678.2214	-0.0077
678.405	-0.0035
678.5885	-0.0035
678.772	0.0014
678.9555	-0.0053
679.139	-0.0057
679.3225	-0.0112
679.5059	-0.0035
679.6894	-0.0043
679.8728	-0.004
680.0562	0.0018
680.2395	-0.0018
680.4229	-0.0014
680.6062	0.0035
680.7896	-0.001
680.9729	-0.0019
681.1562	-0.0023
681.3394	-0
681.5227	-0.0056
681.7059	-0.0031
681.8891	-0.0062
682.0723	-0.0031
682.2555	-0.0088
682.4387	0.0026
682.6218	-0.0097
682.805	-0.0047
682.9881	-0.0022
683.1712	0.001
683.3542	-0.0005
683.5373	-0.0025
683.7203	-0.003
683.9034	-0.0044
684.0864	-0.0069
684.2694	-0.0032
684.4523	-0.0012
684.6353	-0.0032
684.8182	-0.0024
685.0011	-0.004
685.184	-0.0022
685.3669	-0.0059
685.5498	-0.0009
685.7326	-0.0025
685.9154	-0.0088
686.0982	-0.0036
686.281	-0.0051
686.4638	-0.003
686.6465	-0.0038
686.8293	-0.0016
687.012	-0.0028
687.1947	-0.0055
687.3774	-0.0047
687.56	-0.0036
687.7427	0.0003
687.9253	-0.0041
688.1079	0.001
688.2905	-0.0005
688.4731	0.0007
688.6556	-0.007
688.8382	-0.0014
689.0207	-0.0017
689.2032	-0.0018
689.3857	-0.0045
689.5681	-0.0003
689.7506	-0.0026
689.933	0.0018
690.1154	-0.0014
690.2978	0.002
690.4802	-0.0023
690.6626	0.0023
690.8449	-0.0001
691.0272	0.0051
691.2095	0.0019
691.3918	-0.0028
691.5741	-0.0021
691.7563	-0.0047
691.9386	-0.0059
692.1208	-0.0103
692.303	-0.0076
692.4852	-0.003
692.6673	-0.0058
692.8495	-0.0063
693.0316	0.0008
693.2137	-0.0068
693.3958	-0.0064
693.5778	-0.0032
693.7599	-0.0082
693.9419	-0.0122
694.1239	-0.0059
694.3059	-0.0095
694.4879	-0.0044
694.6699	-0.0096
694.8518	-0.0045
695.0337	-0.0072
695.2157	-0.007
695.3975	-0.0114
695.5794	-0.0046
695.7613	-0.0083
695.9431	-0.0095
696.1249	-0.0029
696.3067	-0.0058
696.4885	0.0019
696.6703	-0.0026
696.852	-0.0052
697.0337	0.0006
697.2154	-0.0025
697.3971	-0.0015
697.5788	-0.0036
697.7605	-0.0026
697.9421	-0.0041
698.1237	-0.0043
698.3053	-0.0093
698.4869	0.0005
698.6685	-0.0054
698.85	-0.0028
699.0315	-0.0015
699.213	-0.0007
699.3945	0.0014
699.576	0.0059
699.7575	-0.0045
699.9389	0.0012
700.1203	-0.007
700.3017	-0.0047
700.4831	-0.0015
700.6645	-0.0105
700.8458	-0.0067
701.0271	-0.007
701.2084	-0.006
701.3897	-0.0077
701.571	-0.0023
701.7523	0.003
701.9335	0.006
702.1147	0.0074
702.2959	-0.0048
702.4771	0.003
702.6583	0.0038
702.8394	-0.0015
703.0205	0.0027
703.2016	-0.0037
703.3827	0.0031
703.5638	-0.0066
703.7449	-0.0074
703.9259	-0.0036
704.1069	-0.0002
704.2879	-0.006
704.4689	-0.0045
704.6499	-0.005
704.8308	-0.0023
705.0117	-0.0033
705.1927	0.0022
705.3735	-0.0013
705.5544	0.0015
705.7353	0.0012
705.9161	0.0004
706.0969	-0.0019
706.2777	-0.0019
706.4585	-0.0026
706.6393	-0.0025
706.82	-0.0023
707.0007	-0.0057
707.1815	-0.0007
707.3621	-0.0059
707.5428	-0.0047
707.7235	0.0012
707.9041	0.0008
708.0847	-0.002
708.2653	-0.0001
708.4459	-0.0027
708.6265	-0.0075
708.807	0.0014
708.9875	-0.0054
709.168	-0.0019
709.3485	-0.0047
709.529	-0.0042
709.7095	-0.0049
709.8899	-0.01
710.0703	0.0065
710.2507	-0.0044
710.4311	-0.0053
710.6115	0.003
710.7918	-0.0058
710.9721	0.0004
711.1524	0.0019
711.3327	0.0037
711.513	-0.0033
711.6932	-0.0055
711.8735	0.0014
712.0537	0.0013
712.2339	-0.0032
712.4141	-0.0014
712.5942	0.0036
712.7744	0.0028
712.9545	0.0005
713.1346	-0.0029
713.3147	0.0062
713.4947	-0.0003
713.6748	-0.0025
713.8548	-0.0054
714.0348	0.002
714.2148	-0.0091
714.3948	-0.0034
714.5748	-0.0081
714.7547	-0.0095
714.9346	-0.0041
715.1145	-0.0037
715.2944	-0.0027
715.4743	-0.0074
715.6541	-0.008
715.834	-0.0034
716.0138	-0.0016
716.1936	-0.0022
716.3733	-0.006
716.5531	-0.0079
716.7328	-0.0053
716.9126	-0.0029
717.0923	-0.0019
717.2719	-0.0133
717.4516	-0.0053
717.6312	-0.0013
717.8109	-0.0064
717.9905	-0.0031
718.1701	-0.0058
718.3496	-0.0007
718.5292	-0.0048
718.7087	-0.0045
718.8882	-0.0006
719.0677	-0.0028
719.2472	-0.0018
719.4267	-0.0109
719.6061	-0.0083
719.7856	-0.0054
719.965	-0.0081
720.1443	-0.0042
720.3237	-0.0018
720.5031	-0.0063
720.6824	-0.0079
720.8617	-0.0081
721.041	0.0007
721.2203	-0.0096
721.3995	0.0018
721.5788	-0.0077
721.758	-0.0023
721.9372	0.0004
722.1164	-0.0078
722.2956	-0.0079
722.4747	-0.0063
722.6538	-0.009
722.8329	-0.0003
723.012	-0.0026
723.1911	0.0013
723.3702	-0.0013
723.5492	-0.0041
723.7282	-0.001
723.9072	-0.0062
724.0862	-0.0047
724.2652	-0.0016
724.4441	-0.0089
724.623	0.0026
724.8019	-0.0044
724.9808	-0.0006
725.1597	0.0009
725.3385	-0.0012
725.5174	-0.0035
725.6962	-0.0087
725.875	0.0023
726.0538	0.0044
726.2325	-0.002
726.4112	0.005
726.59	0.0012
726.7687	-0.0058
726.9474	-0.0069
727.126	-0.0011
727.3047	-0.0041
727.4833	0.0024
727.6619	-0.0089
727.8405	0.0005
728.0191	0.0004
728.1976	-0.0101
728.3762	-0.0093
728.5547	-0.0112
728.7332	-0.0103
728.9116	-0.015
729.0901	-0.0096
729.2686	-0.0078
729.447	-0.0011
729.6254	-0.0076
729.8038	-0.006
729.9821	-0.0026
730.1605	-0.0017
730.3388	0.0019
730.5171	-0.0013
730.6954	-0.0021
730.8737	0.0028
731.0519	-0.0036
731.2302	0.0013
731.4084	0.0046
731.5866	0.0073
731.7648	0.0032
731.9429	0.0015
732.1211	0.0026
732.2992	0.0027
732.4773	-0.0032
732.6554	-0.0081
732.8335	-0.0033
733.0115	-0.0097
733.1896	-0.0126
733.3676	-0.0027
733.5456	-0.0006
733.7235	-0.0044
733.9015	0.0022
734.0794	-0.0015
734.2574	0.0041
734.4353	0.0017
734.6131	-0.004
734.791	-0.0005
734.9689	-0.0029
735.1467	0.0039
735.3245	-0.0029
735.5023	-0.0039
735.68	-0.0053
735.8578	-0.0035
736.0355	0.0076
736.2132	-0.0006
736.3909	-0.0019
736.5686	-0.0035
736.7463	-0.0038
736.9239	-0.0029
737.1015	-0.0018
737.2791	-0.0071
737.4567	-0.0079
737.6343	-0.0086
737.8118	-0.0045
737.9894	-0.0025
738.1669	-0.0101
738.3444	0.0004
738.5218	0.0002
738.6993	0.0049
738.8767	-0.0002
739.0541	-0.003
739.2315	-0.0053
739.4089	0.0001
739.5863	-0.0117
739.7636	-0.0041
739.9409	-0.0014
740.1182	0.0033
740.2955	-0.0017
740.4728	-0.0022
740.65	0.0005
740.8272	0.0012
741.0044	0.0018
741.1816	0.0021
741.3588	0.0057
741.5359	-0.0038
741.7131	0.0074
741.8902	0.0018
742.0673	0.0028
742.2444	-0.0044
742.4214	-0.0016
742.5985	-0.0065
742.7755	-0.0033
742.9525	-0.0062
743.1295	-0.0011
743.3064	-0.0079
743.4834	-0.003
743.6603	-0.0022
743.8372	0.0042
744.0141	-0.0013
744.191	-0.0016
744.3678	-0.0025
744.5446	-0.0032
744.7215	-0.0081
744.8982	-0.0012
745.075	-0.0069
745.2518	-0.0062
745.4285	0.0026
745.6052	0.0033
745.7819	-0.0008
745.9586	0.0026
746.1353	-0.001
746.3119	0.0026
746.4885	-0.0038
746.6651	-0.0088
746.8417	-0.0033
747.0183	-0.0017
747.1948	-0.0042
747.3714	0.0005
747.5479	-0.0039
747.7244	0.0014
747.9008	-0.0017
748.0773	0.0021
748.2537	0.0001
748.4301	0.0042
748.6065	-0.001
748.7829	0.0051
748.9593	0.0024
749.1356	-0.0094
749.3119	-0.0016
749.4882	0.006
749.6645	-0.0018
749.8408	-0.0019
750.017	-0.0095
750.1933	0.0009
750.3695	-0.008
750.5457	-0.0077
750.7218	-0.0063
750.898	-0.0048
751.0741	-0.0065
751.2502	-0.0009
751.4263	-0.005
751.6024	-0.0075
751.7784	-0.0007
751.9545	-0.0006
752.1305	0.0025
752.3065	-0.002
752.4825	-0.0002
752.6584	-0.0022
752.8344	0.0006
753.0103	-0.0076
753.1862	0.0058
753.3621	-0.0047
753.5379	-0.0064
753.7138	0.0021
753.8896	-0.0098
754.0654	-0.0027
754.2412	-0.0136
754.417	-0.0058
754.5927	-0.0061
754.7685	-0.01
754.9442	-0.0108
755.1199	-0.0145
755.2956	-0.0073
755.4712	-0.0058
755.6469	-0.0157
755.8225	-0.0116
755.9981	-0.0082
756.1736	-0.0048
756.3492	-0.0084
756.5248	-0.0046
756.7003	-0.0066
756.8758	-0.0161
757.0513	-0.0053
757.2267	-0.013
757.4022	-0.0101
757.5776	-0.0111
757.753	-0.0173
757.9284	-0.0124
758.1038	-0.0105
758.2791	-0.0094
758.4545	-0.0128
758.6298	-0.0085
758.8051	-0.0071
758.9803	-0.0089
759.1556	-0.0133
759.3308	-0.0076
759.506	-0.0089
759.6812	-0.0038
759.8564	-0.0041
760.0316	-0.0098
760.2067	-0.0109
760.3819	-0.0053
760.557	-0.0061
760.732	-0.0168
760.9071	-0.016
761.0821	-0.0113
761.2572	-0.0136
761.4322	-0.0083
761.6072	-0.0118
761.7821	-0.0119
761.9571	-0.0107
762.132	-0.0118
762.3069	-0.0059
762.4818	-0.0077
762.6567	-0.0128
762.8316	-0.005
763.0064	-0.0051
763.1812	-0.0033
763.356	-0.0001
763.5308	0.0001
763.7055	0.0012
763.8803	0.0012
764.055	-0.0071
764.2297	0.0022
764.4044	0.0025
764.579	0.0039
764.7537	-0.0008
764.9283	-0.0101
765.1029	0.0064
765.2775	-0.0026
765.4521	0.0081
765.6266	0.0041
765.8011	0.0082
765.9756	0.002
766.1501	0.0039
766.3246	-0.0036
766.4991	-0.0022
766.6735	-0.0063
766.8479	-0.007
767.0223	0.003
767.1967	-0.0077
767.371	-0.0021
767.5454	-0.0081
767.7197	-0.0093
767.894	-0.0048
768.0683	-0.0053
768.2425	-0.004
768.4168	-0.0112
768.591	0.006
768.7652	-0.0048
768.9394	0.0038
769.1135	0.0007
769.2877	-0.0005
769.4618	0.0009
769.6359	-0.0034
769.81	0.0006
769.984	-0.007
770.1581	-0.0036
770.3321	-0.0013
770.5061	-0.0035
770.6801	-0.0014
770.8541	-0.0025
771.028	0.0038
771.202	0.0036
771.3759	-0.0061
771.5498	0.0001
771.7236	-0.0013
771.8975	-0.0022
772.0713	0.0071
772.2451	0.0007
772.4189	0.0056
772.5927	-0.0047
772.7665	-0.0076
772.9402	-0.0009
773.1139	0.0015
773.2876	-0.0021
773.4613	0.0005
773.635	0.0037
773.8086	0.0002
773.9822	0.0029
774.1558	-0.0017
774.3294	0.0075
774.503	0.0034
774.6765	-0.0049
774.8501	0.0071
775.0236	-0.0159
775.1971	-0.0094
775.3705	0.0027
775.544	-0.0014
775.7174	-0.0001
775.8908	-0.0053
776.0642	-0.005
776.2376	-0.0027
776.4109	-0.0073
776.5843	0.0061
776.7576	0.0014
776.9309	-0.0026
777.1041	0.0007
777.2774	0.0013
777.4506	0.004
777.6238	-0.001
777.797	-0.0009
777.9702	-0.0044
778.1434	-0.0124
778.3165	-0.0016
778.4896	-0.0144
778.6627	-0.0106
778.8358	-0.0083
779.0089	-0.0031
779.1819	-0.001
779.3549	-0.0036
779.5279	-0.0072
779.7009	-0.0075
779.8739	-0.004
780.0468	-0.005
780.2197	0.0027
780.3926	-0.0089
780.5655	-0.0086
780.7384	-0.0011
780.9112	-0.0047
781.0841	0.0027
781.2569	-0.0045
781.4297	-0.0054
781.6024	0.0021
781.7752	-0.004
781.9479	-0.0107
782.1206	0.0048
782.2933	-0.0127
782.466	-0.0021
782.6386	0.0078
782.8113	-0.0159
782.9839	-0.0124
783.1565	-0.0035
783.329	-0.0089
783.5016	-0.0061
783.6741	-0.0072
783.8466	-0.011
784.0191	-0.0081
784.1916	0.0013
784.3641	-0.0029
784.5365	-0.007
784.7089	-0.0001
784.8813	0.0047
785.0537	0.0024
785.2261	0.0075
785.3984	-0.0021
785.5707	-0.0004
785.743	0.001
785.9153	0.0041
786.0876	-0.0045
786.2598	0.0032
786.432	-0
786.6042	0.0008
786.7764	0.0001
786.9486	-0.0013
787.1207	-0.0093
787.2928	0.0079
787.4649	-0.0037
787.637	-0.007
787.8091	-0.0016
787.9811	0.0035
788.1532	-0.0065
788.3252	-0.0027
788.4972	-0.0071
788.6691	-0.0095
788.8411	-0.0079
789.013	0.0001
789.1849	0.006
789.3568	-0.0111
789.5287	-0.0027
789.7005	-0.0029
789.8723	-0.006
790.0442	-0.0128
790.2159	0.0082
790.3877	-0.0008
790.5595	-0.0016
790.7312	-0.0019
790.9029	-0.0106
791.0746	-0.0056
791.2463	-0.0036
791.4179	-0.0048
791.5896	0.0014
791.7612	0.0008
791.9328	0.0037
792.1044	-0.0112
792.2759	0.0042
792.4474	-0.0065
792.619	-0.0053
792.7905	-0.0079
792.9619	0.0074
793.1334	-0.008
793.3048	-0.0061
793.4762	-0.0008
793.6476	-0.0194
793.819	-0.0076
793.9904	-0.0116
794.1617	-0.0101
794.333	-0.0104
794.5043	-0.0084
794.6756	0.0071
794.8469	-0.0003
795.0181	-0.0057
795.1893	-0.0064
795.3605	-0.0112
795.5317	-0.0047
795.7029	-0.0085
795.874	-0.0101
796.0452	-0.0062
796.2163	0.0015
796.3873	-0.0095
796.5584	-0.0107
796.7294	-0.0037
796.9005	-0.0238
797.0715	-0.0089
797.2425	-0.0134
797.4134	-0.0115
797.5844	-0.0179
797.7553	-0.011
797.9262	-0.0121
798.0971	-0.0144
798.2679	-0.0074
798.4388	-0.0131
798.6096	-0.0087
798.7804	-0.0195
798.9512	-0.0167
799.122	-0.0098
799.2927	-0.0155
799.4635	-0.0028
799.6342	-0.0106
799.8049	-0.0122
799.9755	-0.0093
800.1462	-0.0121
800.3168	-0.0038
800.4874	-0.0175
800.658	-0.0197
800.8286	-0.0128
800.9991	-0.0151
801.1696	-0.018
801.3402	-0.0173
801.5106	-0.0188
801.6811	-0.0221
801.8516	-0.0119
802.022	-0.0181
802.1924	-0.0229
802.3628	-0.0217
802.5332	-0.0153
802.7035	-0.0229
802.8739	-0.0002
803.0442	-0.0186
803.2145	-0.013
803.3847	-0.0236
803.555	-0.0134
803.7252	-0.0123
803.8954	-0.0169
804.0656	0.0008
804.2358	-0.0047
804.4059	-0.0181
804.5761	-0.0034
804.7462	-0.0101
804.9163	-0.0067
805.0864	-0.0066
805.2564	-0.0047
805.4264	-0.0124
805.5965	-0.0153
805.7665	-0.0076
805.9364	-0.0063
806.1064	-0.009
806.2763	-0.0049
806.4462	-0.0125
806.6161	-0.0143
806.786	-0.0095
806.9559	-0.0104
807.1257	-0.01
807.2955	-0.0163
807.4653	-0.0046
807.6351	-0.0077
807.8048	-0.003
807.9746	-0.0117
808.1443	0.0026
808.314	0.001
808.4837	0.0024
808.6533	-0.0028
808.8229	-0.0067
808.9926	0.0026
809.1622	-0.0064
809.3317	0.0121
809.5013	0.0107
809.6708	0.0027
809.8403	-0.0033
810.0098	0.0062
810.1793	-0.0105
810.3488	0.0029
810.5182	-0.0107
810.6876	0.0013
810.857	-0.0124
811.0264	-0.0094
811.1958	0.0025
811.3651	-0.0093
811.5344	-0.0036
811.7037	-0.022
811.873	-0.0075
812.0422	-0.0091
812.2115	-0.0052
812.3807	-0.0077
812.5499	0.0088
812.7191	-0.0239
812.8882	-0.0049
813.0574	-0.0151
813.2265	0.001
813.3956	-0.0074
813.5646	-0.0192
813.7337	0.0051
813.9027	0.0067
814.0718	-0.0133
814.2407	0.0082
814.4097	-0.0127
814.5787	0.0086
814.7476	-0.0087
814.9165	0.0088
815.0854	-0.005
815.2543	0.0002
815.4232	-0.002
815.592	-0.0027
815.7608	0.002
815.9296	-0.0151
816.0984	-0.0094
816.2671	-0.0068
816.4359	-0.0004
816.6046	0.0109
816.7733	-0.0079
816.942	0.004
817.1106	-0.0081
817.2793	-0.005
817.4479	-0.0101
817.6165	-0.0105
817.785	-0.0097
817.9536	0.0048
818.1221	-0.0084
818.2906	-0.0063
818.4591	-0.0228
818.6276	0.0032
818.7961	-0.0033
818.9645	-0.0051
819.1329	-0.0072
819.3013	-0.0096
819.4697	-0.0142
819.638	-0.0147
819.8064	-0.0235
819.9747	0.0035
820.143	0.0001
820.3113	-0.0097
820.4795	0.0163
820.6477	-0.0007
820.816	-0.0033
820.9842	-0.0182
821.1523	-0.0198
821.3205	-0.0057
821.4886	-0.0017
821.6567	-0.0057
821.8248	-0.0128
821.9929	-0.0166
822.1609	-0.0126
822.329	-0.0015
822.497	-0.004
822.665	-0.0106
822.833	-0.0187
823.0009	-0.0115
823.1688	-0.019
823.3367	-0.0056
823.5046	-0.0119
823.6725	-0.0205
823.8404	-0.006
824.0082	-0.0084
824.176	0.0041
824.3438	-0.0158
824.5116	-0.0063
824.6793	-0.0012
824.847	-0.0014
825.0147	-0.016
825.1824	-0.0201
825.3501	-0.0091
825.5177	-0.0074
825.6854	-0.0037
825.853	0.0009
826.0206	0.0009
826.1881	-0.0008
826.3557	0.0002
826.5232	0.0069
826.6907	0.003
826.8582	-0.0015
827.0257	-0.0092
827.1931	0.0255
827.3605	-0.0024
827.528	0.0055
827.6953	-0.0192
827.8627	-0.0025
828.03	-0.0049
828.1974	0.0062
828.3647	-0.0036
828.532	-0.0052
828.6992	-0.0103
828.8665	-0.0009
829.0337	-0.0045
829.2009	-0.0262
829.3681	-0.0354
829.5352	0.0002
829.7024	0.0007
829.8695	-0.0295
830.0366	-0.024
830.2037	0.0083
830.3707	-0.016
830.5378	-0.0149
830.7048	-0.0299
830.8718	-0.0014
831.0388	-0.0173
831.2057	-0.0126
831.3727	-0.028
831.5396	-0.0028
831.7065	-0.0016
831.8734	0.0037
832.0402	-0.0132
832.2071	0.0165
832.3739	-0.0043
832.5407	0.0017
832.7075	-0.0028
832.8742	0.0226
833.041	0.0093
833.2077	-0.0364
833.3744	0.0073
833.541	0.0038
833.7077	0.0048
833.8743	-0.0026
834.0409	0.0095
834.2075	0.0164
834.3741	-0.0219
834.5407	0.0124
834.7072	-0.0099
834.8737	-0.0027
835.0402	-0.035
835.2067	-0.025
835.3731	0.003
835.5395	-0.0245
835.706	-0.022
835.8723	-0.0189
836.0387	-0.0191
836.2051	-0.0093
836.3714	-0.0019
836.5377	0.0054
836.704	0.0099
836.8703	-0.0266
837.0365	-0.0024
837.2027	0.0046
837.3689	-0.0281
837.5351	0.0067
837.7013	-0.0106
837.8674	0.0068
838.0335	-0.009
838.1997	0.0242
838.3657	0.0008
838.5318	0.0053
838.6978	-0.0116
838.8639	0.0016
839.0299	-0.0092
839.1958	0.008
839.3618	0.0154
839.5277	-0.0266
839.6937	-0.0047
839.8596	0.0006
840.0254	-0.0031
840.1913	0.0076
840.3571	-0.0023
840.523	-0.0017
840.6888	-0.0009
840.8545	-0.0295
841.0203	-0.0003
841.186	0.016
841.3517	-0.0178
841.5174	-0.0096
841.6831	0.0097
841.8488	0.0199
842.0144	0.0137
842.18	0.0025
842.3456	-0.002
842.5112	0.0116
842.6767	-0.0103
842.8422	0.0006
843.0077	-0.0079
843.1732	-0.001
843.3387	-0.0159
843.5042	0.0081
843.6696	-0.0003
843.835	-0.0035
844.0004	0.0144
844.1657	-0.027
844.3311	0.0035
844.4964	-0.0226
844.6617	-0.0011
844.827	-0.0041
844.9923	0.0018
845.1575	0.0011
845.3227	-0.034
845.4879	-0.0015
845.6531	-0.0273
845.8183	-0.0256
845.9834	-0.0521
846.1485	0.0163
846.3136	-0.0505
846.4787	-0
846.6438	-0.0029
846.8088	0.0462
846.9738	-0.007
847.1388	-0.0034
847.3038	0.028
847.4687	-0.0131
847.6337	0.008
847.7986	0.0232
847.9635	0.0156
848.1284	-0.0019
848.2932	0.0203
848.458	0.0309
848.6228	0.0086
848.7876	-0.0477
848.9524	0.0289
849.1172	-0.0067
849.2819	0.0255
849.4466	-0.0199
849.6113	0.0065
849.7759	-0.0184
849.9406	-0.0069
850.1052	0.0257
850.2698	-0.0283
850.4344	0.0016
850.599	-0.0062
850.7635	0.0114
850.928	-0.0367
851.0925	0.0317
851.257	-0.0034
851.4215	0.0061
851.5859	0.0561
851.7503	-0.0138
851.9147	-0.0053
852.0791	-0.0072
852.2434	0.002
852.4078	0.0048
852.5721	-0.0427
852.7364	-0.0709
852.9007	0.0517
853.0649	-0.0454
853.2291	0.003
853.3934	-0.0315
853.5575	-0.0079
853.7217	-0.022
853.8859	0.0215
854.05	-0.0256
854.2141	-0.0391
854.3782	0.0036
854.5423	-0.0099
854.7063	-0.0258
854.8703	-0.0266
855.0343	0.0073
855.1983	0.0038
855.3623	-0.013
855.5262	-0.0115
855.6901	0.0056
855.854	0.0024
856.0179	0.0695
856.1818	0.0018
856.3456	-0.0507
856.5094	-0.0272
856.6732	0.0109
856.837	-0.0022
857.0008	0.0277
857.1645	0.0342
857.3282	-0.029
857.4919	-0.0724
857.6556	0.0829
857.8192	-0.0232
857.9828	0.036
858.1465	0.0073
858.31	-0.0923
858.4736	-0.0957
858.6372	0.0057
858.8007	0.0209
858.9642	-0.0667
859.1277	0.0789
859.2911	0.0144
859.4546	0.04
859.618	-0.0469
859.7814	0.0652
859.9448	-0.0199
860.1081	0.0206
860.2715	0.0656
860.4348	0.0071
860.5981	-0.0619
860.7614	-0.05
860.9246	0.0481
861.0879	-0.0543
861.2511	0.0388
861.4143	-0.1158
861.5774	0.0288
861.7406	-0.0472
861.9037	-0.1395
862.0668	-0.1171
862.2299	-0.0551
862.393	-0.1019
862.556	0.0611
862.7191	-0.0568
862.8821	-0.0387
863.0451	-0.0175
863.208	-0.0895
863.371	0.1053
863.5339	-0.0126
863.6968	-0.1396
863.8597	0.0069
864.0225	-0.1575
864.1854	-0.0337
864.3482	-0.2226
864.511	-0.0774
864.6737	-0.0126
864.8365	0.1391
864.9992	-0.1738
865.1619	0.0087
865.3246	-0.0744
865.4873	0.0274
865.65	0.1125
865.8126	0.0187
865.9752	-0.2411
866.1378	-0.1626
866.3004	-0.0732
866.4629	-0.1373
866.6254	-0.0132
866.7879	-0.1483
866.9504	-0.1815
867.1129	-0.0598
867.2753	-0.0343
867.4377	0.0274
867.6001	-0.4711
867.7625	0.1914
867.9249	0.1622
868.0872	-0.0848
868.2495	-0.1032
868.4118	0.0037
868.5741	-0.1105
868.7363	-0.0935
868.8986	-0.1369
869.0608	-0.0735
869.223	-0.2111
869.3851	0.092
869.5473	-0.3246
869.7094	0.0773
869.8715	-0.0485
870.0336	-0.1935
870.1957	0.1789
870.3577	0.4124
870.5197	-0.462
870.6817	-0.3101
870.8437	-0.2542
871.0057	0.1089
871.1676	-0.0846
871.3295	-0.3379
871.4914	0.1815
871.6533	0.0724
871.8151	-0.0055
871.977	0.1018
872.1388	-0.1901
872.3006	-0.2066
872.4623	0.0982
872.6241	-0.1233
872.7858	-0.118
872.9475	-0.188
873.1092	-0.0557
873.2709	0.1672
873.4325	0.3235
873.5941	-0.1614
873.7557	0.1459
873.9173	0.2693
874.0789	-0.3208
874.2404	0.1399
874.4019	-0.2789
874.5634	-0.0835
874.7249	-0.3321
874.8863	-0.2784
875.0478	-0.0377
875.2092	-0.1194
875.3706	-0.2614
875.5319	-0.284
875.6933	-0.4103
875.8546	-0.3691
876.0159	0.0425
876.1772	-0.3121
876.3385	-0.1239
876.4997	-0.4566
876.6609	0.028
876.8221	0.0406
876.9833	-0.314
877.1445	-0
877.3056	-0
877.4667	-0.8665
877.6278	0.0739
877.7889	0.6714
877.9499	-0.5621
878.111	0.0756
878.272	-0.0212
878.433	0.218
878.5939	0.31
878.7549	-0.1632
878.9158	-0.0482
879.0767	0.0968
879.2376	-0.0237
879.3984	-0.1611
879.5593	-0.1456
879.7201	0.617
879.8809	-0.0117
880.0417	0.0212
880.2024	-0.0954
880.3632	-0.3674
880.5239	-0
880.6846	-0.3432
880.8452	0.241
881.0059	-0.4826
881.1665	-0
881.3271	-0.0916
881.4877	-0.0075
881.6483	-0
881.8088	0.0122
881.9693	-0.0382
882.1298	-0.0382
882.2903	-0.0382
