Data from MonoPyChalIsomerACN10uM450nmA_Absorbance_13-11-15-492.txt Node
Date: Tue Jul 09 13:11:15 BST 2024
User: LASERRRRR
Spectrometer: FLMT03099
Trigger mode: 0
Integration Time (sec): 2.000000E-1
Scans to average: 1
Electric dark correction enabled: true
Nonlinearity correction enabled: false
Boxcar width: 0
XAxis mode: Wavelengths
Number of Pixels in Spectrum: 3648
>>>>>Begin Spectral Data<<<<<
179.3399	0.0604
179.5586	0.0604
179.7771	0.0604
179.9957	-0.3163
180.2143	0.1947
180.4329	-0
180.6514	-0
180.8699	-0
181.0885	-0.3783
181.307	-0
181.5255	-0
181.744	-0.4162
181.9625	-0
182.181	-0
182.3994	-0
182.6179	0.1393
182.8363	-0
183.0547	0.0262
183.2732	0.1287
183.4916	0.0268
183.71	0.049
183.9284	0.0048
184.1467	0.0331
184.3651	0.0988
184.5835	0.0511
184.8018	0.1166
185.0201	0.2468
185.2385	0.0314
185.4568	0.0237
185.6751	0.2473
185.8934	-0.0435
186.1117	-0.057
186.3299	-0.0362
186.5482	0.1251
186.7664	-0.0908
186.9847	0.1269
187.2029	0.054
187.4211	0.0147
187.6393	-0.0721
187.8575	0.095
188.0757	-0.0485
188.2939	0.0091
188.512	-0.0415
188.7302	0.1222
188.9483	0.0792
189.1665	0.0309
189.3846	0.0979
189.6027	0.0787
189.8208	0.0676
190.0389	0.2708
190.257	0.193
190.475	0.2987
190.6931	0.1391
190.9111	0.1892
191.1292	0.2009
191.3472	0.2825
191.5652	0.3165
191.7832	0.3182
192.0012	0.3754
192.2192	0.3799
192.4371	0.5381
192.6551	0.4033
192.873	0.3742
193.091	0.4244
193.3089	0.4193
193.5268	0.5757
193.7447	0.4876
193.9626	0.5632
194.1805	0.5138
194.3984	0.6203
194.6162	0.5711
194.8341	0.6612
195.0519	0.5658
195.2697	0.5144
195.4875	0.5792
195.7054	0.5903
195.9231	0.6001
196.1409	0.6853
196.3587	0.6836
196.5765	0.5629
196.7942	0.6688
197.012	0.6141
197.2297	0.7225
197.4474	0.7111
197.6651	0.6802
197.8828	0.7449
198.1005	0.9841
198.3182	0.7229
198.5358	0.7477
198.7535	0.7196
198.9711	0.8001
199.1888	0.6899
199.4064	0.7569
199.624	0.8498
199.8416	0.8234
200.0592	0.7463
200.2767	0.7366
200.4943	0.7966
200.7119	0.77
200.9294	0.875
201.1469	0.8014
201.3645	0.8082
201.582	0.8908
201.7995	0.7887
202.017	0.8661
202.2344	0.8462
202.4519	0.9143
202.6694	0.8497
202.8868	0.9016
203.1042	0.9162
203.3217	0.9651
203.5391	0.9583
203.7565	0.9139
203.9739	0.919
204.1913	0.7343
204.4086	0.8844
204.626	0.9866
204.8433	0.8593
205.0607	0.9693
205.278	0.9356
205.4953	1.0476
205.7126	0.9537
205.9299	1.0261
206.1472	0.9587
206.3644	0.9803
206.5817	1.0533
206.7989	0.9564
207.0162	1.0207
207.2334	0.9085
207.4506	0.9614
207.6678	1.072
207.885	1.1651
208.1022	0.9936
208.3194	1.1091
208.5365	1.0124
208.7537	1.0409
208.9708	1.0182
209.1879	1.0892
209.405	0.9501
209.6222	1.0531
209.8392	1.0455
210.0563	1.0324
210.2734	1.0789
210.4905	1.1146
210.7075	1.0151
210.9245	1.0093
211.1416	1.0607
211.3586	1.0981
211.5756	1.019
211.7926	1.0161
212.0096	0.956
212.2265	1.1391
212.4435	1.087
212.6604	0.9965
212.8774	0.9956
213.0943	0.9858
213.3112	1.0332
213.5281	1.074
213.745	0.9537
213.9619	0.9631
214.1788	0.9533
214.3956	0.9057
214.6125	0.9162
214.8293	0.883
215.0461	0.8534
215.2629	0.9058
215.4798	0.8525
215.6965	0.846
215.9133	0.8816
216.1301	0.8041
216.3469	0.826
216.5636	0.8064
216.7803	0.7355
216.9971	0.7853
217.2138	0.7471
217.4305	0.7062
217.6472	0.7266
217.8639	0.6654
218.0805	0.607
218.2972	0.5812
218.5138	0.5283
218.7305	0.5279
218.9471	0.4663
219.1637	0.4473
219.3803	0.4368
219.5969	0.4155
219.8135	0.3871
220.0301	0.3631
220.2466	0.3522
220.4632	0.3395
220.6797	0.3233
220.8962	0.3203
221.1127	0.311
221.3292	0.3074
221.5457	0.2817
221.7622	0.2969
221.9787	0.2813
222.1951	0.2916
222.4116	0.2706
222.628	0.2658
222.8444	0.2737
223.0608	0.268
223.2772	0.275
223.4936	0.2667
223.71	0.2651
223.9264	0.2783
224.1427	0.2714
224.3591	0.2723
224.5754	0.2699
224.7917	0.2811
225.008	0.2791
225.2243	0.2707
225.4406	0.2844
225.6569	0.2666
225.8732	0.3082
226.0894	0.2668
226.3057	0.2889
226.5219	0.2855
226.7381	0.2922
226.9543	0.2954
227.1705	0.2924
227.3867	0.3027
227.6029	0.3024
227.8191	0.2988
228.0352	0.2887
228.2513	0.3014
228.4675	0.3154
228.6836	0.3215
228.8997	0.3236
229.1158	0.3131
229.3319	0.3252
229.548	0.3186
229.764	0.3182
229.9801	0.3245
230.1961	0.3338
230.4121	0.3375
230.6282	0.3484
230.8442	0.3263
231.0602	0.3524
231.2761	0.3502
231.4921	0.3531
231.7081	0.3704
231.924	0.3652
232.14	0.3643
232.3559	0.366
232.5718	0.3624
232.7877	0.3534
233.0036	0.3646
233.2195	0.3591
233.4353	0.3615
233.6512	0.377
233.867	0.3787
234.0829	0.3853
234.2987	0.3907
234.5145	0.3771
234.7303	0.3987
234.9461	0.4018
235.1619	0.3878
235.3776	0.3818
235.5934	0.3945
235.8091	0.3948
236.0249	0.4067
236.2406	0.4016
236.4563	0.3928
236.672	0.4072
236.8877	0.4029
237.1034	0.4026
237.319	0.4149
237.5347	0.3986
237.7503	0.4105
237.966	0.4188
238.1816	0.4226
238.3972	0.4104
238.6128	0.415
238.8284	0.4149
239.0439	0.4125
239.2595	0.4226
239.475	0.4187
239.6906	0.4172
239.9061	0.4259
240.1216	0.4146
240.3371	0.4179
240.5526	0.4206
240.7681	0.4058
240.9836	0.4202
241.199	0.4091
241.4145	0.3941
241.6299	0.4035
241.8453	0.392
242.0607	0.4033
242.2761	0.3868
242.4915	0.3726
242.7069	0.3752
242.9223	0.3666
243.1376	0.3647
243.353	0.354
243.5683	0.3534
243.7836	0.3457
243.9989	0.3427
244.2142	0.3282
244.4295	0.3239
244.6448	0.3166
244.86	0.3146
245.0753	0.3006
245.2905	0.2899
245.5057	0.2938
245.721	0.299
245.9362	0.2828
246.1514	0.2813
246.3665	0.2778
246.5817	0.2676
246.7969	0.2702
247.012	0.2714
247.2271	0.2601
247.4423	0.2536
247.6574	0.2588
247.8725	0.2558
248.0876	0.2538
248.3026	0.2478
248.5177	0.2493
248.7328	0.2349
248.9478	0.2359
249.1628	0.231
249.3779	0.2282
249.5929	0.224
249.8079	0.2249
250.0228	0.2162
250.2378	0.2274
250.4528	0.2141
250.6677	0.221
250.8827	0.2076
251.0976	0.2088
251.3125	0.2134
251.5274	0.2027
251.7423	0.2191
251.9572	0.2093
252.172	0.2164
252.3869	0.2067
252.6017	0.2092
252.8166	0.2055
253.0314	0.1928
253.2462	0.2038
253.461	0.2019
253.6758	0.1959
253.8906	0.2034
254.1053	0.1995
254.3201	0.2008
254.5348	0.2046
254.7496	0.2042
254.9643	0.1969
255.179	0.1964
255.3937	0.2018
255.6083	0.2056
255.823	0.1949
256.0377	0.1952
256.2523	0.1928
256.467	0.2012
256.6816	0.1927
256.8962	0.1897
257.1108	0.1975
257.3254	0.1921
257.54	0.1919
257.7545	0.197
257.9691	0.1997
258.1836	0.1906
258.3981	0.1944
258.6127	0.1948
258.8272	0.187
259.0417	0.199
259.2561	0.1963
259.4706	0.1853
259.6851	0.192
259.8995	0.1895
260.114	0.189
260.3284	0.1945
260.5428	0.1884
260.7572	0.1973
260.9716	0.1889
261.186	0.2012
261.4003	0.1992
261.6147	0.1911
261.829	0.1917
262.0433	0.2001
262.2577	0.1878
262.472	0.1987
262.6863	0.19
262.9005	0.1937
263.1148	0.1898
263.3291	0.1864
263.5433	0.1836
263.7576	0.188
263.9718	0.182
264.186	0.1771
264.4002	0.1815
264.6144	0.1809
264.8286	0.1853
265.0427	0.1769
265.2569	0.1797
265.471	0.1807
265.6851	0.1711
265.8993	0.1782
266.1134	0.1784
266.3275	0.1848
266.5415	0.1743
266.7556	0.1856
266.9697	0.1723
267.1837	0.175
267.3978	0.1924
267.6118	0.1762
267.8258	0.1868
268.0398	0.1879
268.2538	0.1838
268.4677	0.1918
268.6817	0.1861
268.8957	0.1894
269.1096	0.1877
269.3235	0.1786
269.5374	0.1795
269.7514	0.1753
269.9652	0.1699
270.1791	0.1557
270.393	0.1633
270.6068	0.1426
270.8207	0.1478
271.0345	0.1556
271.2483	0.1456
271.4622	0.149
271.676	0.1448
271.8897	0.1392
272.1035	0.1353
272.3173	0.1399
272.531	0.1442
272.7448	0.1285
272.9585	0.1364
273.1722	0.1302
273.3859	0.134
273.5996	0.1307
273.8133	0.1401
274.0269	0.135
274.2406	0.1412
274.4542	0.1381
274.6679	0.1314
274.8815	0.1407
275.0951	0.1351
275.3087	0.134
275.5223	0.1405
275.7358	0.1309
275.9494	0.1421
276.1629	0.1368
276.3765	0.1325
276.59	0.1354
276.8035	0.1321
277.017	0.129
277.2305	0.1433
277.444	0.134
277.6574	0.1382
277.8709	0.1402
278.0843	0.1468
278.2978	0.1343
278.5112	0.1426
278.7246	0.1344
278.938	0.1329
279.1513	0.151
279.3647	0.1439
279.5781	0.1363
279.7914	0.1458
280.0047	0.1412
280.2181	0.1379
280.4314	0.1397
280.6447	0.1418
280.8579	0.1503
281.0712	0.1463
281.2845	0.1454
281.4977	0.1484
281.711	0.1498
281.9242	0.1433
282.1374	0.1514
282.3506	0.1489
282.5638	0.149
282.7769	0.1475
282.9901	0.146
283.2033	0.1533
283.4164	0.1484
283.6295	0.1505
283.8426	0.1549
284.0557	0.1523
284.2688	0.1518
284.4819	0.1544
284.695	0.1558
284.908	0.1575
285.1211	0.1599
285.3341	0.1557
285.5471	0.1585
285.7601	0.1487
285.9731	0.1558
286.1861	0.163
286.3991	0.152
286.612	0.1608
286.825	0.1608
287.0379	0.1534
287.2508	0.156
287.4637	0.1598
287.6766	0.1536
287.8895	0.1577
288.1024	0.1609
288.3152	0.1594
288.5281	0.1603
288.7409	0.1496
288.9538	0.1557
289.1666	0.1654
289.3794	0.1542
289.5922	0.1657
289.8049	0.1601
290.0177	0.1649
290.2304	0.165
290.4432	0.1577
290.6559	0.1674
290.8686	0.1651
291.0813	0.1634
291.294	0.1658
291.5067	0.1674
291.7194	0.1697
291.932	0.1629
292.1447	0.17
292.3573	0.1652
292.5699	0.167
292.7825	0.1673
292.9951	0.1591
293.2077	0.1613
293.4203	0.1666
293.6328	0.1662
293.8454	0.1657
294.0579	0.1593
294.2704	0.1666
294.4829	0.1655
294.6954	0.1711
294.9079	0.1702
295.1204	0.1611
295.3328	0.1652
295.5453	0.1578
295.7577	0.1596
295.9701	0.1619
296.1825	0.1581
296.3949	0.1569
296.6073	0.1646
296.8197	0.1609
297.0321	0.1635
297.2444	0.1633
297.4567	0.1605
297.6691	0.1628
297.8814	0.1535
298.0937	0.1615
298.306	0.1672
298.5182	0.1576
298.7305	0.1638
298.9428	0.1574
299.155	0.1597
299.3672	0.1681
299.5794	0.1634
299.7916	0.1657
300.0038	0.1553
300.216	0.1688
300.4282	0.1635
300.6403	0.1628
300.8525	0.1658
301.0646	0.168
301.2767	0.1657
301.4888	0.1612
301.7009	0.1668
301.913	0.1696
302.125	0.162
302.3371	0.1711
302.5491	0.1629
302.7612	0.1738
302.9732	0.1672
303.1852	0.1591
303.3972	0.164
303.6092	0.1591
303.8211	0.1648
304.0331	0.1554
304.245	0.1549
304.457	0.1592
304.6689	0.151
304.8808	0.1543
305.0927	0.1537
305.3046	0.153
305.5164	0.154
305.7283	0.1504
305.9401	0.1576
306.152	0.1479
306.3638	0.1588
306.5756	0.1468
306.7874	0.1532
306.9992	0.139
307.2109	0.1367
307.4227	0.1425
307.6344	0.141
307.8462	0.1363
308.0579	0.1348
308.2696	0.1357
308.4813	0.129
308.693	0.133
308.9046	0.1274
309.1163	0.1203
309.328	0.1198
309.5396	0.1196
309.7512	0.1239
309.9628	0.1164
310.1744	0.1214
310.386	0.106
310.5976	0.1165
310.8091	0.1136
311.0207	0.1078
311.2322	0.114
311.4437	0.1215
311.6552	0.1068
311.8667	0.108
312.0782	0.1079
312.2897	0.1023
312.5012	0.1063
312.7126	0.1026
312.924	0.1019
313.1355	0.0975
313.3469	0.1004
313.5583	0.1054
313.7696	0.1039
313.981	0.0956
314.1924	0.0929
314.4037	0.0985
314.6151	0.0919
314.8264	0.0953
315.0377	0.0978
315.249	0.0935
315.4603	0.1004
315.6716	0.095
315.8828	0.0999
316.0941	0.0959
316.3053	0.0914
316.5165	0.0848
316.7277	0.0842
316.9389	0.1002
317.1501	0.0945
317.3613	0.0896
317.5724	0.0849
317.7836	0.0902
317.9947	0.0874
318.2058	0.0865
318.417	0.0865
318.6281	0.095
318.8391	0.0902
319.0502	0.0777
319.2613	0.0935
319.4723	0.0888
319.6834	0.093
319.8944	0.0977
320.1054	0.0891
320.3164	0.0941
320.5274	0.0979
320.7383	0.0878
320.9493	0.0887
321.1602	0.0846
321.3712	0.1046
321.5821	0.0889
321.793	0.0854
322.0039	0.0838
322.2148	0.0887
322.4257	0.0957
322.6365	0.0873
322.8474	0.0965
323.0582	0.0967
323.269	0.0909
323.4798	0.0933
323.6906	0.0951
323.9014	0.0899
324.1122	0.093
324.3229	0.0935
324.5337	0.0844
324.7444	0.0901
324.9551	0.096
325.1658	0.089
325.3765	0.0897
325.5872	0.0947
325.7979	0.1009
326.0085	0.0941
326.2192	0.093
326.4298	0.1082
326.6404	0.0886
326.851	0.0877
327.0616	0.0947
327.2722	0.0932
327.4828	0.0944
327.6933	0.0984
327.9039	0.0934
328.1144	0.0994
328.3249	0.098
328.5354	0.0933
328.7459	0.0974
328.9564	0.0973
329.1669	0.0981
329.3773	0.0913
329.5878	0.1013
329.7982	0.0968
330.0086	0.099
330.219	0.0995
330.4294	0.0923
330.6398	0.0945
330.8502	0.1003
331.0605	0.0998
331.2708	0.0983
331.4812	0.0993
331.6915	0.1038
331.9018	0.094
332.1121	0.0949
332.3224	0.0901
332.5326	0.0974
332.7429	0.1029
332.9531	0.096
333.1633	0.1055
333.3735	0.1119
333.5837	0.0953
333.7939	0.1061
334.0041	0.1032
334.2143	0.1013
334.4244	0.0973
334.6346	0.0987
334.8447	0.0942
335.0548	0.1
335.2649	0.0903
335.475	0.0945
335.685	0.1002
335.8951	0.097
336.1051	0.0978
336.3152	0.095
336.5252	0.1025
336.7352	0.104
336.9452	0.1017
337.1552	0.1046
337.3652	0.1046
337.5751	0.1039
337.7851	0.0991
337.995	0.1051
338.2049	0.1026
338.4148	0.1082
338.6247	0.1076
338.8346	0.1071
339.0445	0.1022
339.2543	0.1046
339.4642	0.1034
339.674	0.1067
339.8838	0.098
340.0936	0.1109
340.3034	0.1156
340.5132	0.1033
340.7229	0.1159
340.9327	0.1107
341.1424	0.1037
341.3522	0.1127
341.5619	0.1204
341.7716	0.115
341.9813	0.1085
342.1909	0.1129
342.4006	0.1109
342.6102	0.1079
342.8199	0.1156
343.0295	0.1129
343.2391	0.1192
343.4487	0.1098
343.6583	0.1182
343.8679	0.1144
344.0774	0.1179
344.287	0.1192
344.4965	0.1067
344.706	0.1218
344.9155	0.1313
345.125	0.1218
345.3345	0.1248
345.544	0.1148
345.7534	0.1197
345.9629	0.1168
346.1723	0.1224
346.3817	0.1235
346.5911	0.1349
346.8005	0.1247
347.0099	0.127
347.2193	0.1303
347.4286	0.1252
347.638	0.1251
347.8473	0.1315
348.0566	0.132
348.2659	0.1227
348.4752	0.1297
348.6845	0.1242
348.8937	0.134
349.103	0.1262
349.3122	0.1295
349.5214	0.1392
349.7306	0.1316
349.9398	0.1259
350.149	0.1298
350.3582	0.1267
350.5674	0.1337
350.7765	0.1234
350.9856	0.1278
351.1948	0.1354
351.4039	0.1272
351.613	0.1279
351.822	0.1349
352.0311	0.1338
352.2402	0.142
352.4492	0.1415
352.6582	0.1394
352.8672	0.1335
353.0762	0.1466
353.2852	0.1596
353.4942	0.1426
353.7032	0.1446
353.9121	0.1447
354.1211	0.1466
354.33	0.141
354.5389	0.1506
354.7478	0.1513
354.9567	0.1431
355.1655	0.1546
355.3744	0.1544
355.5833	0.1481
355.7921	0.1472
356.0009	0.1522
356.2097	0.1431
356.4185	0.1495
356.6273	0.1572
356.8361	0.1434
357.0448	0.1592
357.2536	0.1522
357.4623	0.1564
357.671	0.154
357.8797	0.1672
358.0884	0.1566
358.2971	0.1592
358.5057	0.1607
358.7144	0.1574
358.923	0.1672
359.1316	0.1633
359.3402	0.1741
359.5488	0.1629
359.7574	0.1776
359.966	0.1739
360.1746	0.1701
360.3831	0.1837
360.5916	0.1863
360.8002	0.1786
361.0087	0.1742
361.2172	0.1804
361.4256	0.1861
361.6341	0.1769
361.8426	0.1888
362.051	0.1775
362.2594	0.1785
362.4678	0.1833
362.6762	0.1809
362.8846	0.1846
363.093	0.1746
363.3014	0.1918
363.5097	0.1802
363.718	0.1968
363.9264	0.1859
364.1347	0.194
364.343	0.1855
364.5513	0.1943
364.7595	0.1929
364.9678	0.1938
365.176	0.185
365.3842	0.1852
365.5925	0.2001
365.8007	0.1964
366.0089	0.2061
366.217	0.2023
366.4252	0.2077
366.6333	0.2008
366.8415	0.2096
367.0496	0.1977
367.2577	0.2118
367.4658	0.2065
367.6739	0.2075
367.882	0.2088
368.09	0.207
368.2981	0.2184
368.5061	0.2089
368.7141	0.2114
368.9221	0.2051
369.1301	0.2215
369.3381	0.2147
369.5461	0.2183
369.754	0.2132
369.962	0.2173
370.1699	0.2222
370.3778	0.2135
370.5857	0.221
370.7936	0.2176
371.0015	0.218
371.2093	0.2117
371.4172	0.2258
371.625	0.2144
371.8328	0.2376
372.0406	0.2308
372.2484	0.2235
372.4562	0.2294
372.664	0.2261
372.8717	0.228
373.0795	0.2237
373.2872	0.2297
373.4949	0.2195
373.7026	0.2268
373.9103	0.2273
374.118	0.2367
374.3256	0.2255
374.5333	0.2197
374.7409	0.2285
374.9485	0.2407
375.1561	0.2364
375.3637	0.2314
375.5713	0.2328
375.7789	0.2378
375.9864	0.2336
376.194	0.2382
376.4015	0.2486
376.609	0.238
376.8165	0.2438
377.024	0.2376
377.2315	0.2362
377.4389	0.2496
377.6464	0.2397
377.8538	0.2566
378.0612	0.2411
378.2686	0.2408
378.476	0.2421
378.6834	0.2523
378.8908	0.2515
379.0981	0.2606
379.3055	0.2526
379.5128	0.2491
379.7201	0.2589
379.9274	0.2572
380.1347	0.2644
380.342	0.2552
380.5492	0.2526
380.7565	0.256
380.9637	0.2673
381.1709	0.2535
381.3781	0.2515
381.5853	0.2612
381.7925	0.2587
381.9997	0.2519
382.2068	0.2643
382.4139	0.2558
382.6211	0.2633
382.8282	0.2557
383.0353	0.2542
383.2424	0.2645
383.4494	0.2731
383.6565	0.2559
383.8635	0.2646
384.0706	0.2712
384.2776	0.2683
384.4846	0.2691
384.6916	0.2598
384.8986	0.2621
385.1055	0.2672
385.3125	0.2665
385.5194	0.2665
385.7263	0.2744
385.9333	0.2721
386.1402	0.2733
386.347	0.2763
386.5539	0.2752
386.7608	0.2726
386.9676	0.2691
387.1744	0.2582
387.3813	0.2638
387.5881	0.258
387.7948	0.262
388.0016	0.2656
388.2084	0.2703
388.4151	0.2578
388.6219	0.2669
388.8286	0.2717
389.0353	0.259
389.242	0.2579
389.4487	0.2497
389.6553	0.2614
389.862	0.2452
390.0686	0.2626
390.2753	0.2518
390.4819	0.2489
390.6885	0.2502
390.8951	0.2606
391.1016	0.26
391.3082	0.255
391.5147	0.2572
391.7213	0.2438
391.9278	0.2538
392.1343	0.2535
392.3408	0.2416
392.5473	0.248
392.7537	0.2592
392.9602	0.2358
393.1666	0.2473
393.373	0.2366
393.5794	0.249
393.7858	0.2343
393.9922	0.2391
394.1986	0.2328
394.4049	0.2546
394.6113	0.2395
394.8176	0.221
395.0239	0.2452
395.2302	0.2174
395.4365	0.2338
395.6428	0.2305
395.8491	0.2272
396.0553	0.2344
396.2615	0.2368
396.4678	0.2476
396.674	0.222
396.8802	0.2323
397.0863	0.2257
397.2925	0.2335
397.4987	0.2194
397.7048	0.2214
397.9109	0.2337
398.117	0.2346
398.3231	0.2297
398.5292	0.2276
398.7353	0.2201
398.9413	0.2288
399.1474	0.2222
399.3534	0.2172
399.5594	0.2182
399.7654	0.2321
399.9714	0.2272
400.1774	0.2279
400.3833	0.2271
400.5893	0.2197
400.7952	0.2169
401.0011	0.2193
401.207	0.2165
401.4129	0.2057
401.6188	0.2118
401.8247	0.2214
402.0305	0.2194
402.2364	0.2273
402.4422	0.2225
402.648	0.2322
402.8538	0.2183
403.0596	0.2105
403.2654	0.2118
403.4711	0.2218
403.6768	0.2315
403.8826	0.2207
404.0883	0.24
404.294	0.2235
404.4997	0.2248
404.7054	0.2121
404.911	0.2341
405.1167	0.2269
405.3223	0.2295
405.5279	0.2248
405.7335	0.2239
405.9391	0.223
406.1447	0.2125
406.3502	0.2223
406.5558	0.2223
406.7613	0.2095
406.9668	0.221
407.1724	0.2281
407.3778	0.229
407.5833	0.2238
407.7888	0.2351
407.9942	0.2335
408.1997	0.2286
408.4051	0.2156
408.6105	0.2284
408.8159	0.2376
409.0213	0.2272
409.2267	0.2141
409.432	0.2286
409.6374	0.222
409.8427	0.2301
410.048	0.2251
410.2533	0.2295
410.4586	0.2113
410.6639	0.2236
410.8691	0.2333
411.0744	0.213
411.2796	0.2207
411.4848	0.2142
411.69	0.2272
411.8952	0.2286
412.1004	0.2086
412.3056	0.2288
412.5107	0.2275
412.7158	0.2156
412.921	0.2244
413.1261	0.2066
413.3312	0.2272
413.5362	0.2182
413.7413	0.2227
413.9464	0.2242
414.1514	0.2002
414.3564	0.2137
414.5614	0.2227
414.7664	0.2165
414.9714	0.2106
415.1764	0.221
415.3813	0.2053
415.5863	0.2077
415.7912	0.2135
415.9961	0.2089
416.201	0.2266
416.4059	0.2068
416.6108	0.2174
416.8156	0.2199
417.0205	0.2171
417.2253	0.2264
417.4301	0.2051
417.6349	0.2217
417.8397	0.2072
418.0445	0.2262
418.2492	0.2107
418.454	0.2053
418.6587	0.2075
418.8634	0.213
419.0681	0.211
419.2728	0.2259
419.4775	0.2132
419.6822	0.222
419.8868	0.2011
420.0915	0.2075
420.2961	0.2061
420.5007	0.2064
420.7053	0.1992
420.9099	0.203
421.1144	0.1969
421.319	0.193
421.5235	0.2129
421.728	0.1971
421.9325	0.1974
422.137	0.1982
422.3415	0.2097
422.546	0.2082
422.7504	0.1966
422.9549	0.203
423.1593	0.1949
423.3637	0.2019
423.5681	0.196
423.7725	0.1915
423.9769	0.1907
424.1812	0.1909
424.3856	0.1867
424.5899	0.1905
424.7942	0.1838
424.9985	0.1932
425.2028	0.1803
425.4071	0.1913
425.6113	0.1921
425.8156	0.1878
426.0198	0.1987
426.224	0.1805
426.4282	0.1794
426.6324	0.1962
426.8366	0.1728
427.0407	0.1659
427.2449	0.1774
427.449	0.1667
427.6531	0.1728
427.8572	0.1644
428.0613	0.1681
428.2654	0.1682
428.4694	0.1783
428.6735	0.1809
428.8775	0.1657
429.0815	0.1702
429.2855	0.1646
429.4895	0.1482
429.6935	0.1632
429.8975	0.1554
430.1014	0.1561
430.3053	0.1574
430.5093	0.1542
430.7132	0.1569
430.9171	0.1501
431.1209	0.1561
431.3248	0.1607
431.5286	0.1499
431.7325	0.1504
431.9363	0.1423
432.1401	0.1437
432.3439	0.1481
432.5477	0.1371
432.7514	0.1443
432.9552	0.1357
433.1589	0.1306
433.3627	0.1291
433.5664	0.1277
433.7701	0.1252
433.9737	0.1164
434.1774	0.1194
434.3811	0.111
434.5847	0.1301
434.7883	0.1269
434.9919	0.1188
435.1955	0.1097
435.3991	0.119
435.6027	0.1067
435.8062	0.1217
436.0098	0.1167
436.2133	0.1078
436.4168	0.1127
436.6203	0.1132
436.8238	0.0995
437.0272	0.101
437.2307	0.1046
437.4341	0.0955
437.6375	0.1081
437.841	0.102
438.0443	0.0951
438.2477	0.0944
438.4511	0.1044
438.6545	0.0866
438.8578	0.0954
439.0611	0.087
439.2644	0.0954
439.4677	0.0819
439.671	0.0944
439.8743	0.0883
440.0775	0.0743
440.2808	0.0646
440.484	0.0788
440.6872	0.0779
440.8904	0.071
441.0936	0.0697
441.2967	0.0693
441.4999	0.0733
441.703	0.0639
441.9062	0.0647
442.1093	0.0645
442.3124	0.0652
442.5155	0.053
442.7185	0.0572
442.9216	0.0636
443.1246	0.0595
443.3276	0.0636
443.5307	0.049
443.7337	0.0612
443.9366	0.0603
444.1396	0.0567
444.3426	0.0551
444.5455	0.0553
444.7484	0.0471
444.9513	0.0531
445.1542	0.0558
445.3571	0.0391
445.56	0.0449
445.7628	0.0447
445.9657	0.0588
446.1685	0.0438
446.3713	0.0491
446.5741	0.0514
446.7769	0.0491
446.9797	0.0336
447.1824	0.0497
447.3852	0.0358
447.5879	0.0433
447.7906	0.0354
447.9933	0.0303
448.196	0.0467
448.3986	0.0268
448.6013	0.0249
448.8039	0.0287
449.0066	0.0303
449.2092	0.0217
449.4118	0.0289
449.6143	0.035
449.8169	0.0159
450.0195	0.0176
450.222	0.01
450.4245	0.0182
450.627	0.0196
450.8295	0.0255
451.032	0.0338
451.2345	0.0219
451.4369	0.0191
451.6394	0.0198
451.8418	0.0196
452.0442	0.0138
452.2466	0.019
452.449	0.0164
452.6513	0.0213
452.8537	0.0315
453.056	0.0152
453.2583	0.0157
453.4607	0.0261
453.663	0.0159
453.8652	0.005
454.0675	0.0156
454.2697	0.0158
454.472	0.0216
454.6742	0.0165
454.8764	0.0132
455.0786	0.0241
455.2808	0.0174
455.4829	0.0092
455.6851	-0.0014
455.8872	0.0017
456.0893	0.0099
456.2915	0.0053
456.4935	0.0078
456.6956	0.0103
456.8977	0.0001
457.0997	0.0037
457.3018	0.0014
457.5038	0.0036
457.7058	-0.0057
457.9078	0.0074
458.1098	0.004
458.3117	0.0031
458.5137	0.0184
458.7156	0.0096
458.9175	0.0024
459.1194	0.005
459.3213	0.0037
459.5232	0.0056
459.725	-0.0077
459.9269	0.0013
460.1287	0.0076
460.3305	-0.0003
460.5323	0.0145
460.7341	0.0044
460.9359	-0.0061
461.1376	0.004
461.3394	-0.0014
461.5411	0.0034
461.7428	-0.0028
461.9445	0.0066
462.1462	0.0038
462.3479	-0.0001
462.5495	0.0177
462.7512	0.0019
462.9528	0.0009
463.1544	0.0045
463.356	0.0005
463.5576	-0.0058
463.7592	-0.0108
463.9607	0.0005
464.1623	-0.0019
464.3638	0.0053
464.5653	0.0178
464.7668	0.0014
464.9683	0.0098
465.1697	-0.0014
465.3712	0.0002
465.5726	-0.0036
465.7741	-0.0022
465.9755	0.0044
466.1769	-0.0133
466.3782	0.003
466.5796	-0.012
466.7809	0.0026
466.9823	-0.0131
467.1836	-0.0016
467.3849	0.0012
467.5862	-0.0031
467.7875	-0.0054
467.9887	-0.0058
468.19	-0.0116
468.3912	-0.0037
468.5924	-0.0061
468.7936	-0.0069
468.9948	0.0127
469.196	0.0038
469.3972	0.0007
469.5983	0.0157
469.7994	-0.0042
470.0006	-0.0151
470.2017	0.0017
470.4027	-0.0019
470.6038	-0.0001
470.8049	-0.0071
471.0059	-0.0021
471.2069	0.0135
471.408	-0.0052
471.6089	-0.0091
471.8099	-0.0146
472.0109	-0.0059
472.2119	-0.0066
472.4128	-0.0092
472.6137	-0.0071
472.8146	-0.0042
473.0155	-0.0161
473.2164	-0.0106
473.4173	-0.0118
473.6181	0.0028
473.819	-0.0068
474.0198	0.0006
474.2206	-0.0001
474.4214	-0.0018
474.6222	-0.0155
474.8229	-0.0055
475.0237	0.0001
475.2244	0.0009
475.4251	-0.0056
475.6258	0.0006
475.8265	0.0027
476.0272	-0.0044
476.2278	0.0029
476.4285	-0.0008
476.6291	-0.012
476.8297	-0.0088
477.0303	-0.0121
477.2309	0.0055
477.4315	0.0005
477.632	-0.0155
477.8326	0.0004
478.0331	-0.0069
478.2336	-0.0057
478.4341	-0.0075
478.6346	-0.001
478.8351	-0.0036
479.0355	-0.0092
479.236	-0.003
479.4364	-0.0032
479.6368	0.003
479.8372	-0.0054
480.0376	-0.0081
480.2379	-0.0052
480.4383	-0.0041
480.6386	-0.0112
480.8389	-0.0127
481.0392	-0.0104
481.2395	-0.0095
481.4398	-0.0014
481.6401	-0.0151
481.8403	-0.0007
482.0405	-0.0126
482.2408	0.0016
482.441	-0.0096
482.6411	-0.001
482.8413	-0.0058
483.0415	0.0008
483.2416	-0.0015
483.4417	-0.0101
483.6419	-0.0071
483.8419	-0.0065
484.042	0.0002
484.2421	-0.0056
484.4422	-0.0159
484.6422	-0.0103
484.8422	-0.0108
485.0422	-0.0053
485.2422	-0.0028
485.4422	-0.0128
485.6422	-0.0093
485.8421	0.0035
486.042	-0.0012
486.242	-0.0109
486.4419	-0.0017
486.6417	-0.0061
486.8416	0.0012
487.0415	-0.0083
487.2413	-0.0011
487.4411	-0.0015
487.641	-0.0117
487.8408	-0.0056
488.0405	-0.0112
488.2403	-0.0055
488.4401	-0.0084
488.6398	-0.0089
488.8395	-0.0098
489.0392	-0.0054
489.2389	-0.0094
489.4386	-0.0084
489.6383	-0.0083
489.8379	-0.0123
490.0376	-0.0056
490.2372	-0.0031
490.4368	-0.0165
490.6364	-0.008
490.836	-0.0079
491.0355	-0.0073
491.2351	-0.0114
491.4346	-0.0072
491.6341	-0.0057
491.8336	-0.0081
492.0331	-0.0081
492.2326	-0.0072
492.432	-0.0012
492.6315	-0.0031
492.8309	-0.0078
493.0303	-0.0059
493.2297	-0.0035
493.4291	-0.0045
493.6284	-0.006
493.8278	-0.0003
494.0271	-0.0026
494.2264	-0.0019
494.4257	-0.0004
494.625	0.0009
494.8243	-0.0044
495.0236	-0.0191
495.2228	-0.0058
495.422	-0.0126
495.6213	-0.013
495.8205	-0.0049
496.0196	-0.0078
496.2188	-0.0059
496.418	-0.0105
496.6171	-0.0031
496.8162	-0.0094
497.0153	-0.0005
497.2144	-0.0051
497.4135	-0.0015
497.6126	-0.0106
497.8116	-0.0028
498.0107	-0.007
498.2097	-0.0084
498.4087	-0.0032
498.6077	-0.0094
498.8067	-0.0097
499.0056	-0.0008
499.2046	-0.0031
499.4035	-0.005
499.6024	-0.0073
499.8013	0.0001
500.0002	-0.0057
500.199	-0.0042
500.3979	-0.0031
500.5967	-0.0098
500.7956	-0.0153
500.9944	-0.0077
501.1932	-0.0084
501.3919	-0.0099
501.5907	-0.0075
501.7895	-0.0047
501.9882	-0.0131
502.1869	-0.001
502.3856	-0.0056
502.5843	-0.0072
502.783	-0.0094
502.9816	-0.0096
503.1803	-0.0049
503.3789	-0.0037
503.5775	-0.0052
503.7761	-0.0047
503.9747	-0.008
504.1732	-0.0078
504.3718	-0.0056
504.5703	-0.0042
504.7689	-0.0091
504.9674	-0.0055
505.1658	-0.0078
505.3643	0.0029
505.5628	0.0034
505.7612	-0.0091
505.9597	-0.005
506.1581	-0.005
506.3565	-0.0035
506.5549	-0.008
506.7532	-0.007
506.9516	0.0009
507.1499	-0.0008
507.3482	-0.0068
507.5465	0.001
507.7448	-0.0072
507.9431	-0.0037
508.1414	-0.0131
508.3396	0.0024
508.5379	-0.0008
508.7361	-0.0033
508.9343	-0.0074
509.1325	-0.0018
509.3306	-0.0038
509.5288	-0.004
509.7269	-0.0139
509.9251	-0.0017
510.1232	-0.0006
510.3213	-0.0109
510.5193	-0.0014
510.7174	-0.0014
510.9154	-0.0083
511.1135	-0.0088
511.3115	-0.0105
511.5095	-0.0105
511.7075	-0.0007
511.9055	-0.0024
512.1034	-0.0087
512.3014	-0.0103
512.4993	-0.0093
512.6972	-0.0018
512.8951	-0.0171
513.093	-0.0077
513.2908	-0.0003
513.4887	-0.0008
513.6865	-0.0107
513.8844	-0.0014
514.0822	0.0041
514.2799	-0.0109
514.4777	-0.0032
514.6755	-0.0023
514.8732	-0.003
515.0709	-0.0056
515.2687	-0.007
515.4664	-0.0076
515.664	-0.0083
515.8617	-0.0076
516.0594	-0.0089
516.257	0.0001
516.4546	-0.0066
516.6522	-0.0044
516.8498	-0.0116
517.0474	-0.0051
517.2449	-0.0063
517.4425	-0.0088
517.64	-0.0106
517.8375	-0.0063
518.035	-0.0033
518.2325	-0.0069
518.43	0.0022
518.6274	-0.0132
518.8249	-0.0091
519.0223	-0.0081
519.2197	-0.0053
519.4171	-0.004
519.6145	-0.0034
519.8118	-0.0114
520.0092	-0.0004
520.2065	-0.0134
520.4038	-0.0069
520.6011	-0.0132
520.7984	-0.0066
520.9956	-0.0049
521.1929	-0.0074
521.3901	-0.0084
521.5874	-0.0075
521.7846	-0.0025
521.9818	-0.0063
522.1789	-0.0082
522.3761	-0.0073
522.5732	-0.0044
522.7704	-0.0134
522.9675	-0.0072
523.1646	-0.0016
523.3617	-0.0064
523.5587	-0.0084
523.7558	-0.0005
523.9528	-0.0023
524.1498	-0.0034
524.3468	-0.0011
524.5438	-0.0066
524.7408	-0.0072
524.9378	-0.0164
525.1347	0.0001
525.3316	-0.0084
525.5285	-0.0106
525.7254	-0.0105
525.9223	-0.0037
526.1192	-0.0076
526.316	0.0009
526.5129	-0.0035
526.7097	-0.0104
526.9065	-0.0014
527.1033	-0.0057
527.3	-0.0071
527.4968	-0.012
527.6935	-0.0044
527.8903	0.0004
528.087	-0.0064
528.2837	-0.0058
528.4804	-0.0111
528.677	-0.002
528.8737	-0.0083
529.0703	-0.001
529.2669	0.0061
529.4635	-0.0058
529.6601	-0.0105
529.8567	-0.0091
530.0532	-0.0075
530.2498	-0.0052
530.4463	-0.0076
530.6428	-0.0046
530.8393	-0.0037
531.0358	-0.0108
531.2322	-0.006
531.4287	-0.0159
531.6251	-0.0067
531.8215	-0.0041
532.0179	-0.009
532.2143	-0.0072
532.4107	-0.0003
532.607	-0.0095
532.8034	-0.0095
532.9997	-0.0049
533.196	-0.0069
533.3923	-0.0061
533.5886	-0.0017
533.7848	-0.0037
533.9811	-0.0072
534.1773	-0.008
534.3735	-0.0012
534.5697	-0.0029
534.7659	-0.0084
534.9621	-0.0037
535.1582	-0.0048
535.3544	-0.0108
535.5505	-0.003
535.7466	-0.0079
535.9427	-0.0008
536.1387	0.0049
536.3348	-0.0013
536.5308	-0.0059
536.7269	0.0005
536.9229	-0.0015
537.1189	-0.0092
537.3148	-0.0007
537.5108	-0.0038
537.7068	-0.0071
537.9027	-0.013
538.0986	0.0039
538.2945	0.0019
538.4904	-0.0115
538.6863	-0.0055
538.8821	-0.0045
539.078	-0.0101
539.2738	-0.013
539.4696	-0.0064
539.6654	-0.0078
539.8611	-0.0053
540.0569	-0.0063
540.2526	-0.0029
540.4484	-0.0001
540.6441	0.005
540.8398	-0.0096
541.0355	-0.0058
541.2311	-0.004
541.4268	0.0018
541.6224	-0.003
541.818	-0.0054
542.0136	-0.0048
542.2092	-0.0102
542.4048	-0.0131
542.6003	-0.0015
542.7959	0.0042
542.9914	-0.0091
543.1869	-0.0071
543.3824	-0.007
543.5779	-0.0091
543.7734	-0.0108
543.9688	-0.013
544.1642	-0.0078
544.3596	-0.0098
544.555	-0.0017
544.7504	-0.0064
544.9458	-0.0036
545.1411	0.0041
545.3365	-0.0066
545.5318	-0.0018
545.7271	-0.0002
545.9224	0.0031
546.1177	-0.01
546.3129	0.0019
546.5081	-0.0058
546.7034	-0.0084
546.8986	-0.0049
547.0938	0.0016
547.289	-0.0039
547.4841	-0.0071
547.6793	-0.0042
547.8744	-0.0021
548.0695	-0.009
548.2646	-0.0078
548.4597	0.003
548.6548	-0.0049
548.8498	-0.0104
549.0448	-0.0002
549.2399	-0.0023
549.4349	0.0024
549.6298	-0.0052
549.8248	-0.0017
550.0198	-0.0027
550.2147	-0.0012
550.4096	-0.0082
550.6045	-0.0086
550.7994	0.0018
550.9943	-0.0021
551.1892	-0.0063
551.384	-0.0152
551.5788	-0.0101
551.7737	-0.0003
551.9685	-0.0074
552.1632	-0.0074
552.358	-0.0114
552.5528	-0.0077
552.7475	-0.0107
552.9422	-0.0062
553.1369	-0.0084
553.3316	0.0045
553.5263	-0.0055
553.7209	-0.0074
553.9156	-0.0025
554.1102	-0.007
554.3048	-0.0075
554.4994	-0.0058
554.694	0.0018
554.8885	-0.0001
555.0831	-0.0023
555.2776	-0.0027
555.4721	-0.006
555.6666	-0.0063
555.8611	-0.0021
556.0555	-0.007
556.25	-0.0026
556.4444	-0.0041
556.6388	-0.0095
556.8332	-0.002
557.0276	-0.0092
557.222	-0.003
557.4163	0.0028
557.6107	-0.0086
557.805	-0.0089
557.9993	-0.0069
558.1936	-0.0035
558.3879	0.0059
558.5821	-0.0048
558.7764	-0.0113
558.9706	-0.0079
559.1648	-0.0077
559.359	-0.0102
559.5532	-0.006
559.7473	-0.0076
559.9415	-0.003
560.1356	-0.0037
560.3297	-0.0112
560.5238	-0.0063
560.7179	-0.0025
560.9119	0.0002
561.106	-0.0019
561.3	-0.004
561.494	-0.0025
561.688	-0.0004
561.882	-0.0049
562.076	-0.0058
562.2699	-0.0035
562.4639	-0.0047
562.6578	-0.01
562.8517	-0.0035
563.0456	-0.004
563.2395	-0.003
563.4333	-0.0046
563.6272	-0.0045
563.821	-0.0015
564.0148	0.0039
564.2086	-0.0029
564.4024	-0.0053
564.5961	0.0014
564.7899	0.0003
564.9836	0.0016
565.1773	-0.0063
565.371	-0.0009
565.5647	-0.0019
565.7584	0.0054
565.952	-0.0016
566.1456	-0.005
566.3393	-0.0046
566.5329	0.0015
566.7264	0.0021
566.92	-0.0043
567.1136	-0.004
567.3071	0.0001
567.5006	-0.0004
567.6941	-0.0024
567.8876	-0.0065
568.0811	-0.0057
568.2745	-0.0103
568.468	-0.0047
568.6614	-0.0107
568.8548	-0.0085
569.0482	-0.0071
569.2416	-0.002
569.4349	-0.0017
569.6283	-0.0044
569.8216	-0.0044
570.0149	-0.0052
570.2082	-0.0016
570.4015	-0.0012
570.5947	-0.0039
570.788	-0.0087
570.9812	-0.0046
571.1744	-0.0074
571.3676	-0.0034
571.5608	-0.0048
571.754	-0.0041
571.9471	-0.0044
572.1402	-0.0058
572.3333	-0.0012
572.5264	-0.0052
572.7195	-0.002
572.9126	-0.0032
573.1057	-0.0055
573.2987	-0.0006
573.4917	-0.0069
573.6847	-0.0029
573.8777	-0.0048
574.0707	-0.0001
574.2636	-0.0021
574.4566	-0.0021
574.6495	-0.0076
574.8424	-0.0021
575.0353	-0.0032
575.2281	-0.0067
575.421	-0.0052
575.6138	-0.0021
575.8067	-0.0033
575.9995	0.0001
576.1923	-0.0027
576.385	-0.0037
576.5778	-0.0007
576.7706	0.002
576.9633	-0.0037
577.156	0.0027
577.3487	-0.0001
577.5414	0.0038
577.734	0.0027
577.9267	0.001
578.1193	-0.0047
578.3119	0.0009
578.5045	-0.0024
578.6971	-0.0038
578.8897	-0.0054
579.0822	-0.0002
579.2747	0.0008
579.4673	-0.0024
579.6598	-0.0032
579.8522	-0.0035
580.0447	-0.0041
580.2372	0.0018
580.4296	0.0017
580.622	0.0002
580.8144	-0.0051
581.0068	-0.0002
581.1992	0.0036
581.3915	-0.0038
581.5839	-0.0025
581.7762	-0.0062
581.9685	-0.0025
582.1608	-0.0057
582.353	0.0005
582.5453	-0.0051
582.7375	0.0013
582.9298	-0.0054
583.122	0.0005
583.3142	-0
583.5063	-0.0034
583.6985	-0.003
583.8906	-0.0044
584.0827	-0.0052
584.2749	-0.009
584.4669	-0.0053
584.659	-0.009
584.8511	-0.0041
585.0431	-0.0036
585.2352	-0.0071
585.4272	-0.0026
585.6192	-0.0063
585.8111	-0.0075
586.0031	-0.0009
586.195	-0.0065
586.387	0.0014
586.5789	-0.0047
586.7708	-0.0047
586.9627	-0.0044
587.1545	-0.0038
587.3464	-0.006
587.5382	-0.0046
587.73	-0.005
587.9218	-0.0057
588.1136	-0.0027
588.3053	-0.0028
588.4971	-0.0088
588.6888	-0.0043
588.8805	-0.0063
589.0722	0.0016
589.2639	-0.0002
589.4556	-0.0024
589.6472	-0.0047
589.8389	-0.0027
590.0305	-0.0051
590.2221	-0.0001
590.4137	-0.005
590.6052	-0.0022
590.7968	-0.003
590.9883	-0.0033
591.1798	-0.0054
591.3713	0.0001
591.5628	-0.0077
591.7543	-0.0033
591.9458	-0.0077
592.1372	-0.0021
592.3286	-0.0006
592.52	-0.0007
592.7114	0.0059
592.9028	-0.0054
593.0941	-0.001
593.2855	-0.003
593.4768	0.0012
593.6681	0.0001
593.8594	0.0008
594.0506	-0.0046
594.2419	0.0023
594.4331	-0.0022
594.6244	-0.0005
594.8156	-0.0052
595.0067	-0.0024
595.1979	-0.0047
595.3891	-0.0052
595.5802	-0.0037
595.7713	0.0005
595.9624	0.0021
596.1535	0.0043
596.3446	-0.0044
596.5357	0.0014
596.7267	-0.0022
596.9177	0.0001
597.1087	-0.0008
597.2997	0.0044
597.4907	-0.003
597.6817	0.0021
597.8726	-0.0083
598.0635	-0.004
598.2544	-0.004
598.4453	-0.005
598.6362	-0.002
598.827	-0.0047
599.0179	-0.0005
599.2087	-0.0108
599.3995	-0.0059
599.5903	-0.0017
599.7811	-0.0082
599.9718	-0.001
600.1626	-0.0012
600.3533	-0.0034
600.544	-0.0052
600.7347	0.0037
600.9254	0.0014
601.116	-0.0062
601.3067	-0.0016
601.4973	-0.0059
601.6879	-0.0029
601.8785	-0.007
602.0691	-0.0003
602.2596	-0.0019
602.4502	-0.0074
602.6407	0.0019
602.8312	-0.0043
603.0217	-0.005
603.2122	-0.0032
603.4027	-0.0011
603.5931	-0.0077
603.7835	-0.003
603.9739	-0.002
604.1643	-0.0037
604.3547	-0.0027
604.5451	0.0007
604.7354	-0.0023
604.9257	-0.0024
605.116	-0.0011
605.3063	-0.0017
605.4966	-0.0008
605.6869	0.0008
605.8771	-0.0033
606.0673	-0.0024
606.2575	-0.0058
606.4477	-0.0023
606.6379	-0.0083
606.8281	-0.0066
607.0182	-0.0097
607.2083	-0.0062
607.3985	-0.0093
607.5885	-0.0019
607.7786	-0.0026
607.9687	-0.0032
608.1587	-0.0065
608.3488	-0.0032
608.5388	0.0025
608.7288	-0.0053
608.9187	0.0009
609.1087	-0.0048
609.2986	-0.0052
609.4886	-0.0027
609.6785	-0.0031
609.8684	-0.0071
610.0582	-0.0015
610.2481	-0.0054
610.4379	0.0003
610.6278	-0.004
610.8176	0.0001
611.0074	-0.0044
611.1971	-0.0025
611.3869	-0.0021
611.5766	-0.0009
611.7664	0.0032
611.9561	-0.0039
612.1458	0.0009
612.3354	-0.003
612.5251	-0.0063
612.7147	-0.0029
612.9044	-0.0053
613.094	-0.003
613.2836	-0.0012
613.4731	-0.0124
613.6627	-0.0044
613.8522	-0.0023
614.0417	-0.0071
614.2313	-0.0064
614.4207	-0.0006
614.6102	0.0026
614.7997	-0.0036
614.9891	-0.0076
615.1785	-0.0052
615.3679	-0.0013
615.5573	-0.0014
615.7467	0.0013
615.9361	-0.0053
616.1254	-0.0025
616.3147	-0.004
616.504	-0.0041
616.6933	-0.004
616.8826	-0.0041
617.0718	-0.0071
617.2611	0.0003
617.4503	0.0001
617.6395	-0.0054
617.8287	-0.0019
618.0179	0.0034
618.207	-0.0063
618.3961	-0.0046
618.5853	-0.0052
618.7744	-0.0059
618.9634	0.0035
619.1525	-0.0044
619.3416	-0.0087
619.5306	-0.002
619.7196	0.0012
619.9086	-0.0016
620.0976	-0.0018
620.2866	0.003
620.4755	-0.0062
620.6645	-0.0009
620.8534	0.001
621.0423	-0.0026
621.2312	-0.0089
621.42	-0.0023
621.6089	-0.0043
621.7977	-0.0028
621.9865	-0.0042
622.1753	0.0011
622.3641	0.0062
622.5529	-0.0005
622.7416	-0.0048
622.9303	0.0018
623.1191	-0.0063
623.3078	0.002
623.4964	0.0001
623.6851	0.0016
623.8737	-0.0001
624.0624	-0.0017
624.251	0.0003
624.4396	0.0029
624.6282	-0.0009
624.8167	0.0066
625.0053	-0.002
625.1938	-0.0009
625.3823	-0.0032
625.5708	-0.0014
625.7593	-0.002
625.9477	-0.0066
626.1362	-0.0005
626.3246	-0.0059
626.513	-0.0084
626.7014	-0.0003
626.8898	-0.0024
627.0781	-0.0009
627.2665	-0.0033
627.4548	-0.0037
627.6431	-0.0062
627.8314	-0.0082
628.0197	-0.0042
628.2079	0.0018
628.3962	0.0029
628.5844	0.0001
628.7726	0.0011
628.9608	0.0008
629.1489	0.0026
629.3371	0.0035
629.5252	0.0038
629.7134	0.0018
629.9015	0.002
630.0895	-0.0032
630.2776	0.0022
630.4657	-0.0002
630.6537	-0.0014
630.8417	-0.0025
631.0297	-0.0002
631.2177	-0.0003
631.4057	-0.0006
631.5936	0.0005
631.7815	-0.0028
631.9695	-0.0014
632.1574	-0.0041
632.3452	-0.0069
632.5331	-0.0059
632.7209	-0.0067
632.9088	-0.0041
633.0966	-0.0002
633.2844	-0.0053
633.4722	-0.0016
633.6599	-0.0015
633.8477	-0.0056
634.0354	-0.0037
634.2231	-0.0067
634.4108	-0.0012
634.5985	-0.0004
634.7861	-0.0051
634.9738	-0.0051
635.1614	-0.0075
635.349	-0.0044
635.5366	-0.0074
635.7242	-0.0004
635.9117	0.0022
636.0993	-0.004
636.2868	-0.0025
636.4743	0.0011
636.6618	-0.0063
636.8492	0.0001
637.0367	-0.0036
637.2241	-0.0059
637.4115	-0.0039
637.5989	-0.0027
637.7863	-0.0011
637.9737	-0.003
638.161	-0.0021
638.3484	-0.003
638.5357	-0.001
638.723	-0.0011
638.9103	-0.0017
639.0975	0.0024
639.2848	-0.0019
639.472	-0.0013
639.6592	0.0031
639.8464	-0.0044
640.0336	-0.0049
640.2208	0.0009
640.4079	-0.0052
640.595	0.0019
640.7821	-0.0022
640.9692	0.0036
641.1563	0.0037
641.3434	0.0049
641.5304	-0.0006
641.7174	0.002
641.9044	0.0034
642.0914	-0.0015
642.2784	0.006
642.4653	0.0064
642.6523	-0.0018
642.8392	0.0027
643.0261	0.0043
643.213	0.003
643.3999	-0.0018
643.5867	0.0013
643.7735	0.0019
643.9604	-0.0002
644.1472	-0.0037
644.3339	-0.0004
644.5207	-0.0028
644.7075	-0.0073
644.8942	-0.0037
645.0809	-0.0016
645.2676	-0.0052
645.4543	0.0004
645.6409	-0.0009
645.8276	-0.0005
646.0142	-0.005
646.2008	-0.009
646.3874	-0.0049
646.574	-0.0042
646.7605	0.0001
646.9471	-0.01
647.1336	-0.0063
647.3201	-0.0048
647.5066	-0.0018
647.6931	0.003
647.8795	-0.0049
648.0659	-0.0053
648.2524	-0.0007
648.4388	-0.0027
648.6252	-0.0026
648.8115	-0.0091
648.9979	-0.0034
649.1842	-0.0108
649.3705	0.0004
649.5568	-0.0035
649.7431	0.0001
649.9294	-0.0008
650.1156	-0.0057
650.3018	-0.0074
650.488	-0.0087
650.6742	-0.0062
650.8604	0.0004
651.0466	0.0012
651.2327	-0.0039
651.4188	0.0003
651.6049	0.0007
651.791	-0.0011
651.9771	-0.0016
652.1632	0.0049
652.3492	0.0001
652.5352	-0.0016
652.7212	0.0003
652.9072	0.0043
653.0932	0.0006
653.2791	0.0007
653.465	-0.0003
653.651	-0.0018
653.8369	-0.0051
654.0227	0.0012
654.2086	-0.0007
654.3944	-0.0082
654.5803	-0.007
654.7661	-0.0039
654.9519	-0.0025
655.1377	-0.0015
655.3234	-0.0001
655.5092	-0.0001
655.6949	-0.0001
655.8806	-0.0001
656.0663	-0.0001
656.2519	-0.0001
656.4376	-0.0034
656.6232	-0.0031
656.8088	-0.0048
656.9945	-0.0022
657.18	0.0021
657.3656	-0.0002
657.5511	-0.0031
657.7367	-0.0054
657.9222	-0.0001
658.1077	-0.0024
658.2932	-0.0019
658.4786	0.0009
658.6641	-0.0027
658.8495	-0.0041
659.0349	-0.0009
659.2203	-0.0056
659.4057	-0.0066
659.591	-0.0005
659.7764	-0.0041
659.9617	-0.0035
660.147	-0.0002
660.3323	-0.0069
660.5176	-0.0072
660.7028	-0.0044
660.888	-0.0069
661.0733	0.005
661.2585	-0.0065
661.4436	0.0011
661.6288	-0.0036
661.8139	-0.0001
661.9991	0.0017
662.1842	-0.0007
662.3693	-0.0039
662.5544	-0.0015
662.7394	0.0031
662.9245	-0.0037
663.1095	0.0038
663.2945	-0.002
663.4795	-0.003
663.6644	-0.0047
663.8494	-0.0036
664.0343	-0.008
664.2193	-0.0028
664.4042	-0.0058
664.589	-0.0043
664.7739	-0.0039
664.9587	0.0047
665.1436	0.002
665.3284	-0.0014
665.5132	0.0001
665.698	0.0018
665.8827	0.0003
666.0675	-0.0046
666.2522	-0.0073
666.4369	-0.0057
666.6216	-0.0058
666.8063	-0.0047
666.9909	-0.0081
667.1756	-0.005
667.3602	-0.0088
667.5448	-0.0066
667.7294	-0.0064
667.9139	-0.0034
668.0985	-0.0079
668.283	-0.0067
668.4675	-0.0135
668.652	-0.0096
668.8365	-0.0091
669.0209	-0.0096
669.2054	-0.0068
669.3898	-0.0037
669.5742	-0.0071
669.7586	-0.0029
669.943	-0.0069
670.1273	-0.0061
670.3117	-0.0021
670.496	-0.0095
670.6803	0.0004
670.8646	-0.0028
671.0488	-0.0034
671.2331	-0.0006
671.4173	-0.0023
671.6015	-0.0008
671.7857	-0.0042
671.9699	-0.0035
672.1541	-0.0019
672.3382	-0.0047
672.5223	-0.0068
672.7064	-0.0076
672.8905	-0.0152
673.0746	-0.0074
673.2587	-0.0135
673.4427	-0.0118
673.6267	-0.0112
673.8107	-0.0125
673.9947	-0.005
674.1787	-0.0063
674.3626	-0.0066
674.5465	-0.0028
674.7304	-0.0006
674.9143	-0.008
675.0982	-0.004
675.2821	-0.0063
675.4659	-0.0059
675.6497	-0.0034
675.8335	-0.0037
676.0173	-0.0089
676.2011	-0.0055
676.3849	-0.0066
676.5686	-0.0005
676.7523	-0.003
676.936	0.0037
677.1197	-0.0029
677.3034	-0.0009
677.487	-0.005
677.6706	-0.0038
677.8542	-0.0015
678.0378	-0.0021
678.2214	-0.0053
678.405	-0.0017
678.5885	-0.0077
678.772	-0.0018
678.9555	-0.0051
679.139	-0.0064
679.3225	-0.0088
679.5059	-0.0069
679.6894	-0.003
679.8728	-0.0026
680.0562	0.0008
680.2395	-0.0023
680.4229	-0.0001
680.6062	-0.0002
680.7896	-0.0003
680.9729	-0.0027
681.1562	0.0003
681.3394	0.002
681.5227	-0.0067
681.7059	-0.0075
681.8891	-0.0092
682.0723	-0.0048
682.2555	-0.0057
682.4387	-0.0022
682.6218	-0.0101
682.805	-0.001
682.9881	-0.0006
683.1712	0.0033
683.3542	0.0016
683.5373	-0.0034
683.7203	0.0004
683.9034	-0.0037
684.0864	-0.0105
684.2694	-0.005
684.4523	-0.0045
684.6353	-0.0018
684.8182	-0.002
685.0011	-0.0042
685.184	-0.0027
685.3669	-0.0044
685.5498	-0.0045
685.7326	0.0024
685.9154	-0.0018
686.0982	-0.0079
686.281	-0.0061
686.4638	-0.0089
686.6465	-0.0075
686.8293	-0.0048
687.012	-0.0021
687.1947	-0.0056
687.3774	-0.0098
687.56	-0.0052
687.7427	-0.0047
687.9253	-0.0008
688.1079	-0.0018
688.2905	-0.0009
688.4731	0.0013
688.6556	-0.0013
688.8382	-0.0011
689.0207	-0.0029
689.2032	0.0034
689.3857	0.0055
689.5681	-0.0009
689.7506	-0.0044
689.933	0.0009
690.1154	0.0002
690.2978	0.0043
690.4802	0.0005
690.6626	0.0041
690.8449	0.0046
691.0272	0.0002
691.2095	0.0023
691.3918	-0.0016
691.5741	-0.0059
691.7563	0.0002
691.9386	-0.0034
692.1208	-0.0076
692.303	-0.0003
692.4852	-0.0007
692.6673	0.0006
692.8495	-0.0036
693.0316	-0.0031
693.2137	-0.0054
693.3958	-0.0058
693.5778	-0.0015
693.7599	-0.0048
693.9419	-0.0095
694.1239	-0.0036
694.3059	-0.0095
694.4879	-0.0015
694.6699	-0.0058
694.8518	-0.0059
695.0337	-0.0071
695.2157	-0.0035
695.3975	-0.0041
695.5794	-0.0041
695.7613	-0.0057
695.9431	-0.005
696.1249	-0.0045
696.3067	-0.0028
696.4885	-0.0043
696.6703	-0.0035
696.852	-0.0065
697.0337	-0.0019
697.2154	-0.0004
697.3971	-0.0039
697.5788	-0.005
697.7605	-0.0046
697.9421	-0.0035
698.1237	-0.0039
698.3053	-0.0043
698.4869	0.0015
698.6685	-0.0034
698.85	-0.0051
699.0315	-0.0008
699.213	0.0047
699.3945	-0.0005
699.576	0.0078
699.7575	-0.0018
699.9389	0.0027
700.1203	-0.0074
700.3017	-0.0079
700.4831	-0.0051
700.6645	-0.0072
700.8458	-0.0023
701.0271	-0.0025
701.2084	-0.0083
701.3897	-0.0008
701.571	0.0046
701.7523	0.0029
701.9335	0.0046
702.1147	0.0027
702.2959	-0.0037
702.4771	0.0019
702.6583	0.0036
702.8394	0
703.0205	0.0021
703.2016	-0.0047
703.3827	0.0007
703.5638	-0.0107
703.7449	-0.0035
703.9259	-0.001
704.1069	-0.0035
704.2879	-0.0011
704.4689	-0.0015
704.6499	-0.0016
704.8308	-0.0026
705.0117	-0.0018
705.1927	-0.0038
705.3735	0.0029
705.5544	0.0005
705.7353	-0.0006
705.9161	0.0018
706.0969	0.0063
706.2777	0.0001
706.4585	-0.0019
706.6393	-0.0021
706.82	-0.0032
707.0007	-0.0038
707.1815	0.0035
707.3621	-0.004
707.5428	-0.0055
707.7235	-0.0029
707.9041	0.0003
708.0847	-0.0065
708.2653	-0.0064
708.4459	-0.0032
708.6265	-0.0044
708.807	0.0037
708.9875	-0.0035
709.168	-0.0039
709.3485	-0.0066
709.529	-0.0074
709.7095	-0.0074
709.8899	-0.0098
710.0703	0.0075
710.2507	-0.003
710.4311	-0.0009
710.6115	0.0014
710.7918	-0.0021
710.9721	-0.0028
711.1524	0.0024
711.3327	-0.0003
711.513	-0.0034
711.6932	-0.0047
711.8735	0.0022
712.0537	-0.0058
712.2339	-0.0014
712.4141	-0.0012
712.5942	0.0006
712.7744	0.0018
712.9545	0.0049
713.1346	-0.0034
713.3147	0.0045
713.4947	0.0071
713.6748	-0.0013
713.8548	-0.0048
714.0348	-0.0046
714.2148	-0.007
714.3948	-0.0062
714.5748	-0.0092
714.7547	0.0004
714.9346	-0.0032
715.1145	-0.002
715.2944	-0.0026
715.4743	-0.0053
715.6541	-0.0062
715.834	-0.0062
716.0138	-0.0032
716.1936	0.0019
716.3733	-0.0039
716.5531	-0.0058
716.7328	-0.0008
716.9126	-0.0002
717.0923	-0.0027
717.2719	-0.0077
717.4516	0.0007
717.6312	0.0057
717.8109	-0.0018
717.9905	-0.0056
718.1701	-0.001
718.3496	0.0003
718.5292	-0.005
718.7087	-0.0028
718.8882	-0.0053
719.0677	-0.0008
719.2472	0.0027
719.4267	-0.0143
719.6061	-0.0074
719.7856	-0.0038
719.965	-0.0044
720.1443	-0.0027
720.3237	-0.0014
720.5031	-0.0042
720.6824	-0.0018
720.8617	-0.0072
721.041	0.0007
721.2203	-0.0049
721.3995	-0.0039
721.5788	-0.005
721.758	-0.0049
721.9372	-0.0032
722.1164	-0.0095
722.2956	-0.0054
722.4747	-0.0047
722.6538	-0.0052
722.8329	-0.0032
723.012	-0.0062
723.1911	-0.0017
723.3702	0.0051
723.5492	-0.0079
723.7282	-0.002
723.9072	0.0006
724.0862	-0.0046
724.2652	-0.0016
724.4441	-0.0037
724.623	0.0028
724.8019	-0.0049
724.9808	0.0013
725.1597	0.0045
725.3385	0.0045
725.5174	-0.0026
725.6962	-0.0081
725.875	0.0014
726.0538	0.006
726.2325	0.0002
726.4112	0.0021
726.59	-0.0003
726.7687	0.0032
726.9474	-0.0059
727.126	-0.0033
727.3047	-0.0024
727.4833	0.0016
727.6619	-0.0105
727.8405	0.0011
728.0191	-0.0038
728.1976	-0.0081
728.3762	-0.0065
728.5547	-0.0063
728.7332	-0.0106
728.9116	-0.0097
729.0901	-0.0115
729.2686	-0.0035
729.447	-0.0066
729.6254	-0.0077
729.8038	-0.0076
729.9821	0.0028
730.1605	-0.0001
730.3388	0.0072
730.5171	-0.0022
730.6954	0.0044
730.8737	0.0007
731.0519	-0.0032
731.2302	0.0012
731.4084	0.0025
731.5866	0.0032
731.7648	0.0005
731.9429	0.005
732.1211	0.001
732.2992	0.0038
732.4773	-0.0043
732.6554	-0.0062
732.8335	-0.0097
733.0115	-0.0051
733.1896	-0.0081
733.3676	-0.0001
733.5456	0.0012
733.7235	-0.0027
733.9015	0.0019
734.0794	0.0046
734.2574	-0.0027
734.4353	0.002
734.6131	0.0069
734.791	-0.0017
734.9689	-0.0085
735.1467	-0.0009
735.3245	0.0012
735.5023	-0.0017
735.68	-0.0054
735.8578	0
736.0355	0.0056
736.2132	0.0023
736.3909	-0.0042
736.5686	-0.0018
736.7463	-0.0051
736.9239	-0.0076
737.1015	-0.0039
737.2791	-0.0085
737.4567	-0.004
737.6343	0.0016
737.8118	-0.0025
737.9894	-0.0016
738.1669	-0.0024
738.3444	-0.0036
738.5218	0.0034
738.6993	0.0018
738.8767	0.0043
739.0541	-0.0081
739.2315	-0.0042
739.4089	-0.0031
739.5863	-0.0073
739.7636	-0.0061
739.9409	0.0009
740.1182	-0.0015
740.2955	-0.0031
740.4728	-0.0012
740.65	-0.0057
740.8272	0.0027
741.0044	-0.0025
741.1816	0.0076
741.3588	0.0026
741.5359	0.0023
741.7131	0.0063
741.8902	0.0018
742.0673	-0.0024
742.2444	-0.0059
742.4214	-0.0027
742.5985	-0.0062
742.7755	-0.0038
742.9525	-0.0034
743.1295	-0.0065
743.3064	-0.0065
743.4834	-0.001
743.6603	-0.0026
743.8372	0.0031
744.0141	-0.0022
744.191	-0.0028
744.3678	-0.0053
744.5446	0.002
744.7215	-0.0067
744.8982	0.0019
745.075	-0.0006
745.2518	-0.0017
745.4285	0.0042
745.6052	0.0023
745.7819	-0.0001
745.9586	0.0008
746.1353	-0.0056
746.3119	0.0024
746.4885	-0.0073
746.6651	-0.0034
746.8417	-0.0019
747.0183	-0.0053
747.1948	-0.0082
747.3714	-0.0073
747.5479	-0.0004
747.7244	-0.0018
747.9008	0.0033
748.0773	0.0026
748.2537	0.0008
748.4301	0.0029
748.6065	-0.0011
748.7829	0.0038
748.9593	0.0014
749.1356	-0.0073
749.3119	0.0026
749.4882	0.0084
749.6645	-0.0004
749.8408	-0.0019
750.017	-0.0063
750.1933	-0.0038
750.3695	-0.0054
750.5457	-0.0019
750.7218	-0.0101
750.898	-0.0021
751.0741	-0.0056
751.2502	-0.0027
751.4263	-0.0069
751.6024	-0.0052
751.7784	0.0005
751.9545	-0.0002
752.1305	0.0044
752.3065	-0.0046
752.4825	-0.001
752.6584	-0.0058
752.8344	0.001
753.0103	0.0028
753.1862	0.007
753.3621	0.0006
753.5379	-0.0052
753.7138	-0.0007
753.8896	-0.0103
754.0654	-0.013
754.2412	-0.0106
754.417	-0.0056
754.5927	-0.0005
754.7685	-0.012
754.9442	-0.0051
755.1199	-0.008
755.2956	-0.0047
755.4712	-0.0034
755.6469	-0.0115
755.8225	-0.009
755.9981	-0.0085
756.1736	-0.0043
756.3492	-0.0063
756.5248	-0.003
756.7003	-0.0084
756.8758	-0.0104
757.0513	-0.011
757.2267	-0.0085
757.4022	-0.0061
757.5776	-0.0069
757.753	-0.0119
757.9284	-0.0061
758.1038	-0.0035
758.2791	-0.0129
758.4545	-0.0088
758.6298	-0.0084
758.8051	-0.012
758.9803	-0.0074
759.1556	-0.0031
759.3308	-0.001
759.506	-0.0125
759.6812	-0.0084
759.8564	-0.0035
760.0316	-0.0104
760.2067	-0.0074
760.3819	-0.0036
760.557	-0.0092
760.732	-0.0102
760.9071	-0.0157
761.0821	-0.0153
761.2572	-0.0112
761.4322	-0.0053
761.6072	-0.0053
761.7821	-0.0097
761.9571	-0.0129
762.132	-0.0083
762.3069	-0.0014
762.4818	0.0018
762.6567	-0.0115
762.8316	-0.0049
763.0064	0.0015
763.1812	0.003
763.356	0.0006
763.5308	0.0009
763.7055	0.0032
763.8803	-0.0059
764.055	-0.0051
764.2297	0.0072
764.4044	-0.0046
764.579	-0.002
764.7537	-0.0072
764.9283	-0.0022
765.1029	0.0053
765.2775	0.0035
765.4521	0.0079
765.6266	0.0061
765.8011	-0
765.9756	0.0078
766.1501	0.0019
766.3246	-0.0048
766.4991	-0.0009
766.6735	-0.0081
766.8479	-0.0178
767.0223	0.0034
767.1967	-0.0025
767.371	-0.0025
767.5454	-0.0033
767.7197	0.0001
767.894	0.0001
768.0683	-0.0055
768.2425	-0.0088
768.4168	-0.006
768.591	0.0032
768.7652	0.0052
768.9394	0.0004
769.1135	0.0019
769.2877	-0.0023
769.4618	0.0105
769.6359	-0.0035
769.81	-0.0081
769.984	-0.0106
770.1581	-0.0013
770.3321	0.0015
770.5061	-0.0029
770.6801	0.0032
770.8541	0.0022
771.028	-0.0029
771.202	0.0014
771.3759	-0.0007
771.5498	0.007
771.7236	0.0041
771.8975	0.0012
772.0713	0.0002
772.2451	0.0007
772.4189	0.0012
772.5927	-0.0002
772.7665	-0.0025
772.9402	-0.004
773.1139	0.0048
773.2876	-0.004
773.4613	-0.0006
773.635	0.0077
773.8086	0.0038
773.9822	0.005
774.1558	0.0009
774.3294	0.0056
774.503	0.0014
774.6765	-0.0063
774.8501	0.0015
775.0236	-0.0149
775.1971	-0.0041
775.3705	-0.0008
775.544	-0.0015
775.7174	-0.0005
775.8908	-0.003
776.0642	-0.0046
776.2376	-0.0065
776.4109	-0.0045
776.5843	0.0028
776.7576	-0.0013
776.9309	0.0014
777.1041	0.005
777.2774	0.0018
777.4506	0.0021
777.6238	-0.0008
777.797	-0.0024
777.9702	-0.0048
778.1434	-0.0049
778.3165	-0.0029
778.4896	-0.0096
778.6627	-0.0073
778.8358	-0.0035
779.0089	-0.0063
779.1819	0.0023
779.3549	-0.0079
779.5279	-0.0006
779.7009	-0.0113
779.8739	-0.0036
780.0468	-0.0093
780.2197	-0.0058
780.3926	0.0005
780.5655	-0.0088
780.7384	0.0001
780.9112	-0.0065
781.0841	0.0007
781.2569	0.0003
781.4297	-0.0052
781.6024	-0.0004
781.7752	-0.0055
781.9479	-0.0077
782.1206	-0.0012
782.2933	-0.0034
782.466	0.0025
782.6386	-0.0015
782.8113	-0.0139
782.9839	-0.0024
783.1565	-0.0115
783.329	-0.0015
783.5016	-0.0082
783.6741	-0.0058
783.8466	-0.0135
784.0191	-0.0043
784.1916	-0.0027
784.3641	-0.0004
784.5365	0.0031
784.7089	0.002
784.8813	0.0055
785.0537	0.0116
785.2261	0.0028
785.3984	-0.0074
785.5707	0.0013
785.743	0.0067
785.9153	0.0019
786.0876	0.007
786.2598	0.001
786.432	0.008
786.6042	0.0046
786.7764	0.0074
786.9486	-0.0032
787.1207	-0.0038
787.2928	-0.0011
787.4649	-0.0031
787.637	-0.0132
787.8091	0.0019
787.9811	0.0017
788.1532	-0.0058
788.3252	-0.0098
788.4972	-0.0006
788.6691	-0.0059
788.8411	-0.0021
789.013	-0.0055
789.1849	0.0037
789.3568	-0.0033
789.5287	-0.007
789.7005	0.0003
789.8723	0.0024
790.0442	-0.0048
790.2159	-0.005
790.3877	-0.007
790.5595	-0.0084
790.7312	0.0015
790.9029	0.001
791.0746	-0.0036
791.2463	-0.0049
791.4179	-0.0039
791.5896	0.0006
791.7612	-0.0037
791.9328	0.0052
792.1044	-0.0099
792.2759	0.0055
792.4474	-0.009
792.619	-0.0114
792.7905	-0.0029
792.9619	-0.0008
793.1334	-0.0044
793.3048	-0.0053
793.4762	-0.0049
793.6476	-0.0156
793.819	-0.0056
793.9904	-0.0106
794.1617	-0.0142
794.333	-0.0036
794.5043	-0.0034
794.6756	0.0075
794.8469	0.0057
795.0181	-0.0157
795.1893	-0.0061
795.3605	-0.006
795.5317	-0.0075
795.7029	-0.0084
795.874	-0.0022
796.0452	-0.0084
796.2163	-0.0116
796.3873	-0.0207
796.5584	-0.0103
796.7294	-0.0072
796.9005	-0.0127
797.0715	-0.0088
797.2425	-0.0101
797.4134	-0.0102
797.5844	-0.0085
797.7553	-0.0067
797.9262	-0.0053
798.0971	-0.0195
798.2679	-0.0026
798.4388	-0.0046
798.6096	-0.015
798.7804	-0.0063
798.9512	-0.01
799.122	-0.0083
799.2927	-0.0119
799.4635	-0.0027
799.6342	-0.0145
799.8049	-0.0132
799.9755	-0.0108
800.1462	-0.0217
800.3168	-0.0108
800.4874	-0.0049
800.658	-0.0159
800.8286	-0.0104
800.9991	-0.0146
801.1696	-0.0168
801.3402	-0.0095
801.5106	-0.0182
801.6811	-0.017
801.8516	-0.0108
802.022	-0.0252
802.1924	-0.0105
802.3628	-0.028
802.5332	-0.021
802.7035	-0.0207
802.8739	-0.0116
803.0442	-0.01
803.2145	-0.0111
803.3847	-0.0257
803.555	-0.0189
803.7252	-0.0105
803.8954	-0.0183
804.0656	-0.0089
804.2358	-0.0228
804.4059	-0.0079
804.5761	-0.0071
804.7462	-0.004
804.9163	-0.0084
805.0864	-0.0015
805.2564	-0.0166
805.4264	-0.0196
805.5965	-0.0213
805.7665	-0.0053
805.9364	-0.0067
806.1064	-0.0108
806.2763	-0.0145
806.4462	-0.0022
806.6161	-0.0009
806.786	-0.009
806.9559	0.002
807.1257	-0.0113
807.2955	-0.0167
807.4653	-0.0063
807.6351	-0.0098
807.8048	-0.0034
807.9746	-0.0051
808.1443	-0.0006
808.314	-0.0136
808.4837	0.0022
808.6533	0.001
808.8229	-0.0018
808.9926	0.0035
809.1622	-0.0072
809.3317	0.0029
809.5013	0.0045
809.6708	0.0019
809.8403	-0.0016
810.0098	0.0063
810.1793	-0.0153
810.3488	0.0074
810.5182	-0.0005
810.6876	-0.0073
810.857	-0.0082
811.0264	-0.0146
811.1958	0.0076
811.3651	-0.0232
811.5344	-0.003
811.7037	-0.0092
811.873	-0.0101
812.0422	-0.0119
812.2115	-0.007
812.3807	-0.0088
812.5499	-0.005
812.7191	-0.0108
812.8882	0.0039
813.0574	-0.0063
813.2265	0.0071
813.3956	0.0067
813.5646	-0.0195
813.7337	0.0093
813.9027	0.0053
814.0718	-0.014
814.2407	0.01
814.4097	0.0027
814.5787	0.0049
814.7476	-0.0063
814.9165	-0.0035
815.0854	-0.0099
815.2543	0.0033
815.4232	-0.0054
815.592	0.0092
815.7608	-0.0067
815.9296	0.0006
816.0984	-0.0011
816.2671	-0.0075
816.4359	0.0034
816.6046	0.0061
816.7733	-0.0043
816.942	-0.0028
817.1106	0.0079
817.2793	-0.0097
817.4479	-0.0147
817.6165	-0.0068
817.785	-0.0061
817.9536	0.0014
818.1221	-0.008
818.2906	-0.0196
818.4591	-0.0075
818.6276	0.0023
818.7961	-0.0172
818.9645	-0.0099
819.1329	-0.0029
819.3013	-0.0128
819.4697	-0.0097
819.638	-0.0191
819.8064	0.0073
819.9747	-0.0058
820.143	0.0079
820.3113	-0.0078
820.4795	0.0103
820.6477	0.0019
820.816	0.0049
820.9842	-0.0069
821.1523	-0.0166
821.3205	-0.0118
821.4886	0.0068
821.6567	-0.0006
821.8248	-0.0128
821.9929	-0.0225
822.1609	0.0031
822.329	-0.0025
822.497	0.0035
822.665	-0.0315
822.833	-0.0383
823.0009	-0.0127
823.1688	-0.0106
823.3367	-0.0016
823.5046	0.0035
823.6725	-0.0074
823.8404	0.0011
824.0082	-0.0102
824.176	-0.0044
824.3438	-0.0043
824.5116	-0.0061
824.6793	-0.0165
824.847	-0.0064
825.0147	-0.0105
825.1824	-0.0196
825.3501	0.0071
825.5177	-0.002
825.6854	-0.0012
825.853	-0.0004
826.0206	-0.007
826.1881	-0.0085
826.3557	0.0099
826.5232	0.0091
826.6907	-0.0041
826.8582	0.008
827.0257	-0.0139
827.1931	0.0047
827.3605	-0.0011
827.528	0.0059
827.6953	-0.0133
827.8627	-0.0148
828.03	-0.0103
828.1974	0.004
828.3647	-0.0004
828.532	-0.0011
828.6992	-0.0048
828.8665	-0.01
829.0337	-0.0191
829.2009	-0.0192
829.3681	-0.0133
829.5352	-0.0095
829.7024	-0.0116
829.8695	-0.0218
830.0366	-0.0371
830.2037	-0.0003
830.3707	-0.0078
830.5378	-0.003
830.7048	-0.0025
830.8718	-0.0009
831.0388	-0.0081
831.2057	-0.0142
831.3727	-0.02
831.5396	0.0009
831.7065	0.0005
831.8734	0.0115
832.0402	-0.0216
832.2071	0.0011
832.3739	-0.0063
832.5407	-0.0117
832.7075	-0.008
832.8742	-0.0004
833.041	0.0092
833.2077	-0.0212
833.3744	-0.0094
833.541	-0.0124
833.7077	-0.0145
833.8743	0.0005
834.0409	0.0068
834.2075	0.0031
834.3741	-0.0045
834.5407	0.0107
834.7072	0.0036
834.8737	-0.0006
835.0402	-0.0343
835.2067	-0.0099
835.3731	-0.0192
835.5395	0.0045
835.706	-0.0305
835.8723	-0.0188
836.0387	-0.0281
836.2051	-0.0111
836.3714	0.0203
836.5377	0.0088
836.704	-0.0108
836.8703	-0.0297
837.0365	0.0097
837.2027	-0.0126
837.3689	-0.0163
837.5351	-0.024
837.7013	-0.0057
837.8674	-0.0029
838.0335	0.004
838.1997	-0.0156
838.3657	0.0001
838.5318	0.0018
838.6978	-0.0007
838.8639	-0.0067
839.0299	0.0026
839.1958	0.0127
839.3618	0.0221
839.5277	-0.007
839.6937	-0.0233
839.8596	-0.0127
840.0254	-0.005
840.1913	0.0075
840.3571	0.009
840.523	0.0082
840.6888	-0.0104
840.8545	-0.0055
841.0203	0.0013
841.186	-0.0005
841.3517	-0.0165
841.5174	-0.0204
841.6831	-0.0198
841.8488	0.0175
842.0144	0.0081
842.18	-0.0094
842.3456	-0.0057
842.5112	0.0001
842.6767	-0.0028
842.8422	0.0001
843.0077	-0.0019
843.1732	-0.0172
843.3387	-0.0378
843.5042	-0.0085
843.6696	0.008
843.835	-0.0333
844.0004	0.0093
844.1657	-0.0187
844.3311	-0.0123
844.4964	-0.0298
844.6617	0.0052
844.827	-0.0132
844.9923	-0.0089
845.1575	0.023
845.3227	-0.0132
845.4879	0.0025
845.6531	-0.0171
845.8183	-0.0159
845.9834	-0.019
846.1485	0.0242
846.3136	-0.0447
846.4787	-0.0065
846.6438	-0.0081
846.8088	0.034
846.9738	-0.0003
847.1388	-0.0041
847.3038	0.0341
847.4687	0.0316
847.6337	0.029
847.7986	0.0301
847.9635	-0.0018
848.1284	-0.0356
848.2932	-0.0036
848.458	0.0146
848.6228	0.0144
848.7876	-0.0383
848.9524	0.0448
849.1172	-0.0312
849.2819	0.0041
849.4466	-0.0192
849.6113	0.0037
849.7759	-0.0233
849.9406	-0.0131
850.1052	0.0089
850.2698	-0.0192
850.4344	0.0018
850.599	-0.0396
850.7635	0.0133
850.928	-0.0137
851.0925	0.0046
851.257	-0.0026
851.4215	0.0161
851.5859	0.017
851.7503	0.0165
851.9147	0.0131
852.0791	0.0135
852.2434	-0.0405
852.4078	0.042
852.5721	-0.0755
852.7364	-0.0587
852.9007	0.0386
853.0649	-0.0192
853.2291	-0.0359
853.3934	-0.0178
853.5575	-0.0098
853.7217	-0.0308
853.8859	-0.0005
854.05	0.0003
854.2141	-0.0622
854.3782	0.0089
854.5423	-0.0389
854.7063	0.0364
854.8703	0.0061
855.0343	-0.0125
855.1983	0.0245
855.3623	-0.0268
855.5262	-0.0006
855.6901	0.0031
855.854	-0.0053
856.0179	0.0736
856.1818	0.0022
856.3456	-0.0235
856.5094	0.0066
856.6732	0.0315
856.837	-0.0239
857.0008	0.0063
857.1645	0.0107
857.3282	-0.0405
857.4919	-0.0788
857.6556	0.0727
857.8192	-0.0208
857.9828	0.0298
858.1465	-0.0008
858.31	-0.0629
858.4736	-0.0942
858.6372	-0.0315
858.8007	-0.087
858.9642	-0.0968
859.1277	0.0363
859.2911	0.0298
859.4546	0.0372
859.618	-0.0291
859.7814	-0.0133
859.9448	-0.0882
860.1081	-0.0413
860.2715	-0.0009
860.4348	0.0235
860.5981	0.0039
860.7614	-0.0457
860.9246	-0.0115
861.0879	-0.0653
861.2511	-0.0367
861.4143	-0.1274
861.5774	0.0497
861.7406	-0.0049
861.9037	-0.2141
862.0668	0.0123
862.2299	-0.0106
862.393	-0.0137
862.556	0.0308
862.7191	-0.0683
862.8821	-0.0321
863.0451	0.0419
863.208	-0.0582
863.371	0.1392
863.5339	-0.0452
863.6968	-0.1345
863.8597	0.0244
864.0225	-0.2147
864.1854	0.0008
864.3482	-0.2371
864.511	-0.0155
864.6737	0.0749
864.8365	-0.059
864.9992	-0.0698
865.1619	-0.1256
865.3246	-0.137
865.4873	0.0821
865.65	0.0373
865.8126	0.0428
865.9752	-0.2005
866.1378	-0.04
866.3004	0.013
866.4629	-0.1611
866.6254	-0.0684
866.7879	-0.0392
866.9504	-0.0563
867.1129	-0.1201
867.2753	0.1048
867.4377	0.015
867.6001	-0.4499
867.7625	0.0183
867.9249	-0.0405
868.0872	-0.0508
868.2495	-0.1178
868.4118	0.074
868.5741	-0.2243
868.7363	0.0549
868.8986	0.005
869.0608	-0.2581
869.223	-0.0571
869.3851	-0.0745
869.5473	-0.2435
869.7094	-0.1768
869.8715	-0.03
870.0336	0.1453
870.1957	0.0145
870.3577	0.0117
870.5197	-0.4144
870.6817	-0.1849
870.8437	-0.1079
871.0057	-0.2078
871.1676	0.0018
871.3295	-0.2816
871.4914	0.0483
871.6533	0.1174
871.8151	-0.2014
871.977	0.1566
872.1388	0.0404
872.3006	-0.1718
872.4623	0.0303
872.6241	-0.0539
872.7858	-0.0821
872.9475	0.0025
873.1092	-0.1351
873.2709	-0.1966
873.4325	-0.3525
873.5941	-0.3361
873.7557	-0.14
873.9173	-0.1066
874.0789	-0.2132
874.2404	-0.1841
874.4019	-0.3196
874.5634	-0.0235
874.7249	-0.3508
874.8863	-0.1376
875.0478	-0.0316
875.2092	-0.3246
875.3706	-0.269
875.5319	-0.1186
875.6933	-0.2146
875.8546	-0.1808
876.0159	-0.0316
876.1772	-0.2986
876.3385	-0
876.4997	0.1213
876.6609	-0.0089
876.8221	0.1079
876.9833	-0.6588
877.1445	-0.3835
877.3056	-0.1971
877.4667	-0.8637
877.6278	0.0966
877.7889	0.0438
877.9499	-0.6942
878.111	0.0299
878.272	-0.0771
878.433	0.155
878.5939	0.13
878.7549	-0.2728
878.9158	-0.1389
879.0767	-0.0603
879.2376	0.4764
879.3984	-0.4414
879.5593	-0.3073
879.7201	-0
879.8809	-0.1805
880.0417	-0.1433
880.2024	0.032
880.3632	-0.354
880.5239	-0
880.6846	-0.2973
880.8452	0.3048
881.0059	-0.6138
881.1665	-0
881.3271	-0.2581
881.4877	-0.0198
881.6483	-0
881.8088	0.114
881.9693	0.186
882.1298	0.186
882.2903	0.186
