Data from MonoPyChalIsomerACN10uM450nmA_Absorbance_13-11-27-491.txt Node
Date: Tue Jul 09 13:11:27 BST 2024
User: LASERRRRR
Spectrometer: FLMT03099
Trigger mode: 0
Integration Time (sec): 2.000000E-1
Scans to average: 1
Electric dark correction enabled: true
Nonlinearity correction enabled: false
Boxcar width: 0
XAxis mode: Wavelengths
Number of Pixels in Spectrum: 3648
>>>>>Begin Spectral Data<<<<<
179.3399	-0.1498
179.5586	-0.1498
179.7771	-0.1498
179.9957	-0.2357
180.2143	-0
180.4329	0.5158
180.6514	-0
180.8699	-0
181.0885	0.8425
181.307	-0
181.5255	0.0602
181.744	-0.2802
181.9625	-0.2857
182.181	14.0353
182.3994	0.0634
182.6179	-0.5398
182.8363	-0
183.0547	0.0662
183.2732	0.0682
183.4916	0.0307
183.71	0.0956
183.9284	-0.0118
184.1467	0.0326
184.3651	0.1393
184.5835	0.0793
184.8018	0.0807
185.0201	0.1178
185.2385	0.0094
185.4568	0.0114
185.6751	0.2043
185.8934	-0.0133
186.1117	0.0171
186.3299	-0.0318
186.5482	-0.017
186.7664	0.0002
186.9847	0.0245
187.2029	0.0427
187.4211	0.1206
187.6393	-0.1446
187.8575	0.0966
188.0757	0.1497
188.2939	0.0301
188.512	0.0204
188.7302	0.0481
188.9483	0.1298
189.1665	0.1337
189.3846	0.1501
189.6027	0.0831
189.8208	0.0845
190.0389	0.27
190.257	0.2083
190.475	0.2453
190.6931	0.1057
190.9111	0.2522
191.1292	0.2464
191.3472	0.2931
191.5652	0.3689
191.7832	0.279
192.0012	0.511
192.2192	0.3561
192.4371	0.4045
192.6551	0.5433
192.873	0.3191
193.091	0.4926
193.3089	0.4529
193.5268	0.4653
193.7447	0.487
193.9626	0.4733
194.1805	0.6499
194.3984	0.5989
194.6162	0.4668
194.8341	0.4863
195.0519	0.6151
195.2697	0.6217
195.4875	0.5433
195.7054	0.5643
195.9231	0.7159
196.1409	0.646
196.3587	0.5416
196.5765	0.6417
196.7942	0.7902
197.012	0.6388
197.2297	0.7457
197.4474	0.7283
197.6651	0.6376
197.8828	0.7487
198.1005	0.795
198.3182	0.7088
198.5358	0.7673
198.7535	0.8006
198.9711	0.8204
199.1888	0.7014
199.4064	0.8004
199.624	0.7807
199.8416	0.8614
200.0592	0.7476
200.2767	0.7852
200.4943	0.8493
200.7119	0.8394
200.9294	0.7945
201.1469	0.9025
201.3645	0.8397
201.582	0.9111
201.7995	0.7882
202.017	0.8557
202.2344	0.8359
202.4519	0.9031
202.6694	0.8511
202.8868	0.8212
203.1042	0.982
203.3217	0.9462
203.5391	0.8694
203.7565	1.0409
203.9739	0.8699
204.1913	0.8173
204.4086	0.904
204.626	0.9366
204.8433	0.9057
205.0607	0.9279
205.278	0.8674
205.4953	1.047
205.7126	0.9171
205.9299	0.9705
206.1472	1.0267
206.3644	1.0143
206.5817	1.0304
206.7989	1.0691
207.0162	1.0721
207.2334	0.933
207.4506	0.9395
207.6678	0.928
207.885	1.0681
208.1022	0.9932
208.3194	1.0882
208.5365	1.0498
208.7537	0.9417
208.9708	1.07
209.1879	1.0422
209.405	1.0082
209.6222	1.065
209.8392	1.0416
210.0563	0.9637
210.2734	1.0645
210.4905	1.0807
210.7075	0.9943
210.9245	1.0559
211.1416	1.1401
211.3586	1.0703
211.5756	1.124
211.7926	1.0938
212.0096	0.9805
212.2265	0.9581
212.4435	1.0819
212.6604	1.0083
212.8774	0.9727
213.0943	1.0327
213.3112	0.9662
213.5281	1.0496
213.745	0.9756
213.9619	0.9408
214.1788	0.9047
214.3956	0.9793
214.6125	0.9818
214.8293	0.8501
215.0461	0.8779
215.2629	0.8566
215.4798	0.811
215.6965	0.8295
215.9133	0.8626
216.1301	0.8116
216.3469	0.8236
216.5636	0.8265
216.7803	0.7553
216.9971	0.7465
217.2138	0.719
217.4305	0.7055
217.6472	0.6686
217.8639	0.6737
218.0805	0.6331
218.2972	0.5826
218.5138	0.5507
218.7305	0.5143
218.9471	0.4799
219.1637	0.4275
219.3803	0.4212
219.5969	0.39
219.8135	0.3604
220.0301	0.3562
220.2466	0.3555
220.4632	0.3367
220.6797	0.3133
220.8962	0.3153
221.1127	0.3044
221.3292	0.311
221.5457	0.279
221.7622	0.3016
221.9787	0.2816
222.1951	0.2796
222.4116	0.2788
222.628	0.261
222.8444	0.269
223.0608	0.2706
223.2772	0.2651
223.4936	0.2722
223.71	0.2553
223.9264	0.2759
224.1427	0.2613
224.3591	0.2728
224.5754	0.2857
224.7917	0.2665
225.008	0.2735
225.2243	0.2699
225.4406	0.2753
225.6569	0.2754
225.8732	0.2822
226.0894	0.2798
226.3057	0.293
226.5219	0.2843
226.7381	0.2781
226.9543	0.2793
227.1705	0.2907
227.3867	0.2886
227.6029	0.2812
227.8191	0.3063
228.0352	0.3029
228.2513	0.3102
228.4675	0.3026
228.6836	0.3116
228.8997	0.3055
229.1158	0.3147
229.3319	0.3154
229.548	0.3182
229.764	0.3146
229.9801	0.3214
230.1961	0.3217
230.4121	0.3288
230.6282	0.3338
230.8442	0.3414
231.0602	0.3438
231.2761	0.3487
231.4921	0.3526
231.7081	0.3615
231.924	0.3535
232.14	0.3514
232.3559	0.3742
232.5718	0.3438
232.7877	0.3596
233.0036	0.3533
233.2195	0.3606
233.4353	0.3675
233.6512	0.3689
233.867	0.3714
234.0829	0.3668
234.2987	0.3858
234.5145	0.375
234.7303	0.386
234.9461	0.3917
235.1619	0.392
235.3776	0.3896
235.5934	0.3978
235.8091	0.3895
236.0249	0.3898
236.2406	0.3927
236.4563	0.3935
236.672	0.3917
236.8877	0.3948
237.1034	0.4028
237.319	0.4024
237.5347	0.4068
237.7503	0.407
237.966	0.4085
238.1816	0.4107
238.3972	0.4031
238.6128	0.405
238.8284	0.4051
239.0439	0.4171
239.2595	0.4388
239.475	0.4127
239.6906	0.4134
239.9061	0.4041
240.1216	0.4168
240.3371	0.4092
240.5526	0.417
240.7681	0.4275
240.9836	0.4095
241.199	0.4143
241.4145	0.396
241.6299	0.41
241.8453	0.3951
242.0607	0.3864
242.2761	0.393
242.4915	0.3948
242.7069	0.3823
242.9223	0.3796
243.1376	0.3792
243.353	0.3725
243.5683	0.376
243.7836	0.3549
243.9989	0.3442
244.2142	0.3458
244.4295	0.326
244.6448	0.3228
244.86	0.3294
245.0753	0.3041
245.2905	0.3007
245.5057	0.3078
245.721	0.3004
245.9362	0.2887
246.1514	0.2972
246.3665	0.2929
246.5817	0.2795
246.7969	0.2781
247.012	0.2681
247.2271	0.2702
247.4423	0.264
247.6574	0.2631
247.8725	0.2539
248.0876	0.2534
248.3026	0.2532
248.5177	0.2496
248.7328	0.2382
248.9478	0.2408
249.1628	0.2421
249.3779	0.235
249.5929	0.2337
249.8079	0.2314
250.0228	0.2258
250.2378	0.2312
250.4528	0.2151
250.6677	0.2204
250.8827	0.2135
251.0976	0.2058
251.3125	0.216
251.5274	0.2022
251.7423	0.2053
251.9572	0.2078
252.172	0.2159
252.3869	0.2083
252.6017	0.2115
252.8166	0.2132
253.0314	0.2043
253.2462	0.2141
253.461	0.2066
253.6758	0.2053
253.8906	0.2031
254.1053	0.2039
254.3201	0.2024
254.5348	0.1976
254.7496	0.2062
254.9643	0.1941
255.179	0.1998
255.3937	0.1941
255.6083	0.2063
255.823	0.1922
256.0377	0.1981
256.2523	0.198
256.467	0.1932
256.6816	0.1909
256.8962	0.1921
257.1108	0.2013
257.3254	0.1946
257.54	0.1941
257.7545	0.1987
257.9691	0.1972
258.1836	0.1955
258.3981	0.1942
258.6127	0.1978
258.8272	0.1968
259.0417	0.1966
259.2561	0.2019
259.4706	0.1906
259.6851	0.1875
259.8995	0.1904
260.114	0.1935
260.3284	0.2018
260.5428	0.1946
260.7572	0.2071
260.9716	0.1941
261.186	0.2047
261.4003	0.1994
261.6147	0.196
261.829	0.2027
262.0433	0.195
262.2577	0.1985
262.472	0.1995
262.6863	0.1855
262.9005	0.1943
263.1148	0.1921
263.3291	0.19
263.5433	0.1854
263.7576	0.1913
263.9718	0.1861
264.186	0.1941
264.4002	0.1799
264.6144	0.1889
264.8286	0.1864
265.0427	0.1861
265.2569	0.1823
265.471	0.1772
265.6851	0.1866
265.8993	0.1795
266.1134	0.174
266.3275	0.1832
266.5415	0.1749
266.7556	0.1806
266.9697	0.1874
267.1837	0.1757
267.3978	0.1869
267.6118	0.1863
267.8258	0.1939
268.0398	0.2015
268.2538	0.1981
268.4677	0.2023
268.6817	0.1963
268.8957	0.1889
269.1096	0.186
269.3235	0.1907
269.5374	0.1817
269.7514	0.1647
269.9652	0.1737
270.1791	0.1595
270.393	0.1592
270.6068	0.1517
270.8207	0.1484
271.0345	0.1629
271.2483	0.1608
271.4622	0.1611
271.676	0.1567
271.8897	0.1479
272.1035	0.1438
272.3173	0.1438
272.531	0.1518
272.7448	0.1501
272.9585	0.1452
273.1722	0.1366
273.3859	0.1477
273.5996	0.1396
273.8133	0.1478
274.0269	0.1478
274.2406	0.1424
274.4542	0.1485
274.6679	0.1522
274.8815	0.1433
275.0951	0.1484
275.3087	0.1452
275.5223	0.1419
275.7358	0.1409
275.9494	0.1565
276.1629	0.1458
276.3765	0.1459
276.59	0.1522
276.8035	0.1548
277.017	0.1479
277.2305	0.1517
277.444	0.1435
277.6574	0.1472
277.8709	0.1487
278.0843	0.1537
278.2978	0.1465
278.5112	0.1519
278.7246	0.1499
278.938	0.1475
279.1513	0.1543
279.3647	0.1514
279.5781	0.1418
279.7914	0.1562
280.0047	0.1524
280.2181	0.1552
280.4314	0.1517
280.6447	0.1543
280.8579	0.1553
281.0712	0.1535
281.2845	0.1486
281.4977	0.1563
281.711	0.1513
281.9242	0.1579
282.1374	0.155
282.3506	0.1501
282.5638	0.1567
282.7769	0.1553
282.9901	0.1576
283.2033	0.1654
283.4164	0.152
283.6295	0.1628
283.8426	0.1573
284.0557	0.157
284.2688	0.151
284.4819	0.1483
284.695	0.1591
284.908	0.1597
285.1211	0.1621
285.3341	0.1574
285.5471	0.1585
285.7601	0.162
285.9731	0.1603
286.1861	0.1665
286.3991	0.1546
286.612	0.1588
286.825	0.1596
287.0379	0.1595
287.2508	0.1569
287.4637	0.1598
287.6766	0.1521
287.8895	0.1612
288.1024	0.1538
288.3152	0.1546
288.5281	0.1564
288.7409	0.1528
288.9538	0.1596
289.1666	0.1587
289.3794	0.1561
289.5922	0.1564
289.8049	0.1587
290.0177	0.1597
290.2304	0.1611
290.4432	0.1548
290.6559	0.1552
290.8686	0.1573
291.0813	0.1571
291.294	0.1616
291.5067	0.1579
291.7194	0.1554
291.932	0.1598
292.1447	0.1635
292.3573	0.1597
292.5699	0.1571
292.7825	0.1593
292.9951	0.1607
293.2077	0.1554
293.4203	0.1496
293.6328	0.1602
293.8454	0.1573
294.0579	0.1609
294.2704	0.1585
294.4829	0.1638
294.6954	0.1586
294.9079	0.1661
295.1204	0.1616
295.3328	0.1519
295.5453	0.1583
295.7577	0.151
295.9701	0.1583
296.1825	0.1568
296.3949	0.1537
296.6073	0.1546
296.8197	0.1506
297.0321	0.1539
297.2444	0.1585
297.4567	0.1429
297.6691	0.1606
297.8814	0.1506
298.0937	0.1521
298.306	0.1513
298.5182	0.1505
298.7305	0.159
298.9428	0.1445
299.155	0.1514
299.3672	0.1535
299.5794	0.1561
299.7916	0.1504
300.0038	0.151
300.216	0.1582
300.4282	0.1525
300.6403	0.1516
300.8525	0.1559
301.0646	0.1574
301.2767	0.1575
301.4888	0.1497
301.7009	0.1618
301.913	0.1614
302.125	0.1553
302.3371	0.1616
302.5491	0.1512
302.7612	0.1595
302.9732	0.1616
303.1852	0.1526
303.3972	0.1522
303.6092	0.1467
303.8211	0.1547
304.0331	0.1429
304.245	0.1529
304.457	0.1506
304.6689	0.1515
304.8808	0.1459
305.0927	0.1431
305.3046	0.1502
305.5164	0.1469
305.7283	0.141
305.9401	0.144
306.152	0.1415
306.3638	0.1485
306.5756	0.1438
306.7874	0.1427
306.9992	0.1432
307.2109	0.1393
307.4227	0.1427
307.6344	0.1339
307.8462	0.1311
308.0579	0.1256
308.2696	0.1284
308.4813	0.1314
308.693	0.1247
308.9046	0.1241
309.1163	0.1251
309.328	0.1196
309.5396	0.1136
309.7512	0.1207
309.9628	0.1225
310.1744	0.1213
310.386	0.1084
310.5976	0.1166
310.8091	0.1191
311.0207	0.1212
311.2322	0.1102
311.4437	0.1183
311.6552	0.1145
311.8667	0.1073
312.0782	0.1065
312.2897	0.1064
312.5012	0.1124
312.7126	0.1053
312.924	0.1051
313.1355	0.1092
313.3469	0.1087
313.5583	0.1103
313.7696	0.1011
313.981	0.1023
314.1924	0.0981
314.4037	0.1021
314.6151	0.0881
314.8264	0.1038
315.0377	0.097
315.249	0.097
315.4603	0.1031
315.6716	0.1056
315.8828	0.1017
316.0941	0.0944
316.3053	0.0965
316.5165	0.0959
316.7277	0.0927
316.9389	0.0975
317.1501	0.0978
317.3613	0.0921
317.5724	0.1016
317.7836	0.0997
317.9947	0.1032
318.2058	0.0918
318.417	0.0956
318.6281	0.0925
318.8391	0.0924
319.0502	0.0937
319.2613	0.1001
319.4723	0.1019
319.6834	0.1041
319.8944	0.099
320.1054	0.0957
320.3164	0.1001
320.5274	0.0996
320.7383	0.0891
320.9493	0.1005
321.1602	0.0979
321.3712	0.1004
321.5821	0.1019
321.793	0.0925
322.0039	0.0972
322.2148	0.0945
322.4257	0.0962
322.6365	0.0988
322.8474	0.1045
323.0582	0.1085
323.269	0.0977
323.4798	0.0962
323.6906	0.0994
323.9014	0.0946
324.1122	0.0999
324.3229	0.1052
324.5337	0.0908
324.7444	0.1058
324.9551	0.0998
325.1658	0.1003
325.3765	0.0962
325.5872	0.0986
325.7979	0.1128
326.0085	0.1101
326.2192	0.1044
326.4298	0.1096
326.6404	0.0989
326.851	0.1027
327.0616	0.1023
327.2722	0.1115
327.4828	0.1013
327.6933	0.1066
327.9039	0.1055
328.1144	0.1035
328.3249	0.1026
328.5354	0.1034
328.7459	0.1018
328.9564	0.0997
329.1669	0.0969
329.3773	0.1031
329.5878	0.1102
329.7982	0.1053
330.0086	0.1093
330.219	0.1108
330.4294	0.109
330.6398	0.1105
330.8502	0.1101
331.0605	0.1048
331.2708	0.1104
331.4812	0.102
331.6915	0.1071
331.9018	0.0979
332.1121	0.1081
332.3224	0.1048
332.5326	0.0973
332.7429	0.106
332.9531	0.1097
333.1633	0.1144
333.3735	0.1159
333.5837	0.1042
333.7939	0.1099
334.0041	0.1073
334.2143	0.1073
334.4244	0.1038
334.6346	0.1017
334.8447	0.1082
335.0548	0.1102
335.2649	0.0989
335.475	0.0943
335.685	0.1119
335.8951	0.1073
336.1051	0.1032
336.3152	0.1152
336.5252	0.1098
336.7352	0.1035
336.9452	0.1033
337.1552	0.1064
337.3652	0.1141
337.5751	0.1145
337.7851	0.106
337.995	0.1057
338.2049	0.112
338.4148	0.1124
338.6247	0.1106
338.8346	0.1127
339.0445	0.1151
339.2543	0.1138
339.4642	0.1174
339.674	0.1141
339.8838	0.1116
340.0936	0.1132
340.3034	0.1285
340.5132	0.1082
340.7229	0.1198
340.9327	0.1212
341.1424	0.1215
341.3522	0.1189
341.5619	0.1269
341.7716	0.1285
341.9813	0.1231
342.1909	0.1254
342.4006	0.1154
342.6102	0.1232
342.8199	0.1216
343.0295	0.1167
343.2391	0.1201
343.4487	0.1214
343.6583	0.1251
343.8679	0.1252
344.0774	0.1294
344.287	0.1322
344.4965	0.1185
344.706	0.1297
344.9155	0.1302
345.125	0.139
345.3345	0.1267
345.544	0.1174
345.7534	0.1272
345.9629	0.1319
346.1723	0.1378
346.3817	0.1375
346.5911	0.1342
346.8005	0.1291
347.0099	0.1285
347.2193	0.1332
347.4286	0.138
347.638	0.1375
347.8473	0.1338
348.0566	0.14
348.2659	0.1275
348.4752	0.1353
348.6845	0.1303
348.8937	0.1349
349.103	0.1336
349.3122	0.1418
349.5214	0.1355
349.7306	0.1293
349.9398	0.1326
350.149	0.1473
350.3582	0.1281
350.5674	0.1443
350.7765	0.1338
350.9856	0.1358
351.1948	0.139
351.4039	0.1407
351.613	0.1321
351.822	0.1434
352.0311	0.1401
352.2402	0.1492
352.4492	0.1461
352.6582	0.1393
352.8672	0.1413
353.0762	0.1581
353.2852	0.1577
353.4942	0.1476
353.7032	0.1451
353.9121	0.1583
354.1211	0.1425
354.33	0.146
354.5389	0.1463
354.7478	0.1503
354.9567	0.1496
355.1655	0.1506
355.3744	0.1554
355.5833	0.1476
355.7921	0.1527
356.0009	0.1542
356.2097	0.1555
356.4185	0.1523
356.6273	0.1598
356.8361	0.1552
357.0448	0.1594
357.2536	0.1553
357.4623	0.1546
357.671	0.1545
357.8797	0.1637
358.0884	0.1581
358.2971	0.1623
358.5057	0.1661
358.7144	0.1564
358.923	0.178
359.1316	0.1606
359.3402	0.1792
359.5488	0.1628
359.7574	0.1716
359.966	0.1736
360.1746	0.1719
360.3831	0.1783
360.5916	0.1842
360.8002	0.1845
361.0087	0.1738
361.2172	0.1747
361.4256	0.178
361.6341	0.1747
361.8426	0.187
362.051	0.1702
362.2594	0.1773
362.4678	0.1807
362.6762	0.178
362.8846	0.1811
363.093	0.1786
363.3014	0.1768
363.5097	0.1754
363.718	0.1958
363.9264	0.1746
364.1347	0.2014
364.343	0.1747
364.5513	0.19
364.7595	0.1856
364.9678	0.1899
365.176	0.1911
365.3842	0.1788
365.5925	0.1903
365.8007	0.1855
366.0089	0.1956
366.217	0.1932
366.4252	0.1958
366.6333	0.1855
366.8415	0.1907
367.0496	0.2003
367.2577	0.1959
367.4658	0.2026
367.6739	0.2008
367.882	0.1987
368.09	0.1983
368.2981	0.2039
368.5061	0.2046
368.7141	0.2008
368.9221	0.193
369.1301	0.2109
369.3381	0.2003
369.5461	0.2112
369.754	0.2065
369.962	0.2059
370.1699	0.2142
370.3778	0.2102
370.5857	0.216
370.7936	0.2078
371.0015	0.2141
371.2093	0.2075
371.4172	0.2165
371.625	0.2149
371.8328	0.2253
372.0406	0.2203
372.2484	0.2053
372.4562	0.2111
372.664	0.2068
372.8717	0.2102
373.0795	0.2124
373.2872	0.2204
373.4949	0.2169
373.7026	0.2133
373.9103	0.2079
374.118	0.2198
374.3256	0.221
374.5333	0.213
374.7409	0.2116
374.9485	0.2224
375.1561	0.217
375.3637	0.2136
375.5713	0.2178
375.7789	0.2226
375.9864	0.2199
376.194	0.2183
376.4015	0.2237
376.609	0.2253
376.8165	0.2117
377.024	0.2239
377.2315	0.2245
377.4389	0.2135
377.6464	0.2207
377.8538	0.2213
378.0612	0.2264
378.2686	0.2237
378.476	0.2187
378.6834	0.235
378.8908	0.2227
379.0981	0.2392
379.3055	0.2358
379.5128	0.2227
379.7201	0.2292
379.9274	0.2421
380.1347	0.236
380.342	0.2287
380.5492	0.234
380.7565	0.2347
380.9637	0.2526
381.1709	0.2414
381.3781	0.2296
381.5853	0.2438
381.7925	0.2402
381.9997	0.2338
382.2068	0.2375
382.4139	0.247
382.6211	0.2296
382.8282	0.2371
383.0353	0.2356
383.2424	0.244
383.4494	0.2489
383.6565	0.2338
383.8635	0.2448
384.0706	0.2373
384.2776	0.2384
384.4846	0.2462
384.6916	0.234
384.8986	0.2491
385.1055	0.2383
385.3125	0.2491
385.5194	0.2457
385.7263	0.243
385.9333	0.2398
386.1402	0.2448
386.347	0.2423
386.5539	0.2531
386.7608	0.2463
386.9676	0.2491
387.1744	0.2336
387.3813	0.2362
387.5881	0.2336
387.7948	0.2399
388.0016	0.246
388.2084	0.2451
388.4151	0.2316
388.6219	0.2341
388.8286	0.2499
389.0353	0.2325
389.242	0.2317
389.4487	0.2343
389.6553	0.231
389.862	0.2294
390.0686	0.2303
390.2753	0.2384
390.4819	0.2389
390.6885	0.2325
390.8951	0.232
391.1016	0.2395
391.3082	0.2266
391.5147	0.2368
391.7213	0.2168
391.9278	0.2179
392.1343	0.2255
392.3408	0.2175
392.5473	0.2218
392.7537	0.2243
392.9602	0.2112
393.1666	0.2229
393.373	0.2185
393.5794	0.2249
393.7858	0.2165
393.9922	0.2111
394.1986	0.2118
394.4049	0.2232
394.6113	0.2176
394.8176	0.1941
395.0239	0.2058
395.2302	0.2157
395.4365	0.2125
395.6428	0.2128
395.8491	0.2039
396.0553	0.2072
396.2615	0.1974
396.4678	0.2087
396.674	0.1961
396.8802	0.2026
397.0863	0.2127
397.2925	0.2022
397.4987	0.2032
397.7048	0.2054
397.9109	0.2064
398.117	0.2034
398.3231	0.2111
398.5292	0.1991
398.7353	0.1915
398.9413	0.204
399.1474	0.2024
399.3534	0.2014
399.5594	0.19
399.7654	0.2023
399.9714	0.1937
400.1774	0.1992
400.3833	0.2038
400.5893	0.1958
400.7952	0.1949
401.0011	0.1981
401.207	0.2077
401.4129	0.1868
401.6188	0.193
401.8247	0.1915
402.0305	0.1947
402.2364	0.1988
402.4422	0.2065
402.648	0.2073
402.8538	0.1988
403.0596	0.1918
403.2654	0.1942
403.4711	0.1901
403.6768	0.2002
403.8826	0.2008
404.0883	0.2027
404.294	0.2012
404.4997	0.2001
404.7054	0.1889
404.911	0.1944
405.1167	0.2081
405.3223	0.2022
405.5279	0.19
405.7335	0.1931
405.9391	0.1946
406.1447	0.1922
406.3502	0.1964
406.5558	0.1924
406.7613	0.1949
406.9668	0.1992
407.1724	0.2044
407.3778	0.207
407.5833	0.1912
407.7888	0.2076
407.9942	0.1964
408.1997	0.1982
408.4051	0.1911
408.6105	0.2056
408.8159	0.2032
409.0213	0.1867
409.2267	0.1897
409.432	0.2014
409.6374	0.1949
409.8427	0.2036
410.048	0.1963
410.2533	0.2018
410.4586	0.1971
410.6639	0.1905
410.8691	0.1872
411.0744	0.1921
411.2796	0.1889
411.4848	0.1917
411.69	0.2027
411.8952	0.1891
412.1004	0.1979
412.3056	0.198
412.5107	0.1943
412.7158	0.1988
412.921	0.1916
413.1261	0.181
413.3312	0.195
413.5362	0.1839
413.7413	0.1852
413.9464	0.1963
414.1514	0.183
414.3564	0.1919
414.5614	0.2071
414.7664	0.1994
414.9714	0.1761
415.1764	0.1882
415.3813	0.2016
415.5863	0.1814
415.7912	0.1918
415.9961	0.1965
416.201	0.2018
416.4059	0.1889
416.6108	0.1944
416.8156	0.1801
417.0205	0.2033
417.2253	0.1916
417.4301	0.1851
417.6349	0.1889
417.8397	0.1894
418.0445	0.191
418.2492	0.1847
418.454	0.1803
418.6587	0.193
418.8634	0.1816
419.0681	0.1713
419.2728	0.1837
419.4775	0.1885
419.6822	0.1822
419.8868	0.1763
420.0915	0.1844
420.2961	0.1737
420.5007	0.1871
420.7053	0.177
420.9099	0.1785
421.1144	0.1784
421.319	0.1707
421.5235	0.1857
421.728	0.1773
421.9325	0.1704
422.137	0.1617
422.3415	0.1746
422.546	0.1744
422.7504	0.1784
422.9549	0.1859
423.1593	0.1738
423.3637	0.1722
423.5681	0.174
423.7725	0.1654
423.9769	0.1662
424.1812	0.16
424.3856	0.1667
424.5899	0.1766
424.7942	0.1606
424.9985	0.1752
425.2028	0.1554
425.4071	0.1587
425.6113	0.1603
425.8156	0.1591
426.0198	0.1764
426.224	0.1457
426.4282	0.1528
426.6324	0.1512
426.8366	0.1462
427.0407	0.1566
427.2449	0.1672
427.449	0.1565
427.6531	0.1601
427.8572	0.1468
428.0613	0.1407
428.2654	0.131
428.4694	0.1536
428.6735	0.1546
428.8775	0.1335
429.0815	0.1443
429.2855	0.1481
429.4895	0.136
429.6935	0.1307
429.8975	0.1402
430.1014	0.1272
430.3053	0.1312
430.5093	0.1353
430.7132	0.1389
430.9171	0.1288
431.1209	0.1452
431.3248	0.1321
431.5286	0.1332
431.7325	0.1227
431.9363	0.126
432.1401	0.1255
432.3439	0.1206
432.5477	0.1327
432.7514	0.1288
432.9552	0.1133
433.1589	0.1147
433.3627	0.1089
433.5664	0.1127
433.7701	0.1091
433.9737	0.1031
434.1774	0.1041
434.3811	0.1024
434.5847	0.1009
434.7883	0.1043
434.9919	0.0947
435.1955	0.0961
435.3991	0.1007
435.6027	0.0964
435.8062	0.1049
436.0098	0.0979
436.2133	0.091
436.4168	0.095
436.6203	0.0985
436.8238	0.0813
437.0272	0.0843
437.2307	0.0906
437.4341	0.0767
437.6375	0.0874
437.841	0.0787
438.0443	0.0819
438.2477	0.0761
438.4511	0.0947
438.6545	0.0729
438.8578	0.0871
439.0611	0.0756
439.2644	0.089
439.4677	0.0813
439.671	0.0754
439.8743	0.0825
440.0775	0.0641
440.2808	0.0587
440.484	0.0725
440.6872	0.0654
440.8904	0.0526
441.0936	0.0597
441.2967	0.0562
441.4999	0.063
441.703	0.0529
441.9062	0.0605
442.1093	0.058
442.3124	0.0538
442.5155	0.0475
442.7185	0.0393
442.9216	0.0506
443.1246	0.0567
443.3276	0.0531
443.5307	0.0518
443.7337	0.0524
443.9366	0.0581
444.1396	0.0462
444.3426	0.0418
444.5455	0.0458
444.7484	0.0339
444.9513	0.0375
445.1542	0.0485
445.3571	0.0411
445.56	0.0373
445.7628	0.0379
445.9657	0.0473
446.1685	0.0322
446.3713	0.0417
446.5741	0.0449
446.7769	0.0393
446.9797	0.0353
447.1824	0.0252
447.3852	0.0359
447.5879	0.0386
447.7906	0.0352
447.9933	0.0363
448.196	0.0451
448.3986	0.0185
448.6013	0.0302
448.8039	0.0273
449.0066	0.0252
449.2092	0.0278
449.4118	0.0241
449.6143	0.0228
449.8169	0.0218
450.0195	0.0157
450.222	0.0066
450.4245	0.0236
450.627	0.0144
450.8295	0.0156
451.032	0.0207
451.2345	0.0196
451.4369	0.0234
451.6394	0.0159
451.8418	0.0202
452.0442	0.0174
452.2466	0.0081
452.449	0.0197
452.6513	0.0247
452.8537	0.0249
453.056	0.0136
453.2583	0.0155
453.4607	0.0303
453.663	0.021
453.8652	0.0086
454.0675	0.0187
454.2697	0.0195
454.472	0.0111
454.6742	0.0042
454.8764	0.0111
455.0786	0.0074
455.2808	0.0044
455.4829	0.0076
455.6851	0.0038
455.8872	-0.0035
456.0893	0.0021
456.2915	0.0028
456.4935	0.0027
456.6956	0.0106
456.8977	0.0126
457.0997	0.0057
457.3018	0.0156
457.5038	0.0055
457.7058	-0.0009
457.9078	0.0009
458.1098	0.0056
458.3117	0.0095
458.5137	0.0036
458.7156	0.0128
458.9175	-0.0011
459.1194	0.0191
459.3213	0.0053
459.5232	0.0002
459.725	-0.0022
459.9269	0.0041
460.1287	0.0019
460.3305	0.0013
460.5323	0.0074
460.7341	-0.0016
460.9359	-0.0048
461.1376	0
461.3394	0.007
461.5411	-0.0046
461.7428	-0.0105
461.9445	-0.001
462.1462	0.0032
462.3479	-0.0025
462.5495	0.0094
462.7512	-0.0067
462.9528	0.0017
463.1544	0.0085
463.356	-0.0069
463.5576	-0.0002
463.7592	0.0002
463.9607	0.0018
464.1623	0.0008
464.3638	0.0102
464.5653	0.0072
464.7668	0.0059
464.9683	0.0031
465.1697	0.0015
465.3712	-0.0021
465.5726	0.0045
465.7741	-0.006
465.9755	-0.003
466.1769	-0.0143
466.3782	-0.0007
466.5796	-0.004
466.7809	0.0037
466.9823	-0.0072
467.1836	-0.0009
467.3849	-0.0028
467.5862	-0.0058
467.7875	-0.0072
467.9887	-0.001
468.19	-0.0101
468.3912	-0.0041
468.5924	-0.0008
468.7936	-0.0019
468.9948	0.0069
469.196	-0.0095
469.3972	-0.0028
469.5983	0.013
469.7994	-0.0061
470.0006	-0.0073
470.2017	0.0078
470.4027	0.0026
470.6038	-0.0073
470.8049	-0.0101
471.0059	-0.0015
471.2069	0.0027
471.408	-0.0019
471.6089	-0.0042
471.8099	-0.0018
472.0109	-0.0036
472.2119	-0.0139
472.4128	-0.0098
472.6137	-0.0141
472.8146	-0.0129
473.0155	-0.006
473.2164	-0.0184
473.4173	-0.0136
473.6181	0.0035
473.819	-0.0114
474.0198	-0.0087
474.2206	-0.0021
474.4214	-0.0033
474.6222	-0.0009
474.8229	-0.006
475.0237	0.0028
475.2244	-0.0064
475.4251	-0.0079
475.6258	-0.0061
475.8265	-0.0082
476.0272	-0.0055
476.2278	-0.0021
476.4285	-0.0016
476.6291	-0.0049
476.8297	-0.0063
477.0303	-0.0092
477.2309	-0.0028
477.4315	-0.0017
477.632	-0.0138
477.8326	-0.0012
478.0331	0.0027
478.2336	-0.0045
478.4341	-0.0079
478.6346	0.0016
478.8351	-0.0084
479.0355	-0.0128
479.236	-0.007
479.4364	-0.0133
479.6368	0.0054
479.8372	-0.003
480.0376	-0.004
480.2379	-0.0099
480.4383	-0.0022
480.6386	-0.0065
480.8389	-0.0139
481.0392	-0.0181
481.2395	-0.0137
481.4398	-0.0013
481.6401	-0.0108
481.8403	-0.0053
482.0405	-0.0088
482.2408	0.0004
482.441	-0.0025
482.6411	0.0065
482.8413	-0.0002
483.0415	-0.0085
483.2416	-0.0034
483.4417	-0.0064
483.6419	0.002
483.8419	-0.0096
484.042	-0.0073
484.2421	-0.004
484.4422	-0.004
484.6422	-0.0116
484.8422	-0.0082
485.0422	-0.0108
485.2422	-0.0085
485.4422	-0.0037
485.6422	-0.009
485.8421	-0.0054
486.042	-0.0035
486.242	-0.005
486.4419	-0.0099
486.6417	-0.0138
486.8416	-0.0057
487.0415	-0.0066
487.2413	-0.0045
487.4411	-0.0029
487.641	-0.0052
487.8408	-0.0063
488.0405	-0.012
488.2403	0
488.4401	-0.0114
488.6398	-0.0065
488.8395	-0.0106
489.0392	-0.0015
489.2389	-0.0048
489.4386	-0.0119
489.6383	-0.0015
489.8379	-0.0077
490.0376	-0.0063
490.2372	-0.0054
490.4368	-0.0183
490.6364	0.0039
490.836	-0.0031
491.0355	-0.0036
491.2351	-0.0071
491.4346	-0.0058
491.6341	-0.0049
491.8336	-0.0086
492.0331	-0.0045
492.2326	-0.0051
492.432	-0.0053
492.6315	-0.0075
492.8309	-0.0093
493.0303	-0.001
493.2297	-0.0016
493.4291	-0.0109
493.6284	0.003
493.8278	-0.0015
494.0271	-0.0002
494.2264	-0.0082
494.4257	-0.003
494.625	-0.0023
494.8243	-0.0056
495.0236	-0.0126
495.2228	-0.0091
495.422	-0.003
495.6213	-0.0128
495.8205	-0.0016
496.0196	-0.0158
496.2188	-0.0044
496.418	0.0014
496.6171	-0.0045
496.8162	-0.0116
497.0153	-0.0034
497.2144	-0.0043
497.4135	-0.0097
497.6126	-0.0077
497.8116	-0.004
498.0107	-0.0049
498.2097	-0.0014
498.4087	-0.0039
498.6077	-0.0051
498.8067	-0.0057
499.0056	-0.0062
499.2046	0.0011
499.4035	-0.0115
499.6024	-0.0121
499.8013	-0.0014
500.0002	-0.006
500.199	-0.0029
500.3979	-0.0008
500.5967	-0.0142
500.7956	-0.0112
500.9944	-0.0106
501.1932	-0.0052
501.3919	-0.0131
501.5907	-0.0077
501.7895	-0.0011
501.9882	-0.0069
502.1869	-0.005
502.3856	-0.0066
502.5843	-0.0059
502.783	-0.0102
502.9816	-0.0072
503.1803	-0.0071
503.3789	-0.0017
503.5775	-0.002
503.7761	-0.0095
503.9747	-0.0165
504.1732	-0.0051
504.3718	-0.0077
504.5703	-0.0132
504.7689	-0.0042
504.9674	-0.0033
505.1658	-0.006
505.3643	-0.0044
505.5628	0.005
505.7612	-0.0117
505.9597	-0.0067
506.1581	-0.011
506.3565	-0.0027
506.5549	-0.0004
506.7532	-0.012
506.9516	-0.0019
507.1499	-0.0016
507.3482	-0.0108
507.5465	-0.0028
507.7448	-0.0037
507.9431	-0.0074
508.1414	-0.0065
508.3396	-0.0053
508.5379	-0.0046
508.7361	0.001
508.9343	-0.0089
509.1325	-0.0075
509.3306	-0.0019
509.5288	-0.0038
509.7269	-0.014
509.9251	-0.0104
510.1232	-0.0021
510.3213	-0.0147
510.5193	-0.003
510.7174	-0.0052
510.9154	-0.0116
511.1135	-0.0047
511.3115	-0.0063
511.5095	-0.0073
511.7075	-0.0047
511.9055	-0.0085
512.1034	-0.0113
512.3014	-0.0011
512.4993	-0.0037
512.6972	-0.0012
512.8951	-0.0071
513.093	-0.0077
513.2908	0
513.4887	-0.0076
513.6865	-0.0056
513.8844	-0.0007
514.0822	-0.0044
514.2799	-0.0084
514.4777	-0.0046
514.6755	-0.0012
514.8732	-0.0091
515.0709	-0.0098
515.2687	-0.0027
515.4664	-0.008
515.664	-0.0133
515.8617	-0.0012
516.0594	-0.0062
516.257	-0.0027
516.4546	-0.0189
516.6522	-0.004
516.8498	-0.0067
517.0474	-0.0028
517.2449	-0.0055
517.4425	-0.0075
517.64	-0.0037
517.8375	-0.0064
518.035	0.0012
518.2325	-0.0114
518.43	-0.0014
518.6274	-0.0161
518.8249	-0.0058
519.0223	-0.0098
519.2197	-0.0018
519.4171	-0.0067
519.6145	-0.0024
519.8118	-0.0117
520.0092	0.0044
520.2065	-0.0085
520.4038	-0.0053
520.6011	-0.01
520.7984	-0.0142
520.9956	-0.0098
521.1929	-0.0138
521.3901	-0.0095
521.5874	-0.008
521.7846	-0.002
521.9818	-0.0036
522.1789	-0.0051
522.3761	-0.0111
522.5732	-0.0021
522.7704	-0.0079
522.9675	-0.008
523.1646	-0.0032
523.3617	-0.0049
523.5587	-0.0069
523.7558	0.0021
523.9528	-0.0015
524.1498	-0.006
524.3468	-0.0009
524.5438	-0.0119
524.7408	-0.0083
524.9378	-0.0084
525.1347	0.0019
525.3316	-0.0003
525.5285	-0.0026
525.7254	-0.0065
525.9223	-0.0035
526.1192	-0.0051
526.316	-0.0032
526.5129	-0.0044
526.7097	-0.0037
526.9065	-0.0039
527.1033	-0.0032
527.3	-0.0097
527.4968	-0.0134
527.6935	-0.0004
527.8903	0.0022
528.087	-0.0133
528.2837	-0.0058
528.4804	-0.006
528.677	-0.0021
528.8737	-0.0091
529.0703	-0.0017
529.2669	-0.002
529.4635	-0.0028
529.6601	-0.0019
529.8567	-0.0072
530.0532	-0.0051
530.2498	-0.0091
530.4463	-0.0074
530.6428	0.0003
530.8393	-0.0011
531.0358	-0.0059
531.2322	-0.007
531.4287	-0.0145
531.6251	-0.0053
531.8215	0.0027
532.0179	-0.0086
532.2143	0.0022
532.4107	-0.0052
532.607	-0.0083
532.8034	-0.008
532.9997	-0.0035
533.196	-0.0025
533.3923	-0.0014
533.5886	-0.0033
533.7848	0.0015
533.9811	-0.0086
534.1773	-0.0062
534.3735	-0.0057
534.5697	-0.0022
534.7659	-0.0051
534.9621	-0.0034
535.1582	-0.0103
535.3544	-0.0085
535.5505	-0.0047
535.7466	-0.005
535.9427	-0.0055
536.1387	0.0046
536.3348	0.0063
536.5308	-0.0061
536.7269	-0.0015
536.9229	-0.0002
537.1189	-0.0084
537.3148	-0.0032
537.5108	0.0042
537.7068	-0.0018
537.9027	-0.0091
538.0986	-0.0042
538.2945	-0.0057
538.4904	-0.0079
538.6863	-0.0003
538.8821	-0.0065
539.078	-0.0094
539.2738	-0.0125
539.4696	-0.0127
539.6654	-0.009
539.8611	-0.006
540.0569	-0.005
540.2526	-0.001
540.4484	0.0069
540.6441	0.0002
540.8398	-0.0074
541.0355	-0.0049
541.2311	0.0016
541.4268	-0.0059
541.6224	0.0045
541.818	-0.0057
542.0136	-0.0022
542.2092	-0.0037
542.4048	-0.0017
542.6003	-0.003
542.7959	0.004
542.9914	-0.0029
543.1869	-0.0085
543.3824	-0.0095
543.5779	-0.0075
543.7734	-0.0105
543.9688	-0.0156
544.1642	-0.0098
544.3596	-0.0049
544.555	-0.0042
544.7504	-0.0096
544.9458	-0.0028
545.1411	0.0037
545.3365	-0.0043
545.5318	0.0048
545.7271	0.0042
545.9224	-0.0004
546.1177	-0.0109
546.3129	-0.0014
546.5081	0.0002
546.7034	-0.011
546.8986	-0.0037
547.0938	-0.0048
547.289	-0.0041
547.4841	-0.0052
547.6793	-0.0056
547.8744	-0.0026
548.0695	-0.0118
548.2646	-0.0084
548.4597	0.0024
548.6548	-0.0051
548.8498	-0.008
549.0448	-0.0021
549.2399	0.0013
549.4349	-0.0007
549.6298	-0.0068
549.8248	-0.0033
550.0198	-0.0047
550.2147	-0.0029
550.4096	-0.0076
550.6045	-0.004
550.7994	0.0008
550.9943	0.0006
551.1892	-0.0064
551.384	-0.009
551.5788	-0.0058
551.7737	-0.0061
551.9685	-0.0077
552.1632	-0.0035
552.358	-0.0108
552.5528	-0.0041
552.7475	-0.0116
552.9422	-0.0031
553.1369	-0.0124
553.3316	-0.0013
553.5263	-0.007
553.7209	-0.0081
553.9156	-0.0072
554.1102	-0.0055
554.3048	-0.0134
554.4994	-0.0132
554.694	0.0017
554.8885	-0.0085
555.0831	-0.0001
555.2776	-0.0002
555.4721	-0.0047
555.6666	-0.0056
555.8611	-0.0007
556.0555	-0.0123
556.25	-0.0059
556.4444	-0.0014
556.6388	-0.0058
556.8332	-0.0047
557.0276	-0.0072
557.222	-0.0072
557.4163	0.004
557.6107	-0.0048
557.805	-0.0025
557.9993	-0.0041
558.1936	-0.008
558.3879	-0.0012
558.5821	-0.0006
558.7764	-0.0102
558.9706	-0.0038
559.1648	-0.0039
559.359	-0.0095
559.5532	-0.0078
559.7473	-0.0116
559.9415	-0.0098
560.1356	-0.0072
560.3297	-0.0112
560.5238	-0.0109
560.7179	-0.0045
560.9119	0.0027
561.106	-0.0006
561.3	0.0012
561.494	-0.0011
561.688	-0.005
561.882	-0.0035
562.076	-0.0066
562.2699	-0.0042
562.4639	-0.0057
562.6578	-0.0041
562.8517	-0.0042
563.0456	-0.0009
563.2395	-0.0054
563.4333	0.0003
563.6272	-0.0048
563.821	-0.003
564.0148	0.0003
564.2086	-0.004
564.4024	-0.0054
564.5961	-0.0089
564.7899	-0.0003
564.9836	0
565.1773	-0.0027
565.371	-0.0043
565.5647	-0.0059
565.7584	0.0018
565.952	-0.0035
566.1456	-0.0041
566.3393	-0.0054
566.5329	-0.0013
566.7264	0.0022
566.92	-0.0005
567.1136	-0.008
567.3071	-0.0041
567.5006	-0.0014
567.6941	-0.0038
567.8876	-0.0076
568.0811	-0.0006
568.2745	-0.0114
568.468	-0.009
568.6614	-0.0078
568.8548	-0.0071
569.0482	-0.0053
569.2416	-0.0021
569.4349	-0.0047
569.6283	-0.0066
569.8216	-0.0083
570.0149	-0.005
570.2082	-0.0039
570.4015	-0.0088
570.5947	-0.005
570.788	-0.0057
570.9812	-0.0036
571.1744	-0.0066
571.3676	-0.0084
571.5608	-0.0022
571.754	-0.0063
571.9471	-0.0034
572.1402	-0.0075
572.3333	-0.0036
572.5264	-0.0002
572.7195	-0.0031
572.9126	-0.0057
573.1057	-0.0022
573.2987	0.0015
573.4917	-0.0079
573.6847	-0.0038
573.8777	-0.0084
574.0707	-0.0031
574.2636	-0.0064
574.4566	-0.0067
574.6495	-0.0064
574.8424	-0.007
575.0353	-0.0053
575.2281	-0.0019
575.421	-0.0086
575.6138	-0.0009
575.8067	-0.0007
575.9995	0.0007
576.1923	-0.0086
576.385	-0.007
576.5778	-0.002
576.7706	0.0025
576.9633	-0.0016
577.156	0.0006
577.3487	-0.001
577.5414	0.0023
577.734	0.004
577.9267	0.0008
578.1193	-0.0041
578.3119	-0.0012
578.5045	-0.005
578.6971	-0.0027
578.8897	-0.0068
579.0822	-0.0007
579.2747	0.0037
579.4673	-0.0002
579.6598	-0.0052
579.8522	-0.0005
580.0447	-0.0055
580.2372	0.0012
580.4296	0.0062
580.622	0.0024
580.8144	-0.0029
581.0068	-0.0028
581.1992	0.0032
581.3915	-0.0006
581.5839	-0.0003
581.7762	-0.0053
581.9685	-0.004
582.1608	-0.006
582.353	0.0009
582.5453	-0.0045
582.7375	0.0022
582.9298	-0.0081
583.122	0.002
583.3142	-0.0002
583.5063	-0.0028
583.6985	-0.007
583.8906	-0.0072
584.0827	-0.0049
584.2749	-0.0087
584.4669	-0.0073
584.659	-0.011
584.8511	-0.0055
585.0431	-0.005
585.2352	-0.0072
585.4272	-0.0046
585.6192	-0.0035
585.8111	-0.0067
586.0031	0.0029
586.195	-0.0035
586.387	-0.0019
586.5789	-0.0055
586.7708	-0.0078
586.9627	-0.0032
587.1545	-0.0082
587.3464	-0.0045
587.5382	-0.0073
587.73	-0.0049
587.9218	-0.0033
588.1136	-0.0039
588.3053	-0.0005
588.4971	-0.0071
588.6888	-0.004
588.8805	-0.0013
589.0722	-0.0024
589.2639	-0.0011
589.4556	-0.0043
589.6472	0.0012
589.8389	-0.0001
590.0305	-0.0021
590.2221	0.0017
590.4137	-0.0013
590.6052	-0.006
590.7968	-0.0005
590.9883	-0.0011
591.1798	-0.0097
591.3713	-0.0035
591.5628	-0.0036
591.7543	-0.0014
591.9458	-0.0014
592.1372	-0.0053
592.3286	-0.0018
592.52	-0.0053
592.7114	0.0067
592.9028	-0.0048
593.0941	0.0007
593.2855	-0.0007
593.4768	-0.004
593.6681	-0.0009
593.8594	-0.0008
594.0506	-0.002
594.2419	0.0041
594.4331	-0.0063
594.6244	-0.0048
594.8156	-0.0036
595.0067	-0.0057
595.1979	0.0003
595.3891	-0.0066
595.5802	-0.0085
595.7713	-0.0005
595.9624	-0.0018
596.1535	0.0036
596.3446	-0.0033
596.5357	0.0017
596.7267	-0.0035
596.9177	0.0011
597.1087	0.0014
597.2997	-0.0001
597.4907	-0.0027
597.6817	-0.0057
597.8726	-0.0079
598.0635	-0.004
598.2544	-0.0053
598.4453	-0.0057
598.6362	-0.0047
598.827	-0.0065
599.0179	0.0028
599.2087	-0.0114
599.3995	-0.0059
599.5903	0.0029
599.7811	-0.0058
599.9718	-0.0007
600.1626	-0.0016
600.3533	-0.0042
600.544	0.0006
600.7347	-0.0016
600.9254	-0.0017
601.116	-0.0036
601.3067	-0.0064
601.4973	-0.0058
601.6879	-0.0007
601.8785	-0.0042
602.0691	-0.0051
602.2596	-0.0004
602.4502	-0.0052
602.6407	-0.0016
602.8312	-0.0033
603.0217	-0.0043
603.2122	-0.0017
603.4027	-0.0024
603.5931	-0.0031
603.7835	-0.0003
603.9739	-0.0023
604.1643	-0.0022
604.3547	0.0011
604.5451	-0.0031
604.7354	-0.0025
604.9257	-0.0069
605.116	0.0023
605.3063	-0.0005
605.4966	-0.0014
605.6869	-0.0045
605.8771	-0.0023
606.0673	-0.0017
606.2575	-0.0067
606.4477	-0.0069
606.6379	-0.0087
606.8281	-0.008
607.0182	-0.01
607.2083	-0.0041
607.3985	-0.009
607.5885	-0.003
607.7786	-0.0054
607.9687	-0.0007
608.1587	-0.0022
608.3488	-0.0042
608.5388	0.0028
608.7288	-0.005
608.9187	0
609.1087	-0.0042
609.2986	-0.0021
609.4886	-0.0045
609.6785	-0.0022
609.8684	-0.0045
610.0582	-0.0018
610.2481	-0.0029
610.4379	-0.0023
610.6278	-0.003
610.8176	-0.0017
611.0074	-0.0065
611.1971	-0.0024
611.3869	-0.0042
611.5766	0.0026
611.7664	0.0017
611.9561	-0.0017
612.1458	-0.0008
612.3354	-0.0051
612.5251	-0.0071
612.7147	-0.0025
612.9044	-0.006
613.094	0.0003
613.2836	-0.003
613.4731	-0.0073
613.6627	-0.0089
613.8522	-0.0012
614.0417	-0.0034
614.2313	-0.0059
614.4207	0.0005
614.6102	0.0001
614.7997	-0.0048
614.9891	-0.0026
615.1785	-0.0042
615.3679	0.001
615.5573	-0.0005
615.7467	0.0014
615.9361	-0.0018
616.1254	-0.0045
616.3147	-0.0019
616.504	-0.0032
616.6933	-0.0046
616.8826	-0.0055
617.0718	-0.0056
617.2611	0.001
617.4503	-0.0014
617.6395	-0.0023
617.8287	-0.001
618.0179	0.0033
618.207	-0.0089
618.3961	-0.001
618.5853	-0.0038
618.7744	-0.002
618.9634	0.0038
619.1525	-0.0051
619.3416	-0.0088
619.5306	-0.003
619.7196	0.0013
619.9086	-0.0018
620.0976	-0.0024
620.2866	-0.0029
620.4755	-0.0026
620.6645	-0.0034
620.8534	-0.0007
621.0423	-0.0053
621.2312	-0.0044
621.42	0.0009
621.6089	-0.0028
621.7977	-0.0039
621.9865	-0.0014
622.1753	0.0029
622.3641	0.003
622.5529	-0.0007
622.7416	-0.0012
622.9303	0.0008
623.1191	-0.0036
623.3078	0.0013
623.4964	-0.0014
623.6851	0.0018
623.8737	-0.0016
624.0624	0.0018
624.251	0.0014
624.4396	-0.0022
624.6282	-0.002
624.8167	0.0023
625.0053	-0.0005
625.1938	0.0002
625.3823	-0.0007
625.5708	0.0015
625.7593	-0.0011
625.9477	-0.0071
626.1362	-0.0024
626.3246	-0.0005
626.513	-0.0029
626.7014	-0.0053
626.8898	-0.002
627.0781	-0.0015
627.2665	-0.0063
627.4548	-0.0084
627.6431	-0.0033
627.8314	-0.005
628.0197	-0.004
628.2079	-0.001
628.3962	0.0013
628.5844	0.0021
628.7726	-0.0004
628.9608	-0.0046
629.1489	0.0001
629.3371	0.002
629.5252	0.0018
629.7134	-0.0027
629.9015	0.0006
630.0895	-0.0017
630.2776	-0.0038
630.4657	-0.0072
630.6537	-0.0015
630.8417	-0.0021
631.0297	-0.004
631.2177	-0.0008
631.4057	-0.0005
631.5936	0.0019
631.7815	-0.0059
631.9695	-0.0029
632.1574	-0.0075
632.3452	-0.0039
632.5331	-0.0053
632.7209	-0.0045
632.9088	-0.0064
633.0966	-0.0041
633.2844	-0.0056
633.4722	0.0001
633.6599	-0.0035
633.8477	-0.0038
634.0354	-0.006
634.2231	-0.0053
634.4108	0.001
634.5985	-0.0017
634.7861	-0.0021
634.9738	-0.0079
635.1614	-0.0026
635.349	-0.0029
635.5366	-0.0024
635.7242	-0.0011
635.9117	-0.003
636.0993	-0.0057
636.2868	-0.0015
636.4743	-0.0018
636.6618	-0.0066
636.8492	-0.0048
637.0367	-0.0028
637.2241	-0.0024
637.4115	-0.0073
637.5989	-0.0038
637.7863	0.0003
637.9737	-0.0069
638.161	-0.0066
638.3484	0.0002
638.5357	-0.0016
638.723	-0.0065
638.9103	0.0024
639.0975	-0.0003
639.2848	-0.0006
639.472	0.0028
639.6592	0.006
639.8464	-0.0017
640.0336	-0.0059
640.2208	0.0003
640.4079	-0.0041
640.595	-0.0001
640.7821	0.0009
640.9692	0.0007
641.1563	0.0014
641.3434	0.003
641.5304	-0.0023
641.7174	0.0029
641.9044	-0.0009
642.0914	0.0038
642.2784	0.0036
642.4653	0.0031
642.6523	-0.0019
642.8392	0.007
643.0261	0.006
643.213	0.0066
643.3999	-0.0005
643.5867	-0.0035
643.7735	0.0021
643.9604	0.001
644.1472	-0.0043
644.3339	-0.0016
644.5207	-0.0043
644.7075	-0.0012
644.8942	-0.0028
645.0809	-0.0025
645.2676	-0.0029
645.4543	0.0054
645.6409	0.0018
645.8276	-0.0027
646.0142	-0.003
646.2008	-0.0052
646.3874	-0.0056
646.574	-0.0034
646.7605	-0.0021
646.9471	-0.0079
647.1336	0.001
647.3201	-0.0048
647.5066	-0.0007
647.6931	0.0005
647.8795	-0.0062
648.0659	-0.0025
648.2524	-0.0013
648.4388	-0.0025
648.6252	-0.005
648.8115	-0.0105
648.9979	-0.0052
649.1842	-0.0071
649.3705	-0.0021
649.5568	-0.0033
649.7431	-0.0033
649.9294	-0.0062
650.1156	-0.0064
650.3018	-0.0068
650.488	-0.0068
650.6742	-0.0057
650.8604	-0.0013
651.0466	-0.0016
651.2327	0.0028
651.4188	0.0031
651.6049	0.0012
651.791	-0.0001
651.9771	0.0033
652.1632	0.0064
652.3492	0.0034
652.5352	-0.0015
652.7212	0
652.9072	-0.0008
653.0932	-0.0027
653.2791	-0.0015
653.465	-0.0009
653.651	-0.004
653.8369	-0.0021
654.0227	-0.0036
654.2086	0.0002
654.3944	-0.0044
654.5803	-0.0058
654.7661	-0.0035
654.9519	-0.006
655.1377	-0.0013
655.3234	-0.0001
655.5092	-0.0001
655.6949	-0.0001
655.8806	-0.0001
656.0663	-0.0001
656.2519	-0.0001
656.4376	-0.0029
656.6232	-0.0035
656.8088	-0.0028
656.9945	-0.0034
657.18	0.0021
657.3656	-0.0018
657.5511	-0.0045
657.7367	-0.0033
657.9222	0.003
658.1077	0.0004
658.2932	-0.0041
658.4786	0.0023
658.6641	-0.0068
658.8495	-0.0061
659.0349	-0.0032
659.2203	-0.0105
659.4057	-0.0041
659.591	-0.0067
659.7764	-0.0075
659.9617	-0.0052
660.147	-0.0026
660.3323	0.001
660.5176	-0.0101
660.7028	-0.0029
660.888	-0.0037
661.0733	-0.0038
661.2585	-0.003
661.4436	-0.0018
661.6288	-0.0027
661.8139	-0.0003
661.9991	-0.0012
662.1842	-0.0034
662.3693	-0.0028
662.5544	-0.0049
662.7394	-0.0007
662.9245	-0.0007
663.1095	0.0032
663.2945	-0.0083
663.4795	-0.0057
663.6644	-0.0077
663.8494	-0.0053
664.0343	0.0006
664.2193	-0.0067
664.4042	-0.0079
664.589	-0.0043
664.7739	-0.0042
664.9587	0.002
665.1436	-0
665.3284	-0.0019
665.5132	-0.0069
665.698	0.0018
665.8827	-0.0005
666.0675	-0.0073
666.2522	-0.0065
666.4369	-0.0097
666.6216	-0.01
666.8063	-0.0077
666.9909	-0.0126
667.1756	-0.0041
667.3602	-0.0149
667.5448	-0.0093
667.7294	-0.001
667.9139	-0.0104
668.0985	-0.0114
668.283	-0.0071
668.4675	-0.0129
668.652	-0.0103
668.8365	-0.0108
669.0209	-0.012
669.2054	-0.0048
669.3898	-0.0101
669.5742	-0.0067
669.7586	-0.0037
669.943	-0.0085
670.1273	-0.0101
670.3117	-0.0038
670.496	-0.0068
670.6803	-0.0039
670.8646	0.0008
671.0488	-0.0006
671.2331	-0.0016
671.4173	-0.0002
671.6015	0.0005
671.7857	-0.0077
671.9699	-0.0032
672.1541	-0.0047
672.3382	-0.0033
672.5223	-0.0074
672.7064	-0.0122
672.8905	-0.0134
673.0746	-0.0116
673.2587	-0.0148
673.4427	-0.0114
673.6267	-0.0153
673.8107	-0.0099
673.9947	-0.0088
674.1787	-0.0098
674.3626	-0.0133
674.5465	-0.0103
674.7304	0.0017
674.9143	-0.0038
675.0982	-0.0019
675.2821	-0.0029
675.4659	-0.0044
675.6497	0.0041
675.8335	-0.0016
676.0173	-0.0063
676.2011	-0.0071
676.3849	-0.0053
676.5686	-0.0022
676.7523	-0.0015
676.936	-0.0017
677.1197	-0.0077
677.3034	-0.005
677.487	-0.0085
677.6706	-0.0001
677.8542	-0.003
678.0378	-0.0031
678.2214	-0.0089
678.405	-0.0023
678.5885	-0.0099
678.772	-0.0037
678.9555	-0.0037
679.139	-0.0071
679.3225	-0.0053
679.5059	-0.0104
679.6894	0.0014
679.8728	-0.0046
680.0562	0.0012
680.2395	-0.0047
680.4229	-0.0009
680.6062	0.0022
680.7896	-0.0017
680.9729	-0.0007
681.1562	-0.0046
681.3394	0.0031
681.5227	-0.0041
681.7059	-0.0073
681.8891	-0.0089
682.0723	-0.0046
682.2555	-0.0081
682.4387	-0.0006
682.6218	-0.0071
682.805	-0.0048
682.9881	-0.0047
683.1712	0.004
683.3542	-0.0019
683.5373	-0.007
683.7203	-0.0023
683.9034	-0.0016
684.0864	-0.0047
684.2694	-0.0057
684.4523	-0.0053
684.6353	-0.002
684.8182	-0.0068
685.0011	-0.0056
685.184	-0.0007
685.3669	-0.0025
685.5498	-0.0021
685.7326	-0.0031
685.9154	-0.004
686.0982	-0.0039
686.281	-0.0068
686.4638	-0.0053
686.6465	-0.0051
686.8293	-0.0017
687.012	-0.0037
687.1947	-0.0116
687.3774	-0.001
687.56	-0.0073
687.7427	0.0016
687.9253	-0.0031
688.1079	0.0017
688.2905	-0.0068
688.4731	-0.0048
688.6556	-0.0034
688.8382	-0.001
689.0207	0.0008
689.2032	0.0014
689.3857	0.0063
689.5681	-0.0033
689.7506	-0.0027
689.933	-0.0012
690.1154	0.0025
690.2978	-0.0042
690.4802	-0.0012
690.6626	0.0034
690.8449	0.0019
691.0272	0.0032
691.2095	-0.0024
691.3918	-0.0035
691.5741	-0.0081
691.7563	-0.0035
691.9386	-0.0032
692.1208	-0.005
692.303	-0.0067
692.4852	-0.0054
692.6673	-0.0034
692.8495	-0.0061
693.0316	-0.006
693.2137	-0.0091
693.3958	-0.0043
693.5778	0.0009
693.7599	-0.0079
693.9419	-0.0089
694.1239	-0.0041
694.3059	-0.0091
694.4879	-0.0049
694.6699	-0.0088
694.8518	-0.0078
695.0337	-0.004
695.2157	-0.0017
695.3975	-0.0104
695.5794	-0.0036
695.7613	-0.0062
695.9431	-0.0053
696.1249	-0.0072
696.3067	-0.0088
696.4885	0.001
696.6703	-0.0025
696.852	-0.0034
697.0337	-0.0023
697.2154	-0.0021
697.3971	-0.0048
697.5788	-0.0015
697.7605	-0.0023
697.9421	-0.0042
698.1237	-0.0086
698.3053	-0.0046
698.4869	-0.0014
698.6685	-0.0069
698.85	-0.0031
699.0315	-0.0004
699.213	0.0019
699.3945	-0.0056
699.576	0.0019
699.7575	-0.0015
699.9389	0.0008
700.1203	-0.0047
700.3017	-0.0061
700.4831	-0.0032
700.6645	-0.004
700.8458	-0.0044
701.0271	-0.0059
701.2084	-0.0065
701.3897	-0.0072
701.571	0.0009
701.7523	-0.0001
701.9335	0.0087
702.1147	0.0046
702.2959	-0.0052
702.4771	-0.0018
702.6583	0.0001
702.8394	-0.0044
703.0205	0.0014
703.2016	-0.0056
703.3827	0.0012
703.5638	-0.0075
703.7449	-0.0048
703.9259	-0.0013
704.1069	-0.0022
704.2879	-0.0064
704.4689	-0.0056
704.6499	-0.0016
704.8308	-0.0009
705.0117	-0.0008
705.1927	-0.0011
705.3735	0.0033
705.5544	0.0016
705.7353	0.0019
705.9161	-0.0017
706.0969	0.0013
706.2777	-0.002
706.4585	0.0004
706.6393	-0.0011
706.82	-0.0035
707.0007	-0.0062
707.1815	0.0038
707.3621	-0.0029
707.5428	-0.0071
707.7235	-0.0008
707.9041	0.0032
708.0847	-0.0007
708.2653	-0.0026
708.4459	-0.0046
708.6265	-0.0052
708.807	0.0024
708.9875	-0.0033
709.168	-0.0073
709.3485	-0.004
709.529	-0.0096
709.7095	-0.0046
709.8899	-0.0108
710.0703	-0.0017
710.2507	-0.007
710.4311	-0.0027
710.6115	0.0007
710.7918	-0.0048
710.9721	-0.0006
711.1524	0.0046
711.3327	0.0003
711.513	-0.0058
711.6932	-0.0062
711.8735	0.0005
712.0537	-0.002
712.2339	-0.0043
712.4141	-0.0033
712.5942	0.0039
712.7744	0.0001
712.9545	-0.0017
713.1346	-0.0015
713.3147	0.0051
713.4947	0.0028
713.6748	-0.0023
713.8548	-0.005
714.0348	-0.0039
714.2148	-0.0031
714.3948	-0.0041
714.5748	-0.0134
714.7547	-0.0074
714.9346	-0.0004
715.1145	-0.0076
715.2944	0.0007
715.4743	-0.0013
715.6541	-0.0023
715.834	-0.0001
716.0138	-0.0066
716.1936	-0.0012
716.3733	-0.0079
716.5531	-0.0065
716.7328	-0.0045
716.9126	0.0023
717.0923	-0.0015
717.2719	-0.0092
717.4516	-0.0025
717.6312	0.0059
717.8109	0.0024
717.9905	-0.009
718.1701	-0.0025
718.3496	-0.0028
718.5292	-0.0046
718.7087	-0.0019
718.8882	-0.0047
719.0677	-0.0025
719.2472	-0.0005
719.4267	-0.0124
719.6061	-0.0071
719.7856	-0.0012
719.965	-0.0076
720.1443	-0.0031
720.3237	-0.0057
720.5031	-0.0076
720.6824	-0.0053
720.8617	-0.0047
721.041	-0.0005
721.2203	-0.0048
721.3995	-0.0053
721.5788	-0.009
721.758	-0.0037
721.9372	-0.0064
722.1164	-0.0054
722.2956	-0.0164
722.4747	-0.0083
722.6538	-0.0084
722.8329	-0.0079
723.012	-0.0043
723.1911	-0.0033
723.3702	0.0025
723.5492	-0.0037
723.7282	-0.0059
723.9072	-0.0003
724.0862	-0.0018
724.2652	-0.0094
724.4441	-0.0064
724.623	0.0031
724.8019	-0.0022
724.9808	0.0002
725.1597	-0.0006
725.3385	0.0049
725.5174	0.005
725.6962	-0.0109
725.875	0.0052
726.0538	0.0014
726.2325	-0.0053
726.4112	-0.0047
726.59	-0.0016
726.7687	-0.0049
726.9474	-0.001
727.126	-0.0093
727.3047	-0.001
727.4833	0.001
727.6619	-0.0105
727.8405	-0.0021
728.0191	-0.0015
728.1976	-0.006
728.3762	-0.004
728.5547	-0.0096
728.7332	-0.0059
728.9116	-0.0133
729.0901	-0.009
729.2686	-0.0092
729.447	-0.0038
729.6254	-0.004
729.8038	-0.0071
729.9821	-0.0014
730.1605	-0.0031
730.3388	0.0011
730.5171	0.0021
730.6954	-0.0041
730.8737	-0.0029
731.0519	-0.0023
731.2302	-0.0004
731.4084	0.007
731.5866	0.002
731.7648	-0.0021
731.9429	-0.0008
732.1211	0.003
732.2992	-0.0012
732.4773	-0.0013
732.6554	-0.005
732.8335	-0.007
733.0115	-0.0053
733.1896	-0.0034
733.3676	-0.0049
733.5456	-0.0043
733.7235	-0.0056
733.9015	0.0091
734.0794	-0.002
734.2574	-0.0049
734.4353	-0.0026
734.6131	-0.0011
734.791	-0.0018
734.9689	-0.0034
735.1467	-0.0016
735.3245	-0.0021
735.5023	-0.0043
735.68	-0.0083
735.8578	-0.0053
736.0355	0.0078
736.2132	0.0027
736.3909	-0.0054
736.5686	-0.0031
736.7463	-0.0014
736.9239	-0.0055
737.1015	-0.0042
737.2791	-0.0055
737.4567	-0.0062
737.6343	-0.0028
737.8118	-0.0059
737.9894	-0.0021
738.1669	-0.0054
738.3444	-0.0001
738.5218	0.0001
738.6993	-0.0014
738.8767	-0.0027
739.0541	-0.0016
739.2315	-0.0064
739.4089	-0.0056
739.5863	-0.0079
739.7636	-0.0024
739.9409	-0.0036
740.1182	0.0007
740.2955	0.0016
740.4728	-0.0039
740.65	-0.0008
740.8272	0.0078
741.0044	-0.0043
741.1816	0.0011
741.3588	0.0045
741.5359	-0.0028
741.7131	-0.0004
741.8902	0.0049
742.0673	0.0059
742.2444	-0.0073
742.4214	-0.0057
742.5985	-0.0118
742.7755	-0.0047
742.9525	-0.0004
743.1295	-0.0073
743.3064	-0.0076
743.4834	-0.0017
743.6603	-0.0025
743.8372	0.0024
744.0141	-0.0082
744.191	-0.0061
744.3678	-0.0048
744.5446	0.0014
744.7215	-0.0063
744.8982	0.002
745.075	0.001
745.2518	-0.0008
745.4285	-0.0038
745.6052	0.0011
745.7819	-0.0017
745.9586	-0.0062
746.1353	-0.0008
746.3119	-0.005
746.4885	-0.0019
746.6651	-0.0013
746.8417	-0.0056
747.0183	0.0015
747.1948	-0.0121
747.3714	-0.0064
747.5479	-0.0032
747.7244	-0.0003
747.9008	0.0033
748.0773	0.0049
748.2537	0.0015
748.4301	-0.0002
748.6065	0.0026
748.7829	0.0034
748.9593	0.0011
749.1356	-0.0084
749.3119	0.0005
749.4882	-0.0001
749.6645	-0.0046
749.8408	-0.0022
750.017	-0.0021
750.1933	-0.0056
750.3695	-0.0084
750.5457	-0.0076
750.7218	-0.0076
750.898	-0.0051
751.0741	-0.0053
751.2502	-0.0009
751.4263	-0.0024
751.6024	-0.0056
751.7784	0.0029
751.9545	-0.0031
752.1305	0.0041
752.3065	-0.0017
752.4825	-0.004
752.6584	-0.0053
752.8344	-0.0041
753.0103	-0.0011
753.1862	0.0033
753.3621	-0.0017
753.5379	0
753.7138	0.0048
753.8896	-0.0121
754.0654	-0.0072
754.2412	-0.0143
754.417	-0.0047
754.5927	-0.0039
754.7685	-0.0125
754.9442	-0.0059
755.1199	-0.0158
755.2956	-0.0126
755.4712	-0.007
755.6469	-0.0146
755.8225	-0.0112
755.9981	-0.0031
756.1736	-0.0014
756.3492	-0.0079
756.5248	0.001
756.7003	-0.005
756.8758	-0.0173
757.0513	-0.0104
757.2267	-0.0081
757.4022	-0.0085
757.5776	-0.0128
757.753	-0.0129
757.9284	-0.0073
758.1038	-0.0052
758.2791	-0.0143
758.4545	-0.0113
758.6298	-0.0015
758.8051	-0.0047
758.9803	-0.0069
759.1556	-0.009
759.3308	-0.0038
759.506	-0.009
759.6812	-0.008
759.8564	-0.0116
760.0316	-0.0119
760.2067	-0.0063
760.3819	-0.0067
760.557	-0.0079
760.732	-0.011
760.9071	-0.0148
761.0821	-0.0135
761.2572	-0.0067
761.4322	-0.0094
761.6072	-0.0112
761.7821	-0.0098
761.9571	-0.0136
762.132	-0.0114
762.3069	-0.0052
762.4818	-0.0039
762.6567	-0.0099
762.8316	-0.0081
763.0064	-0.0002
763.1812	0.0021
763.356	-0.0029
763.5308	-0.0013
763.7055	0.0015
763.8803	-0.0034
764.055	-0.0051
764.2297	0.0053
764.4044	0.0025
764.579	0.0007
764.7537	0.001
764.9283	-0.0073
765.1029	0.0026
765.2775	0.0046
765.4521	0.0095
765.6266	0.0105
765.8011	0.0053
765.9756	0.0005
766.1501	0.0057
766.3246	-0.0069
766.4991	-0.0054
766.6735	-0.0039
766.8479	-0.0102
767.0223	0.0031
767.1967	-0.0038
767.371	0.0008
767.5454	0.0021
767.7197	-0.0013
767.894	0.0011
768.0683	0.0056
768.2425	-0.0055
768.4168	-0.0046
768.591	0.0073
768.7652	-0.0024
768.9394	0.0042
769.1135	-0.0003
769.2877	0.0016
769.4618	0.0075
769.6359	0.0012
769.81	0.0008
769.984	-0.0064
770.1581	0.0034
770.3321	-0.0016
770.5061	-0.0036
770.6801	0.0029
770.8541	-0.0061
771.028	0.0034
771.202	0.0093
771.3759	-0.0004
771.5498	-0.0017
771.7236	-0.0039
771.8975	-0.0032
772.0713	0.0045
772.2451	0.0067
772.4189	-0.0003
772.5927	-0.0068
772.7665	-0.0063
772.9402	-0.0012
773.1139	-0.0019
773.2876	-0.0007
773.4613	-0.0081
773.635	0.0005
773.8086	0.0006
773.9822	0.0058
774.1558	-0.0029
774.3294	0
774.503	0.0005
774.6765	-0.0091
774.8501	0.0037
775.0236	-0.0121
775.1971	-0.0107
775.3705	0.0003
775.544	-0.009
775.7174	-0.0028
775.8908	-0.0078
776.0642	0.0045
776.2376	-0.0007
776.4109	-0.0074
776.5843	0.0051
776.7576	0.006
776.9309	-0.0013
777.1041	0.0005
777.2774	0.0012
777.4506	-0.002
777.6238	-0.0021
777.797	-0.0037
777.9702	-0.0072
778.1434	-0.0068
778.3165	0.0036
778.4896	-0.0107
778.6627	-0.0057
778.8358	-0.0071
779.0089	-0.0067
779.1819	0.0006
779.3549	0.0001
779.5279	0.0041
779.7009	-0.0064
779.8739	-0.0069
780.0468	-0.0079
780.2197	0.0002
780.3926	-0.0022
780.5655	0.0008
780.7384	-0.0106
780.9112	-0.0064
781.0841	-0.0008
781.2569	0.0011
781.4297	-0.0027
781.6024	0.0055
781.7752	-0.0043
781.9479	-0.0001
782.1206	0.0028
782.2933	-0.0015
782.466	-0.008
782.6386	0.009
782.8113	-0.0156
782.9839	-0.0102
783.1565	-0.0067
783.329	0.0051
783.5016	-0.0011
783.6741	-0.0024
783.8466	-0.0144
784.0191	-0.0112
784.1916	0.0004
784.3641	0.0061
784.5365	0.0025
784.7089	0.0027
784.8813	0.0124
785.0537	0.0073
785.2261	-0.0006
785.3984	0.0042
785.5707	0.0017
785.743	0.004
785.9153	-0.001
786.0876	-0.002
786.2598	0.0001
786.432	0.0032
786.6042	0.0053
786.7764	0.0103
786.9486	0.0011
787.1207	-0.0035
787.2928	-0.0021
787.4649	-0.0047
787.637	-0.0074
787.8091	-0.0011
787.9811	0.0046
788.1532	-0.0051
788.3252	-0.0098
788.4972	-0.0027
788.6691	-0.0026
788.8411	0.0022
789.013	-0.008
789.1849	0.0103
789.3568	-0.0053
789.5287	-0.0004
789.7005	-0.0025
789.8723	-0.0007
790.0442	-0.0036
790.2159	0.0052
790.3877	-0.014
790.5595	-0.0046
790.7312	-0.0035
790.9029	-0.0023
791.0746	-0.0047
791.2463	-0.0025
791.4179	-0.0102
791.5896	0.0015
791.7612	-0.0002
791.9328	0.0073
792.1044	-0.0099
792.2759	0.0027
792.4474	0.0006
792.619	-0.0034
792.7905	-0.0007
792.9619	-0.0072
793.1334	-0.003
793.3048	0.0007
793.4762	-0.0002
793.6476	-0.012
793.819	-0.0046
793.9904	-0.011
794.1617	-0.0182
794.333	-0.0094
794.5043	-0.0005
794.6756	0.0101
794.8469	0.0029
795.0181	-0.0093
795.1893	-0.0051
795.3605	-0.0152
795.5317	-0.0153
795.7029	-0.0083
795.874	-0.0056
796.0452	-0.0003
796.2163	-0.011
796.3873	-0.0076
796.5584	-0.0123
796.7294	-0.007
796.9005	-0.0119
797.0715	-0.0102
797.2425	-0.0139
797.4134	-0.0071
797.5844	-0.022
797.7553	-0.0132
797.9262	-0.012
798.0971	-0.0177
798.2679	-0.0056
798.4388	-0.0115
798.6096	-0.0162
798.7804	-0.0141
798.9512	-0.0195
799.122	-0.0068
799.2927	-0.017
799.4635	-0.0048
799.6342	-0.0112
799.8049	-0.0174
799.9755	-0.014
800.1462	-0.0152
800.3168	-0.0111
800.4874	-0.004
800.658	-0.0158
800.8286	-0.0158
800.9991	-0.0202
801.1696	-0.0134
801.3402	-0.0251
801.5106	-0.0122
801.6811	-0.0168
801.8516	-0.0217
802.022	-0.0252
802.1924	-0.0239
802.3628	-0.0118
802.5332	-0.0131
802.7035	-0.0223
802.8739	-0.0182
803.0442	-0.0088
803.2145	-0.0155
803.3847	-0.0211
803.555	-0.0122
803.7252	-0.0136
803.8954	-0.0108
804.0656	-0.0035
804.2358	-0.011
804.4059	-0.016
804.5761	-0.0116
804.7462	-0.0106
804.9163	-0.0121
805.0864	-0.0141
805.2564	-0.0135
805.4264	-0.0122
805.5965	-0.0125
805.7665	-0.0138
805.9364	-0.0089
806.1064	0.0011
806.2763	-0.0117
806.4462	-0.0094
806.6161	-0.0097
806.786	-0.0081
806.9559	-0.0014
807.1257	-0.0044
807.2955	-0.0039
807.4653	-0.0112
807.6351	-0.0068
807.8048	-0.0002
807.9746	-0.0133
808.1443	-0.0043
808.314	-0.0069
808.4837	-0.0015
808.6533	-0.0022
808.8229	0.0039
808.9926	0.0043
809.1622	-0.0078
809.3317	0.0141
809.5013	0.0061
809.6708	0.0004
809.8403	0.0016
810.0098	0.0095
810.1793	-0.0135
810.3488	0.0151
810.5182	-0.0022
810.6876	0.0022
810.857	-0.0199
811.0264	-0.0184
811.1958	0.0055
811.3651	-0.007
811.5344	-0.0032
811.7037	-0.0132
811.873	-0.0192
812.0422	-0.0125
812.2115	-0.0064
812.3807	0.0014
812.5499	-0.0026
812.7191	0.0006
812.8882	-0.0074
813.0574	-0.0099
813.2265	-0.0026
813.3956	-0.0099
813.5646	-0.0113
813.7337	0.0097
813.9027	-0.0018
814.0718	-0.013
814.2407	0.0072
814.4097	0.0017
814.5787	-0.0009
814.7476	-0.0055
814.9165	0.0121
815.0854	-0.0083
815.2543	0.009
815.4232	0.0047
815.592	0.0069
815.7608	-0.0061
815.9296	0.0046
816.0984	0.0001
816.2671	-0.0005
816.4359	0.014
816.6046	-0.005
816.7733	-0.0094
816.942	0.0002
817.1106	-0.0067
817.2793	-0.0012
817.4479	-0.0124
817.6165	-0.0083
817.785	-0.0155
817.9536	-0.0115
818.1221	-0.015
818.2906	0.0038
818.4591	-0.0103
818.6276	0.0029
818.7961	-0.004
818.9645	-0.0073
819.1329	-0.0023
819.3013	-0.0001
819.4697	-0.016
819.638	-0.0016
819.8064	-0.0067
819.9747	0.0042
820.143	-0.0128
820.3113	-0.0196
820.4795	0.018
820.6477	-0.0126
820.816	-0.0057
820.9842	-0.0085
821.1523	-0.0176
821.3205	-0.0065
821.4886	0.002
821.6567	-0.0042
821.8248	-0.0069
821.9929	-0.0048
822.1609	0.0104
822.329	-0.0007
822.497	-0.0174
822.665	-0.02
822.833	-0.0248
823.0009	-0.017
823.1688	-0.0126
823.3367	-0.0089
823.5046	-0.0098
823.6725	-0.0154
823.8404	-0.0009
824.0082	-0.0029
824.176	0.0102
824.3438	-0.0135
824.5116	0.0026
824.6793	-0.0099
824.847	0.0009
825.0147	-0.0067
825.1824	-0.0221
825.3501	0.0091
825.5177	-0.0097
825.6854	0.0008
825.853	-0.0025
826.0206	0.0017
826.1881	0.0008
826.3557	-0.0087
826.5232	0.0065
826.6907	0.0045
826.8582	0.0005
827.0257	-0.0146
827.1931	0.0087
827.3605	-0.008
827.528	-0.0089
827.6953	-0.0008
827.8627	-0.0079
828.03	-0.0076
828.1974	-0.0028
828.3647	-0.0021
828.532	-0.0051
828.6992	-0.0082
828.8665	-0.0179
829.0337	-0.0015
829.2009	-0.0175
829.3681	-0.0256
829.5352	0.0016
829.7024	-0.0101
829.8695	-0.0142
830.0366	-0.0303
830.2037	-0.0033
830.3707	-0.0137
830.5378	-0.0103
830.7048	-0.019
830.8718	-0.0052
831.0388	-0.0062
831.2057	-0.019
831.3727	-0.0101
831.5396	0.0152
831.7065	0.0103
831.8734	0.0022
832.0402	-0.022
832.2071	0.0047
832.3739	-0.0164
832.5407	-0.008
832.7075	-0.0082
832.8742	0.0019
833.041	0.0121
833.2077	-0.0208
833.3744	-0.0032
833.541	0.0098
833.7077	-0.0052
833.8743	0.0031
834.0409	0.0162
834.2075	0.0056
834.3741	0.0075
834.5407	0.0043
834.7072	0.0027
834.8737	-0.0042
835.0402	-0.0166
835.2067	-0.0041
835.3731	-0.0153
835.5395	-0.0041
835.706	-0.0372
835.8723	-0.0159
836.0387	-0.0359
836.2051	-0.0086
836.3714	0.0089
836.5377	-0.0145
836.704	-0.0087
836.8703	-0.0293
837.0365	0.0086
837.2027	-0.008
837.3689	-0.0036
837.5351	0.0156
837.7013	-0.0111
837.8674	0.0224
838.0335	-0.0064
838.1997	-0.0028
838.3657	0.006
838.5318	0.0153
838.6978	-0.0045
838.8639	0.0067
839.0299	0.0023
839.1958	0.0003
839.3618	0.0147
839.5277	-0.0008
839.6937	-0.0083
839.8596	-0.0134
840.0254	0.0012
840.1913	0.0048
840.3571	0.0109
840.523	-0.002
840.6888	0.0135
840.8545	-0.0107
841.0203	-0.0152
841.186	-0.0119
841.3517	-0.0055
841.5174	-0.0178
841.6831	0.0087
841.8488	-0.0076
842.0144	0.0262
842.18	0.0119
842.3456	-0.01
842.5112	0.0168
842.6767	-0.0048
842.8422	0.0186
843.0077	-0.0115
843.1732	-0.0133
843.3387	-0.0188
843.5042	0.0068
843.6696	0.0041
843.835	-0.0248
844.0004	0.0239
844.1657	0.0119
844.3311	0.0067
844.4964	0.0038
844.6617	0.014
844.827	-0.0096
844.9923	0.0141
845.1575	-0.0161
845.3227	-0.0113
845.4879	0.0272
845.6531	0.0292
845.8183	-0.0295
845.9834	-0.0498
846.1485	0.0051
846.3136	-0.0488
846.4787	-0.0053
846.6438	0.0097
846.8088	-0.0119
846.9738	0.0093
847.1388	-0.0008
847.3038	0.0022
847.4687	0.01
847.6337	0.019
847.7986	0.029
847.9635	-0.0038
848.1284	-0.0331
848.2932	0.0072
848.458	0.0204
848.6228	0.0327
848.7876	-0.0399
848.9524	0.0128
849.1172	-0.0056
849.2819	0.0494
849.4466	-0.0125
849.6113	0.0493
849.7759	-0.027
849.9406	-0.0053
850.1052	0.0046
850.2698	0.0048
850.4344	0.0235
850.599	-0.0495
850.7635	0.0109
850.928	-0.0262
851.0925	0.0425
851.257	-0.0095
851.4215	0.0306
851.5859	0.0817
851.7503	-0.0107
851.9147	-0.0111
852.0791	0.0181
852.2434	-0.0382
852.4078	-0.0082
852.5721	-0.0201
852.7364	-0.0743
852.9007	0.0171
853.0649	-0.0239
853.2291	-0.0291
853.3934	-0.0258
853.5575	-0.0334
853.7217	-0.0354
853.8859	0.0015
854.05	-0.0061
854.2141	-0.0494
854.3782	0.0072
854.5423	-0.0131
854.7063	0.019
854.8703	-0.0381
855.0343	-0.0095
855.1983	-0.0257
855.3623	-0.0263
855.5262	0.0774
855.6901	0.0366
855.854	-0.0015
856.0179	0.0584
856.1818	0.0218
856.3456	-0.0532
856.5094	0.0001
856.6732	0.0001
856.837	-0.0148
857.0008	-0.0009
857.1645	0.0174
857.3282	-0.0177
857.4919	-0.0156
857.6556	0.0622
857.8192	0.0122
857.9828	0.0038
858.1465	0.0314
858.31	-0.0283
858.4736	-0.1105
858.6372	-0.0167
858.8007	0.017
858.9642	-0.0436
859.1277	0.1344
859.2911	-0.0101
859.4546	-0.0351
859.618	-0.0335
859.7814	0.0001
859.9448	-0.0731
860.1081	-0.0532
860.2715	0.0028
860.4348	0.0217
860.5981	0.0241
860.7614	-0.1263
860.9246	0.0367
861.0879	-0.0581
861.2511	0.0133
861.4143	-0.0951
861.5774	-0.0389
861.7406	0.0408
861.9037	-0.2096
862.0668	-0.0419
862.2299	-0.0309
862.393	-0.0435
862.556	0.1285
862.7191	-0.092
862.8821	-0.0165
863.0451	0.0355
863.208	-0.1483
863.371	0.065
863.5339	-0.066
863.6968	-0.1148
863.8597	0.0671
864.0225	-0.1935
864.1854	-0.0136
864.3482	-0.1364
864.511	0.0003
864.6737	-0.0686
864.8365	0.0878
864.9992	-0.208
865.1619	-0.0663
865.3246	-0.1402
865.4873	0.2925
865.65	0.0111
865.8126	0.0556
865.9752	-0.1826
866.1378	0.0075
866.3004	0.0503
866.4629	-0.1479
866.6254	0.1927
866.7879	-0.0954
866.9504	-0.1174
867.1129	-0.0757
867.2753	0.0782
867.4377	-0.1053
867.6001	-0.2076
867.7625	0.0105
867.9249	-0.1498
868.0872	-0.105
868.2495	-0.1811
868.4118	0.0078
868.5741	-0.1489
868.7363	0.0317
868.8986	-0.0936
869.0608	-0.1267
869.223	-0.1633
869.3851	-0.2703
869.5473	-0.207
869.7094	0.7878
869.8715	-0.0842
870.0336	-0.1221
870.1957	0.0883
870.3577	-0.0594
870.5197	-0.5273
870.6817	-0.2746
870.8437	-0.1093
871.0057	-0.0863
871.1676	-0.1105
871.3295	-0.4908
871.4914	0.0351
871.6533	0.0265
871.8151	-0.1988
871.977	0.0247
872.1388	-0.0274
872.3006	-0.1476
872.4623	-0.0364
872.6241	-0.0807
872.7858	0.0114
872.9475	-0.0798
873.1092	-0.1139
873.2709	-0.0927
873.4325	-0.1827
873.5941	-0.155
873.7557	-0.1134
873.9173	-0.0246
874.0789	-0.154
874.2404	-0.0213
874.4019	-0.4432
874.5634	-0.099
874.7249	-0.2506
874.8863	0.2525
875.0478	-0.3549
875.2092	-0.4198
875.3706	0.1726
875.5319	-0.1384
875.6933	0.0014
875.8546	-0.2826
876.0159	-0.0221
876.1772	0.0507
876.3385	-0.1879
876.4997	-0.0268
876.6609	0.251
876.8221	-0.09
876.9833	-0.654
877.1445	-0
877.3056	-0.0878
877.4667	-0.7061
877.6278	0.4352
877.7889	0.5896
877.9499	-0.666
878.111	0.1434
878.272	0.2602
878.433	0.0339
878.5939	0.2745
878.7549	0.1649
878.9158	-0.0591
879.0767	-0.0614
879.2376	0.0612
879.3984	-0.3464
879.5593	0.6039
879.7201	-0
879.8809	-0.1532
880.0417	-0.0693
880.2024	-0.0065
880.3632	-0.4535
880.5239	-0
880.6846	-0.3507
880.8452	0.117
881.0059	-0.3963
881.1665	-0
881.3271	-0.4406
881.4877	0.238
881.6483	-0
881.8088	0.0132
881.9693	0.1765
882.1298	0.1765
882.2903	0.1765
