Data from MonoPyChalIsomerACN10uM450nmA_Absorbance_13-11-18-892.txt Node
Date: Tue Jul 09 13:11:18 BST 2024
User: LASERRRRR
Spectrometer: FLMT03099
Trigger mode: 0
Integration Time (sec): 2.000000E-1
Scans to average: 1
Electric dark correction enabled: true
Nonlinearity correction enabled: false
Boxcar width: 0
XAxis mode: Wavelengths
Number of Pixels in Spectrum: 3648
>>>>>Begin Spectral Data<<<<<
179.3399	1.0116
179.5586	1.0116
179.7771	1.0116
179.9957	-0.5133
180.2143	-0
180.4329	0.6206
180.6514	0.3662
180.8699	-0.7562
181.0885	-0
181.307	-0
181.5255	-0
181.744	0.2512
181.9625	0.0934
182.181	0.1776
182.3994	0.1561
182.6179	1.0623
182.8363	-0
183.0547	0.1272
183.2732	0.1301
183.4916	-0.0787
183.71	0.1226
183.9284	-0.0621
184.1467	0.0151
184.3651	0.0752
184.5835	0.073
184.8018	0.0002
185.0201	0.0571
185.2385	-0.0132
185.4568	-0.0849
185.6751	0.1393
185.8934	0.0528
186.1117	-0.0138
186.3299	-0.1841
186.5482	0.086
186.7664	-0.0234
186.9847	0.0284
187.2029	0.0782
187.4211	0.1551
187.6393	-0.0782
187.8575	0.0467
188.0757	0.0375
188.2939	-0.01
188.512	0.0874
188.7302	-0.0351
188.9483	0.0828
189.1665	0.0867
189.3846	0.1802
189.6027	0.104
189.8208	0.2244
190.0389	0.3168
190.257	0.1364
190.475	0.2541
190.6931	0.1501
190.9111	0.2989
191.1292	0.2602
191.3472	0.242
191.5652	0.3109
191.7832	0.3553
192.0012	0.3536
192.2192	0.5033
192.4371	0.4726
192.6551	0.4298
192.873	0.4105
193.091	0.4197
193.3089	0.5173
193.5268	0.5217
193.7447	0.3386
193.9626	0.487
194.1805	0.6179
194.3984	0.5557
194.6162	0.4573
194.8341	0.4937
195.0519	0.5798
195.2697	0.5892
195.4875	0.6596
195.7054	0.5838
195.9231	0.5469
196.1409	0.6
196.3587	0.6339
196.5765	0.6963
196.7942	0.773
197.012	0.6051
197.2297	0.7313
197.4474	0.6832
197.6651	0.66
197.8828	0.7576
198.1005	0.8029
198.3182	0.6901
198.5358	0.669
198.7535	0.7848
198.9711	0.7995
199.1888	0.719
199.4064	0.7446
199.624	0.8024
199.8416	0.7113
200.0592	0.7371
200.2767	0.7199
200.4943	0.7506
200.7119	0.7696
200.9294	0.9007
201.1469	0.8798
201.3645	0.7779
201.582	0.7988
201.7995	0.7628
202.017	0.9078
202.2344	0.8134
202.4519	1.0075
202.6694	0.7538
202.8868	0.9766
203.1042	1.0352
203.3217	0.9308
203.5391	0.9381
203.7565	0.9605
203.9739	0.8466
204.1913	0.865
204.4086	0.9291
204.626	1.0727
204.8433	0.8922
205.0607	0.8871
205.278	0.905
205.4953	0.9825
205.7126	0.9735
205.9299	1.0547
206.1472	0.9693
206.3644	0.9214
206.5817	1.0092
206.7989	0.9526
207.0162	1.0557
207.2334	0.9266
207.4506	0.8835
207.6678	1.0735
207.885	1.0979
208.1022	1.0201
208.3194	0.9749
208.5365	1.0193
208.7537	0.9947
208.9708	1.016
209.1879	1.0317
209.405	1.0834
209.6222	1.0081
209.8392	1.0381
210.0563	0.9868
210.2734	1.0315
210.4905	1.0718
210.7075	1.0117
210.9245	0.9469
211.1416	1.0859
211.3586	1.1175
211.5756	1.0848
211.7926	1.077
212.0096	1.0883
212.2265	0.9925
212.4435	1.0945
212.6604	1.1083
212.8774	1.0427
213.0943	1.0111
213.3112	1.0143
213.5281	1.0191
213.745	0.9534
213.9619	0.9291
214.1788	0.9125
214.3956	0.9259
214.6125	0.9455
214.8293	0.8509
215.0461	0.8627
215.2629	0.9027
215.4798	0.8661
215.6965	0.8372
215.9133	0.8699
216.1301	0.8515
216.3469	0.7921
216.5636	0.7818
216.7803	0.7371
216.9971	0.7813
217.2138	0.7287
217.4305	0.7242
217.6472	0.6808
217.8639	0.6771
218.0805	0.6309
218.2972	0.5682
218.5138	0.5329
218.7305	0.5334
218.9471	0.4717
219.1637	0.4402
219.3803	0.427
219.5969	0.4018
219.8135	0.3837
220.0301	0.3466
220.2466	0.3767
220.4632	0.3509
220.6797	0.3072
220.8962	0.315
221.1127	0.3053
221.3292	0.294
221.5457	0.286
221.7622	0.288
221.9787	0.2765
222.1951	0.2794
222.4116	0.2719
222.628	0.2808
222.8444	0.2692
223.0608	0.282
223.2772	0.2743
223.4936	0.2671
223.71	0.2751
223.9264	0.2725
224.1427	0.2543
224.3591	0.2685
224.5754	0.2744
224.7917	0.2781
225.008	0.2782
225.2243	0.2759
225.4406	0.288
225.6569	0.2666
225.8732	0.2912
226.0894	0.281
226.3057	0.2902
226.5219	0.282
226.7381	0.2858
226.9543	0.2816
227.1705	0.2997
227.3867	0.3045
227.6029	0.2968
227.8191	0.3029
228.0352	0.3066
228.2513	0.3063
228.4675	0.2996
228.6836	0.3176
228.8997	0.3091
229.1158	0.3269
229.3319	0.3175
229.548	0.3207
229.764	0.3224
229.9801	0.3227
230.1961	0.3232
230.4121	0.321
230.6282	0.3354
230.8442	0.3378
231.0602	0.3397
231.2761	0.3424
231.4921	0.3482
231.7081	0.3628
231.924	0.3515
232.14	0.3669
232.3559	0.3683
232.5718	0.3687
232.7877	0.3525
233.0036	0.3754
233.2195	0.3619
233.4353	0.3558
233.6512	0.3725
233.867	0.3714
234.0829	0.3833
234.2987	0.3753
234.5145	0.3778
234.7303	0.3913
234.9461	0.398
235.1619	0.3812
235.3776	0.3851
235.5934	0.3847
235.8091	0.3895
236.0249	0.3918
236.2406	0.3811
236.4563	0.3915
236.672	0.4005
236.8877	0.4022
237.1034	0.3995
237.319	0.4085
237.5347	0.4085
237.7503	0.3964
237.966	0.4051
238.1816	0.4015
238.3972	0.4146
238.6128	0.4233
238.8284	0.4198
239.0439	0.4195
239.2595	0.4296
239.475	0.4171
239.6906	0.4183
239.9061	0.4122
240.1216	0.4214
240.3371	0.4153
240.5526	0.4193
240.7681	0.4068
240.9836	0.4092
241.199	0.3984
241.4145	0.4128
241.6299	0.4005
241.8453	0.3881
242.0607	0.3952
242.2761	0.3938
242.4915	0.3805
242.7069	0.3739
242.9223	0.3682
243.1376	0.3642
243.353	0.3548
243.5683	0.3624
243.7836	0.3381
243.9989	0.3408
244.2142	0.3225
244.4295	0.3317
244.6448	0.3207
244.86	0.3143
245.0753	0.3017
245.2905	0.2934
245.5057	0.2973
245.721	0.2877
245.9362	0.2843
246.1514	0.2889
246.3665	0.2773
246.5817	0.2711
246.7969	0.2811
247.012	0.2709
247.2271	0.2555
247.4423	0.2472
247.6574	0.2494
247.8725	0.2521
248.0876	0.2419
248.3026	0.2435
248.5177	0.242
248.7328	0.2356
248.9478	0.2378
249.1628	0.2343
249.3779	0.2298
249.5929	0.2281
249.8079	0.2261
250.0228	0.2182
250.2378	0.2274
250.4528	0.2159
250.6677	0.2263
250.8827	0.2147
251.0976	0.2011
251.3125	0.212
251.5274	0.2018
251.7423	0.2088
251.9572	0.1983
252.172	0.2059
252.3869	0.2061
252.6017	0.206
252.8166	0.2045
253.0314	0.2003
253.2462	0.2062
253.461	0.205
253.6758	0.1995
253.8906	0.1992
254.1053	0.1987
254.3201	0.2071
254.5348	0.2026
254.7496	0.2058
254.9643	0.1993
255.179	0.1967
255.3937	0.2066
255.6083	0.2003
255.823	0.1956
256.0377	0.1883
256.2523	0.19
256.467	0.2021
256.6816	0.191
256.8962	0.1931
257.1108	0.1983
257.3254	0.1901
257.54	0.193
257.7545	0.1947
257.9691	0.2033
258.1836	0.1902
258.3981	0.1938
258.6127	0.1916
258.8272	0.1919
259.0417	0.1938
259.2561	0.2047
259.4706	0.1887
259.6851	0.1839
259.8995	0.1906
260.114	0.1896
260.3284	0.1923
260.5428	0.1942
260.7572	0.2051
260.9716	0.1937
261.186	0.2007
261.4003	0.2029
261.6147	0.1956
261.829	0.2017
262.0433	0.1964
262.2577	0.1992
262.472	0.1977
262.6863	0.1913
262.9005	0.2026
263.1148	0.192
263.3291	0.1909
263.5433	0.1927
263.7576	0.1968
263.9718	0.1858
264.186	0.1874
264.4002	0.1821
264.6144	0.185
264.8286	0.1815
265.0427	0.1832
265.2569	0.1791
265.471	0.1759
265.6851	0.1751
265.8993	0.174
266.1134	0.178
266.3275	0.1828
266.5415	0.1709
266.7556	0.1728
266.9697	0.1734
267.1837	0.1775
267.3978	0.186
267.6118	0.1873
267.8258	0.1909
268.0398	0.1929
268.2538	0.1935
268.4677	0.1859
268.6817	0.1936
268.8957	0.1872
269.1096	0.1864
269.3235	0.1672
269.5374	0.1793
269.7514	0.1683
269.9652	0.1749
270.1791	0.1614
270.393	0.1566
270.6068	0.1434
270.8207	0.1565
271.0345	0.1529
271.2483	0.1486
271.4622	0.1501
271.676	0.146
271.8897	0.1351
272.1035	0.135
272.3173	0.1437
272.531	0.1397
272.7448	0.1455
272.9585	0.1383
273.1722	0.1309
273.3859	0.1338
273.5996	0.1338
273.8133	0.1471
274.0269	0.1339
274.2406	0.1358
274.4542	0.1436
274.6679	0.1301
274.8815	0.1418
275.0951	0.1376
275.3087	0.1394
275.5223	0.139
275.7358	0.1365
275.9494	0.1435
276.1629	0.1397
276.3765	0.1366
276.59	0.1422
276.8035	0.1344
277.017	0.1416
277.2305	0.1423
277.444	0.1401
277.6574	0.1394
277.8709	0.1404
278.0843	0.1428
278.2978	0.1398
278.5112	0.151
278.7246	0.139
278.938	0.1429
279.1513	0.1431
279.3647	0.1463
279.5781	0.1389
279.7914	0.1449
280.0047	0.1469
280.2181	0.147
280.4314	0.1399
280.6447	0.152
280.8579	0.1475
281.0712	0.1454
281.2845	0.1537
281.4977	0.1517
281.711	0.1463
281.9242	0.1482
282.1374	0.1509
282.3506	0.14
282.5638	0.1451
282.7769	0.1546
282.9901	0.1475
283.2033	0.1507
283.4164	0.1513
283.6295	0.1567
283.8426	0.1461
284.0557	0.1476
284.2688	0.1495
284.4819	0.1588
284.695	0.1545
284.908	0.1529
285.1211	0.159
285.3341	0.145
285.5471	0.149
285.7601	0.1503
285.9731	0.1583
286.1861	0.16
286.3991	0.1602
286.612	0.1626
286.825	0.1661
287.0379	0.1611
287.2508	0.1515
287.4637	0.1559
287.6766	0.1519
287.8895	0.1577
288.1024	0.1623
288.3152	0.158
288.5281	0.1581
288.7409	0.1529
288.9538	0.1581
289.1666	0.1623
289.3794	0.1574
289.5922	0.165
289.8049	0.1644
290.0177	0.1584
290.2304	0.1657
290.4432	0.1676
290.6559	0.1695
290.8686	0.1662
291.0813	0.1619
291.294	0.1607
291.5067	0.1603
291.7194	0.1666
291.932	0.1667
292.1447	0.1615
292.3573	0.1615
292.5699	0.1653
292.7825	0.1592
292.9951	0.1674
293.2077	0.1586
293.4203	0.1548
293.6328	0.1655
293.8454	0.1655
294.0579	0.157
294.2704	0.1685
294.4829	0.166
294.6954	0.1691
294.9079	0.1695
295.1204	0.1621
295.3328	0.1596
295.5453	0.1662
295.7577	0.1549
295.9701	0.1663
296.1825	0.1695
296.3949	0.1605
296.6073	0.1673
296.8197	0.1624
297.0321	0.1671
297.2444	0.1491
297.4567	0.1557
297.6691	0.1611
297.8814	0.1527
298.0937	0.1628
298.306	0.1606
298.5182	0.1489
298.7305	0.1607
298.9428	0.1518
299.155	0.1548
299.3672	0.1602
299.5794	0.1663
299.7916	0.1615
300.0038	0.1603
300.216	0.166
300.4282	0.1562
300.6403	0.1628
300.8525	0.1587
301.0646	0.1613
301.2767	0.1606
301.4888	0.1501
301.7009	0.1559
301.913	0.1622
302.125	0.1582
302.3371	0.1636
302.5491	0.1553
302.7612	0.1639
302.9732	0.1721
303.1852	0.156
303.3972	0.1627
303.6092	0.1571
303.8211	0.1557
304.0331	0.1544
304.245	0.1582
304.457	0.1644
304.6689	0.153
304.8808	0.1549
305.0927	0.1571
305.3046	0.1563
305.5164	0.1536
305.7283	0.1522
305.9401	0.1569
306.152	0.1487
306.3638	0.1549
306.5756	0.1413
306.7874	0.1501
306.9992	0.1461
307.2109	0.1393
307.4227	0.1414
307.6344	0.1365
307.8462	0.1388
308.0579	0.1298
308.2696	0.1272
308.4813	0.1295
308.693	0.1305
308.9046	0.1246
309.1163	0.1221
309.328	0.12
309.5396	0.1253
309.7512	0.1233
309.9628	0.1204
310.1744	0.12
310.386	0.1175
310.5976	0.1193
310.8091	0.1169
311.0207	0.1171
311.2322	0.1153
311.4437	0.1169
311.6552	0.1173
311.8667	0.1059
312.0782	0.1029
312.2897	0.1048
312.5012	0.1077
312.7126	0.1036
312.924	0.0972
313.1355	0.0976
313.3469	0.1035
313.5583	0.1055
313.7696	0.0981
313.981	0.0978
314.1924	0.0981
314.4037	0.0961
314.6151	0.0936
314.8264	0.0947
315.0377	0.0946
315.249	0.1011
315.4603	0.0957
315.6716	0.0967
315.8828	0.101
316.0941	0.0985
316.3053	0.1016
316.5165	0.0901
316.7277	0.0895
316.9389	0.0937
317.1501	0.0856
317.3613	0.0905
317.5724	0.0903
317.7836	0.0919
317.9947	0.0981
318.2058	0.0886
318.417	0.0817
318.6281	0.0934
318.8391	0.0934
319.0502	0.0861
319.2613	0.0946
319.4723	0.0975
319.6834	0.0871
319.8944	0.0965
320.1054	0.0943
320.3164	0.0963
320.5274	0.0958
320.7383	0.0942
320.9493	0.092
321.1602	0.0952
321.3712	0.1002
321.5821	0.0973
321.793	0.0928
322.0039	0.0902
322.2148	0.0949
322.4257	0.0906
322.6365	0.0904
322.8474	0.0946
323.0582	0.1005
323.269	0.0972
323.4798	0.0967
323.6906	0.0949
323.9014	0.0925
324.1122	0.0934
324.3229	0.1006
324.5337	0.0829
324.7444	0.0953
324.9551	0.0968
325.1658	0.0957
325.3765	0.0948
325.5872	0.0918
325.7979	0.1034
326.0085	0.0984
326.2192	0.1043
326.4298	0.1051
326.6404	0.0956
326.851	0.0987
327.0616	0.0949
327.2722	0.1003
327.4828	0.0942
327.6933	0.1008
327.9039	0.0998
328.1144	0.0969
328.3249	0.0986
328.5354	0.0949
328.7459	0.0914
328.9564	0.0983
329.1669	0.0999
329.3773	0.0997
329.5878	0.1074
329.7982	0.0949
330.0086	0.1021
330.219	0.1045
330.4294	0.0937
330.6398	0.0971
330.8502	0.0957
331.0605	0.0977
331.2708	0.1002
331.4812	0.1057
331.6915	0.0992
331.9018	0.0933
332.1121	0.1067
332.3224	0.0956
332.5326	0.0927
332.7429	0.1039
332.9531	0.0967
333.1633	0.1116
333.3735	0.1045
333.5837	0.1029
333.7939	0.0974
334.0041	0.0998
334.2143	0.104
334.4244	0.1013
334.6346	0.1014
334.8447	0.1018
335.0548	0.1018
335.2649	0.0984
335.475	0.0982
335.685	0.1083
335.8951	0.1009
336.1051	0.1004
336.3152	0.1082
336.5252	0.0994
336.7352	0.1024
336.9452	0.102
337.1552	0.1045
337.3652	0.108
337.5751	0.1133
337.7851	0.0978
337.995	0.1055
338.2049	0.1037
338.4148	0.1086
338.6247	0.1061
338.8346	0.1038
339.0445	0.1105
339.2543	0.1106
339.4642	0.1093
339.674	0.1104
339.8838	0.0963
340.0936	0.1088
340.3034	0.1133
340.5132	0.1093
340.7229	0.1186
340.9327	0.11
341.1424	0.1115
341.3522	0.113
341.5619	0.1206
341.7716	0.1219
341.9813	0.1183
342.1909	0.1204
342.4006	0.104
342.6102	0.1123
342.8199	0.1156
343.0295	0.1135
343.2391	0.1224
343.4487	0.1174
343.6583	0.1187
343.8679	0.111
344.0774	0.1205
344.287	0.1275
344.4965	0.117
344.706	0.121
344.9155	0.1259
345.125	0.1277
345.3345	0.1218
345.544	0.1126
345.7534	0.1196
345.9629	0.1247
346.1723	0.1285
346.3817	0.1247
346.5911	0.1305
346.8005	0.1207
347.0099	0.1234
347.2193	0.1265
347.4286	0.134
347.638	0.1348
347.8473	0.1314
348.0566	0.1335
348.2659	0.1173
348.4752	0.1292
348.6845	0.1315
348.8937	0.1354
349.103	0.1283
349.3122	0.1323
349.5214	0.1448
349.7306	0.1241
349.9398	0.1258
350.149	0.1363
350.3582	0.1354
350.5674	0.1374
350.7765	0.137
350.9856	0.1301
351.1948	0.1385
351.4039	0.1349
351.613	0.1302
351.822	0.1366
352.0311	0.1342
352.2402	0.1502
352.4492	0.1373
352.6582	0.1372
352.8672	0.14
353.0762	0.1503
353.2852	0.1536
353.4942	0.1499
353.7032	0.1453
353.9121	0.1474
354.1211	0.1472
354.33	0.1442
354.5389	0.1536
354.7478	0.1532
354.9567	0.153
355.1655	0.1492
355.3744	0.1542
355.5833	0.1438
355.7921	0.1529
356.0009	0.145
356.2097	0.1455
356.4185	0.1485
356.6273	0.1657
356.8361	0.1503
357.0448	0.154
357.2536	0.1461
357.4623	0.1586
357.671	0.1554
357.8797	0.1653
358.0884	0.1585
358.2971	0.1606
358.5057	0.1662
358.7144	0.1593
358.923	0.1663
359.1316	0.1674
359.3402	0.1691
359.5488	0.1713
359.7574	0.1688
359.966	0.1668
360.1746	0.166
360.3831	0.1839
360.5916	0.1817
360.8002	0.177
361.0087	0.1682
361.2172	0.1793
361.4256	0.1706
361.6341	0.1667
361.8426	0.1848
362.051	0.1639
362.2594	0.1893
362.4678	0.1754
362.6762	0.176
362.8846	0.1863
363.093	0.1814
363.3014	0.1814
363.5097	0.1828
363.718	0.1889
363.9264	0.1785
364.1347	0.1991
364.343	0.1804
364.5513	0.183
364.7595	0.1885
364.9678	0.1854
365.176	0.1953
365.3842	0.1897
365.5925	0.1905
365.8007	0.1923
366.0089	0.1931
366.217	0.1992
366.4252	0.2013
366.6333	0.199
366.8415	0.1966
367.0496	0.2032
367.2577	0.2029
367.4658	0.2026
367.6739	0.2099
367.882	0.2045
368.09	0.2086
368.2981	0.2128
368.5061	0.2061
368.7141	0.2059
368.9221	0.2059
369.1301	0.2246
369.3381	0.2115
369.5461	0.2133
369.754	0.2143
369.962	0.2088
370.1699	0.2171
370.3778	0.2046
370.5857	0.2153
370.7936	0.2159
371.0015	0.2199
371.2093	0.2092
371.4172	0.2212
371.625	0.2122
371.8328	0.2258
372.0406	0.2213
372.2484	0.2181
372.4562	0.2194
372.664	0.2243
372.8717	0.2244
373.0795	0.2314
373.2872	0.2342
373.4949	0.2223
373.7026	0.226
373.9103	0.2237
374.118	0.2249
374.3256	0.2192
374.5333	0.2225
374.7409	0.2256
374.9485	0.2215
375.1561	0.2236
375.3637	0.2299
375.5713	0.2255
375.7789	0.2325
375.9864	0.2295
376.194	0.2297
376.4015	0.2375
376.609	0.2392
376.8165	0.2428
377.024	0.2193
377.2315	0.2411
377.4389	0.2331
377.6464	0.2355
377.8538	0.2406
378.0612	0.2294
378.2686	0.232
378.476	0.2455
378.6834	0.2491
378.8908	0.2459
379.0981	0.2449
379.3055	0.2462
379.5128	0.2383
379.7201	0.2478
379.9274	0.2512
380.1347	0.248
380.342	0.2405
380.5492	0.2487
380.7565	0.2425
380.9637	0.2559
381.1709	0.2418
381.3781	0.2486
381.5853	0.2471
381.7925	0.2532
381.9997	0.2444
382.2068	0.2468
382.4139	0.2624
382.6211	0.2467
382.8282	0.2499
383.0353	0.2516
383.2424	0.2606
383.4494	0.2641
383.6565	0.2541
383.8635	0.278
384.0706	0.2564
384.2776	0.2549
384.4846	0.2564
384.6916	0.2616
384.8986	0.2615
385.1055	0.27
385.3125	0.2725
385.5194	0.2564
385.7263	0.2651
385.9333	0.2641
386.1402	0.2647
386.347	0.2715
386.5539	0.2565
386.7608	0.2603
386.9676	0.2637
387.1744	0.2589
387.3813	0.2614
387.5881	0.2553
387.7948	0.2566
388.0016	0.2551
388.2084	0.2653
388.4151	0.2573
388.6219	0.2609
388.8286	0.2597
389.0353	0.2581
389.242	0.2577
389.4487	0.2413
389.6553	0.2445
389.862	0.2502
390.0686	0.2485
390.2753	0.247
390.4819	0.2424
390.6885	0.2451
390.8951	0.2484
391.1016	0.2507
391.3082	0.2482
391.5147	0.2434
391.7213	0.2315
391.9278	0.2363
392.1343	0.2533
392.3408	0.224
392.5473	0.255
392.7537	0.2411
392.9602	0.2297
393.1666	0.2439
393.373	0.2361
393.5794	0.2462
393.7858	0.231
393.9922	0.2247
394.1986	0.2234
394.4049	0.2444
394.6113	0.2249
394.8176	0.2105
395.0239	0.2296
395.2302	0.2158
395.4365	0.2305
395.6428	0.2214
395.8491	0.214
396.0553	0.2288
396.2615	0.2236
396.4678	0.2275
396.674	0.2185
396.8802	0.2236
397.0863	0.2207
397.2925	0.2159
397.4987	0.2202
397.7048	0.211
397.9109	0.2219
398.117	0.2223
398.3231	0.2332
398.5292	0.2164
398.7353	0.221
398.9413	0.2177
399.1474	0.2169
399.3534	0.2217
399.5594	0.214
399.7654	0.2175
399.9714	0.2091
400.1774	0.2075
400.3833	0.2099
400.5893	0.2075
400.7952	0.2103
401.0011	0.2137
401.207	0.2227
401.4129	0.1989
401.6188	0.2113
401.8247	0.2126
402.0305	0.2108
402.2364	0.2116
402.4422	0.2171
402.648	0.2272
402.8538	0.2101
403.0596	0.2099
403.2654	0.2027
403.4711	0.2178
403.6768	0.2227
403.8826	0.2229
404.0883	0.2031
404.294	0.2122
404.4997	0.2069
404.7054	0.2101
404.911	0.226
405.1167	0.2213
405.3223	0.2166
405.5279	0.2148
405.7335	0.222
405.9391	0.2154
406.1447	0.2202
406.3502	0.2108
406.5558	0.2161
406.7613	0.2106
406.9668	0.2146
407.1724	0.2135
407.3778	0.2207
407.5833	0.2157
407.7888	0.2313
407.9942	0.2201
408.1997	0.2215
408.4051	0.2063
408.6105	0.225
408.8159	0.2258
409.0213	0.2086
409.2267	0.2144
409.432	0.2209
409.6374	0.2106
409.8427	0.2203
410.048	0.2109
410.2533	0.2067
410.4586	0.2129
410.6639	0.2097
410.8691	0.2068
411.0744	0.2195
411.2796	0.2054
411.4848	0.1991
411.69	0.2191
411.8952	0.2134
412.1004	0.2183
412.3056	0.2124
412.5107	0.2175
412.7158	0.2094
412.921	0.217
413.1261	0.1968
413.3312	0.2221
413.5362	0.2067
413.7413	0.1947
413.9464	0.2104
414.1514	0.2032
414.3564	0.2228
414.5614	0.2105
414.7664	0.2246
414.9714	0.2022
415.1764	0.2176
415.3813	0.2076
415.5863	0.2117
415.7912	0.2094
415.9961	0.2279
416.201	0.2109
416.4059	0.1973
416.6108	0.1975
416.8156	0.2053
417.0205	0.2106
417.2253	0.2051
417.4301	0.2037
417.6349	0.2192
417.8397	0.2068
418.0445	0.2056
418.2492	0.2143
418.454	0.2017
418.6587	0.2029
418.8634	0.2044
419.0681	0.2003
419.2728	0.2011
419.4775	0.187
419.6822	0.2066
419.8868	0.186
420.0915	0.1964
420.2961	0.2075
420.5007	0.1942
420.7053	0.1895
420.9099	0.181
421.1144	0.1994
421.319	0.1845
421.5235	0.198
421.728	0.1855
421.9325	0.1904
422.137	0.1781
422.3415	0.1905
422.546	0.1972
422.7504	0.1984
422.9549	0.1885
423.1593	0.192
423.3637	0.186
423.5681	0.1927
423.7725	0.1898
423.9769	0.185
424.1812	0.183
424.3856	0.183
424.5899	0.1747
424.7942	0.183
424.9985	0.1798
425.2028	0.1724
425.4071	0.1825
425.6113	0.1728
425.8156	0.1778
426.0198	0.186
426.224	0.1683
426.4282	0.1762
426.6324	0.1753
426.8366	0.1763
427.0407	0.1659
427.2449	0.1743
427.449	0.1648
427.6531	0.1585
427.8572	0.158
428.0613	0.17
428.2654	0.1601
428.4694	0.1687
428.6735	0.1633
428.8775	0.166
429.0815	0.1496
429.2855	0.1714
429.4895	0.1587
429.6935	0.1475
429.8975	0.1515
430.1014	0.1483
430.3053	0.1446
430.5093	0.1551
430.7132	0.1523
430.9171	0.1431
431.1209	0.1523
431.3248	0.1487
431.5286	0.1462
431.7325	0.1418
431.9363	0.1467
432.1401	0.118
432.3439	0.1252
432.5477	0.1304
432.7514	0.1413
432.9552	0.1262
433.1589	0.1239
433.3627	0.1234
433.5664	0.1234
433.7701	0.124
433.9737	0.1103
434.1774	0.1129
434.3811	0.1119
434.5847	0.1276
434.7883	0.1192
434.9919	0.1127
435.1955	0.1
435.3991	0.1056
435.6027	0.1035
435.8062	0.109
436.0098	0.1043
436.2133	0.1009
436.4168	0.1124
436.6203	0.1029
436.8238	0.0935
437.0272	0.0995
437.2307	0.0969
437.4341	0.0979
437.6375	0.0966
437.841	0.091
438.0443	0.0909
438.2477	0.0835
438.4511	0.1
438.6545	0.0793
438.8578	0.0867
439.0611	0.0793
439.2644	0.0993
439.4677	0.0792
439.671	0.0828
439.8743	0.0843
440.0775	0.0681
440.2808	0.0544
440.484	0.0793
440.6872	0.0702
440.8904	0.0696
441.0936	0.0656
441.2967	0.0622
441.4999	0.0672
441.703	0.0581
441.9062	0.0755
442.1093	0.061
442.3124	0.059
442.5155	0.0507
442.7185	0.0539
442.9216	0.0571
443.1246	0.0616
443.3276	0.0739
443.5307	0.0447
443.7337	0.0552
443.9366	0.0562
444.1396	0.0478
444.3426	0.0486
444.5455	0.0477
444.7484	0.041
444.9513	0.0484
445.1542	0.0498
445.3571	0.0479
445.56	0.0519
445.7628	0.041
445.9657	0.05
446.1685	0.0411
446.3713	0.0376
446.5741	0.0362
446.7769	0.0441
446.9797	0.0388
447.1824	0.0365
447.3852	0.041
447.5879	0.0357
447.7906	0.0387
447.9933	0.0311
448.196	0.0387
448.3986	0.035
448.6013	0.0305
448.8039	0.0382
449.0066	0.0327
449.2092	0.0278
449.4118	0.0217
449.6143	0.0207
449.8169	0.0179
450.0195	0.0247
450.222	0.0105
450.4245	0.019
450.627	0.0246
450.8295	0.009
451.032	0.0316
451.2345	0.0233
451.4369	0.0252
451.6394	0.0173
451.8418	0.0169
452.0442	0.014
452.2466	0.0258
452.449	0.0222
452.6513	0.027
452.8537	0.0292
453.056	0.0234
453.2583	0.0184
453.4607	0.0271
453.663	0.0171
453.8652	0.0138
454.0675	0.0173
454.2697	0.0193
454.472	0.0129
454.6742	0.0072
454.8764	0.0072
455.0786	0.0228
455.2808	0.0113
455.4829	0.0102
455.6851	0.0016
455.8872	0.009
456.0893	0.0093
456.2915	0.0078
456.4935	0.0174
456.6956	0.0055
456.8977	0.0098
457.0997	-0.0018
457.3018	0.0132
457.5038	0.006
457.7058	0.0067
457.9078	0.0041
458.1098	0.0021
458.3117	0.0042
458.5137	0.0147
458.7156	0.011
458.9175	0.0008
459.1194	0.0074
459.3213	0.0009
459.5232	0.0041
459.725	-0.0005
459.9269	0.0047
460.1287	0.0082
460.3305	0.0004
460.5323	0.0037
460.7341	-0.001
460.9359	-0.0027
461.1376	0.0045
461.3394	-0.0021
461.5411	0.0016
461.7428	0.0031
461.9445	0.0153
462.1462	-0.0053
462.3479	-0.0004
462.5495	0.0036
462.7512	-0.0027
462.9528	-0.0024
463.1544	-0.0009
463.356	0.0014
463.5576	-0.0071
463.7592	0.0028
463.9607	0.0036
464.1623	-0.0021
464.3638	0.0055
464.5653	0.0094
464.7668	-0.0004
464.9683	0.015
465.1697	0.0083
465.3712	-0.0048
465.5726	-0.0071
465.7741	-0.0131
465.9755	-0.0079
466.1769	-0.0059
466.3782	-0.0048
466.5796	-0.0013
466.7809	-0.0108
466.9823	-0.0031
467.1836	-0.0071
467.3849	-0.0009
467.5862	-0.0015
467.7875	-0.0046
467.9887	0.0093
468.19	0.0006
468.3912	-0.0046
468.5924	-0.0013
468.7936	-0.0097
468.9948	0.0099
469.196	-0.0076
469.3972	0.0096
469.5983	0.0079
469.7994	-0.0014
470.0006	-0.009
470.2017	0.0012
470.4027	-0.0053
470.6038	-0.0033
470.8049	-0.0071
471.0059	-0.001
471.2069	0.0047
471.408	-0.0163
471.6089	-0.0119
471.8099	-0.0039
472.0109	-0.0005
472.2119	-0.0183
472.4128	0.0025
472.6137	-0.0097
472.8146	-0.0012
473.0155	-0.0147
473.2164	-0.0191
473.4173	-0.0038
473.6181	-0.0025
473.819	-0.0051
474.0198	-0.0008
474.2206	0.0029
474.4214	-0.0037
474.6222	-0.0109
474.8229	-0.0097
475.0237	-0.003
475.2244	0.0018
475.4251	-0.0006
475.6258	0.0013
475.8265	-0.0071
476.0272	-0.001
476.2278	-0.0038
476.4285	-0.0033
476.6291	-0.011
476.8297	-0.0163
477.0303	-0.0019
477.2309	-0.0011
477.4315	0.0012
477.632	-0.0122
477.8326	0.0031
478.0331	-0.0099
478.2336	-0.0009
478.4341	-0.0093
478.6346	-0.0002
478.8351	-0.0052
479.0355	-0.0102
479.236	-0.0098
479.4364	-0.0091
479.6368	0.006
479.8372	-0.0058
480.0376	-0.0117
480.2379	-0.0056
480.4383	-0.0004
480.6386	-0.0176
480.8389	-0.0051
481.0392	-0.005
481.2395	-0.0088
481.4398	-0.0063
481.6401	-0.0088
481.8403	-0.0095
482.0405	-0.0112
482.2408	0.0002
482.441	-0.0044
482.6411	0.0022
482.8413	-0.0007
483.0415	-0.0045
483.2416	-0.006
483.4417	-0.0115
483.6419	-0.0049
483.8419	-0.0096
484.042	0.0023
484.2421	-0.0113
484.4422	-0.0064
484.6422	-0.0122
484.8422	-0.0064
485.0422	-0.008
485.2422	-0.0021
485.4422	-0.0076
485.6422	-0.003
485.8421	-0.0004
486.042	-0.0029
486.242	-0.0043
486.4419	-0.0057
486.6417	-0.0081
486.8416	0.0002
487.0415	-0.0084
487.2413	-0.0024
487.4411	-0.0046
487.641	-0.0033
487.8408	-0.0118
488.0405	-0.0116
488.2403	-0.0082
488.4401	-0.0047
488.6398	-0.0072
488.8395	-0.0014
489.0392	-0.0059
489.2389	-0.0122
489.4386	-0.0022
489.6383	-0.0067
489.8379	-0.0059
490.0376	0.0015
490.2372	-0.0045
490.4368	-0.01
490.6364	-0.0028
490.836	-0.0062
491.0355	-0.0078
491.2351	-0.0045
491.4346	-0.0114
491.6341	-0.0064
491.8336	-0.0117
492.0331	-0.0097
492.2326	-0.0098
492.432	-0.0056
492.6315	-0.0081
492.8309	-0.0056
493.0303	-0.0016
493.2297	-0.0018
493.4291	-0.0072
493.6284	0.0034
493.8278	-0.0071
494.0271	-0.0004
494.2264	-0.0062
494.4257	0.0019
494.625	-0.0035
494.8243	-0.0047
495.0236	-0.0174
495.2228	-0.0003
495.422	-0.0062
495.6213	-0.0143
495.8205	-0.0009
496.0196	-0.0023
496.2188	-0.0063
496.418	-0.0034
496.6171	-0.0018
496.8162	-0.0065
497.0153	0.0014
497.2144	-0.0073
497.4135	-0.0048
497.6126	-0.0104
497.8116	0.0019
498.0107	-0.0063
498.2097	-0.0022
498.4087	-0.0083
498.6077	-0.0082
498.8067	-0.005
499.0056	0.0037
499.2046	-0.0004
499.4035	-0.0088
499.6024	-0.0096
499.8013	0.0002
500.0002	-0.0094
500.199	-0.0064
500.3979	-0.0034
500.5967	-0.0092
500.7956	-0.014
500.9944	-0.0072
501.1932	-0.0015
501.3919	-0.0137
501.5907	-0.0045
501.7895	-0.004
501.9882	-0.0148
502.1869	-0.0075
502.3856	-0.0011
502.5843	-0.0087
502.783	-0.009
502.9816	-0.0123
503.1803	-0.0002
503.3789	-0.0028
503.5775	-0.0018
503.7761	-0.0111
503.9747	-0.0011
504.1732	-0.0058
504.3718	-0.0047
504.5703	-0.0013
504.7689	-0.0006
504.9674	0.0035
505.1658	-0.0074
505.3643	-0.0067
505.5628	0.0082
505.7612	-0.012
505.9597	-0.0102
506.1581	-0.0055
506.3565	-0.0058
506.5549	-0.008
506.7532	-0.0069
506.9516	-0.0052
507.1499	-0.0052
507.3482	-0.0119
507.5465	-0.0056
507.7448	-0.0095
507.9431	0.0001
508.1414	-0.0079
508.3396	-0.0085
508.5379	-0.0114
508.7361	0.0015
508.9343	-0.0115
509.1325	-0.0079
509.3306	-0.0017
509.5288	-0.0043
509.7269	-0.0103
509.9251	-0.0012
510.1232	-0.0017
510.3213	-0.0125
510.5193	-0.0063
510.7174	-0.0061
510.9154	-0.0061
511.1135	-0.0088
511.3115	-0.0087
511.5095	-0.0105
511.7075	0.0022
511.9055	-0.0075
512.1034	-0.0083
512.3014	-0.0039
512.4993	-0.0095
512.6972	-0.0029
512.8951	-0.0096
513.093	-0.009
513.2908	0.0019
513.4887	-0.0066
513.6865	-0.0025
513.8844	-0.0012
514.0822	-0.0054
514.2799	-0.0071
514.4777	-0.0047
514.6755	-0.0036
514.8732	-0.0114
515.0709	-0.0083
515.2687	-0.0132
515.4664	-0.003
515.664	-0.0048
515.8617	-0.0077
516.0594	-0.0083
516.257	0.005
516.4546	-0.0115
516.6522	-0.0116
516.8498	-0.008
517.0474	0.0005
517.2449	-0.0079
517.4425	-0.0041
517.64	-0.0038
517.8375	-0.009
518.035	-0.006
518.2325	-0.0108
518.43	-0.0029
518.6274	-0.0113
518.8249	-0.0056
519.0223	-0.0095
519.2197	-0.002
519.4171	-0.003
519.6145	0.0036
519.8118	-0.008
520.0092	0.0001
520.2065	-0.0185
520.4038	-0.0075
520.6011	-0.0144
520.7984	-0.0095
520.9956	-0.0069
521.1929	-0.0114
521.3901	-0.0133
521.5874	-0.0036
521.7846	0.0051
521.9818	-0.0083
522.1789	-0.0066
522.3761	-0.0021
522.5732	-0.0039
522.7704	-0.0053
522.9675	-0.0078
523.1646	-0.0082
523.3617	-0.0088
523.5587	-0.0097
523.7558	-0.0011
523.9528	-0.0019
524.1498	-0.007
524.3468	-0.0038
524.5438	-0.0097
524.7408	-0.0116
524.9378	-0.0095
525.1347	-0.0027
525.3316	-0.0057
525.5285	-0.0054
525.7254	-0.0067
525.9223	-0.0031
526.1192	-0.0106
526.316	-0.0039
526.5129	-0.0036
526.7097	-0.0091
526.9065	0.0009
527.1033	0.003
527.3	-0.008
527.4968	-0.0138
527.6935	-0.0072
527.8903	-0.0002
528.087	-0.0143
528.2837	0.0039
528.4804	-0.0077
528.677	-0.0065
528.8737	-0.0131
529.0703	-0.006
529.2669	0.0032
529.4635	-0.009
529.6601	-0.0013
529.8567	-0.0116
530.0532	-0.0055
530.2498	-0.0071
530.4463	-0.0031
530.6428	0.0019
530.8393	-0.0013
531.0358	-0.0067
531.2322	-0.0101
531.4287	-0.0133
531.6251	-0.009
531.8215	-0.0005
532.0179	-0.0072
532.2143	-0.0011
532.4107	0.0018
532.607	-0.0094
532.8034	-0.0072
532.9997	-0.0054
533.196	-0.0112
533.3923	-0.0006
533.5886	0.0007
533.7848	-0.0046
533.9811	-0.0096
534.1773	-0.0057
534.3735	-0.0073
534.5697	0
534.7659	-0.0007
534.9621	-0.0023
535.1582	-0.0079
535.3544	-0.0138
535.5505	-0.0025
535.7466	-0.006
535.9427	0.0009
536.1387	-0.0001
536.3348	0.005
536.5308	-0.0086
536.7269	0.0044
536.9229	-0.0047
537.1189	-0.0035
537.3148	-0.0009
537.5108	0.0029
537.7068	-0.0042
537.9027	-0.006
538.0986	-0.0023
538.2945	-0.004
538.4904	-0.0105
538.6863	-0.0066
538.8821	-0.0043
539.078	-0.0127
539.2738	-0.014
539.4696	-0.001
539.6654	-0.0093
539.8611	-0.0067
540.0569	-0.0051
540.2526	-0.0063
540.4484	0.0076
540.6441	-0.0068
540.8398	-0.01
541.0355	-0.0033
541.2311	-0.0039
541.4268	-0.0018
541.6224	-0.0045
541.818	-0.0055
542.0136	-0.0001
542.2092	-0.0066
542.4048	-0.0057
542.6003	-0.0064
542.7959	-0.0018
542.9914	-0.0103
543.1869	-0.0063
543.3824	-0.0056
543.5779	-0.0112
543.7734	-0.0111
543.9688	-0.0156
544.1642	-0.009
544.3596	-0.0102
544.555	-0.0059
544.7504	-0.0025
544.9458	-0.006
545.1411	0.0062
545.3365	-0.0047
545.5318	0.0009
545.7271	0.0024
545.9224	0.0025
546.1177	-0.0092
546.3129	-0.0005
546.5081	0.0012
546.7034	-0.0047
546.8986	-0.0023
547.0938	-0.0045
547.289	-0.0013
547.4841	-0.0114
547.6793	-0.0089
547.8744	-0.0041
548.0695	-0.004
548.2646	-0.011
548.4597	-0.002
548.6548	-0.0033
548.8498	-0.0005
549.0448	-0.0043
549.2399	-0.0034
549.4349	-0
549.6298	-0.0077
549.8248	-0.0046
550.0198	-0.0064
550.2147	-0.0036
550.4096	-0.009
550.6045	-0.0084
550.7994	-0.0011
550.9943	-0.0032
551.1892	-0.0022
551.384	-0.0052
551.5788	-0.01
551.7737	-0.002
551.9685	-0.0111
552.1632	-0.0034
552.358	-0.0091
552.5528	-0.0042
552.7475	-0.0066
552.9422	-0.0089
553.1369	-0.0074
553.3316	-0.0066
553.5263	-0.0078
553.7209	-0.0092
553.9156	-0.0024
554.1102	-0.01
554.3048	-0.0043
554.4994	-0.0089
554.694	-0.0006
554.8885	-0.002
555.0831	-0.0028
555.2776	0.002
555.4721	-0.0033
555.6666	-0.0065
555.8611	-0.002
556.0555	-0.0118
556.25	-0.0006
556.4444	-0.007
556.6388	-0.0139
556.8332	-0.002
557.0276	-0.0069
557.222	-0.0014
557.4163	-0.0013
557.6107	-0.0053
557.805	-0.0075
557.9993	-0.003
558.1936	-0.0081
558.3879	0.0024
558.5821	-0.0095
558.7764	-0.0085
558.9706	-0.0068
559.1648	-0.0061
559.359	-0.0098
559.5532	-0.0066
559.7473	-0.0101
559.9415	-0.0036
560.1356	-0.0038
560.3297	-0.0137
560.5238	-0.0099
560.7179	-0.0107
560.9119	-0.0005
561.106	0.0012
561.3	-0.0063
561.494	-0.0062
561.688	-0.0067
561.882	-0.0073
562.076	-0.0059
562.2699	-0.0043
562.4639	-0.0077
562.6578	-0.0092
562.8517	-0.002
563.0456	0.0003
563.2395	-0.0076
563.4333	-0.0051
563.6272	-0.0039
563.821	-0.0018
564.0148	0.004
564.2086	-0.0061
564.4024	-0.0022
564.5961	-0.0001
564.7899	0.0021
564.9836	0.0036
565.1773	0.0017
565.371	-0.0012
565.5647	-0.0043
565.7584	0.001
565.952	-0.0042
566.1456	-0.0032
566.3393	-0.0096
566.5329	-0.0064
566.7264	-0.0008
566.92	0.0034
567.1136	-0.0052
567.3071	-0.0018
567.5006	0.0007
567.6941	-0.0026
567.8876	-0.0057
568.0811	-0.0062
568.2745	-0.0069
568.468	-0.0101
568.6614	-0.0118
568.8548	-0.0039
569.0482	-0.0073
569.2416	-0.0015
569.4349	-0.0071
569.6283	-0.007
569.8216	-0.0062
570.0149	-0.0047
570.2082	0.0008
570.4015	-0.003
570.5947	-0.0052
570.788	-0.0065
570.9812	-0.0021
571.1744	-0.0126
571.3676	-0.0043
571.5608	-0.0033
571.754	-0.0036
571.9471	-0.0073
572.1402	-0.0047
572.3333	-0.0051
572.5264	-0.0022
572.7195	0.0032
572.9126	-0.0047
573.1057	-0.0007
573.2987	0.0013
573.4917	-0.0064
573.6847	-0.0039
573.8777	-0.0079
574.0707	-0.0007
574.2636	-0.0089
574.4566	-0.0049
574.6495	-0.0046
574.8424	-0.0055
575.0353	-0.0015
575.2281	-0.0009
575.421	-0.0087
575.6138	-0.0077
575.8067	-0.0004
575.9995	-0.0073
576.1923	-0.0019
576.385	-0.0072
576.5778	-0.0006
576.7706	0.0022
576.9633	-0.0041
577.156	0.0004
577.3487	-0.0002
577.5414	0.001
577.734	0.0008
577.9267	0.0018
578.1193	-0.0058
578.3119	-0.0012
578.5045	-0.0046
578.6971	-0.0004
578.8897	-0.0067
579.0822	-0.0077
579.2747	0.0041
579.4673	-0.0003
579.6598	-0.0017
579.8522	-0.0011
580.0447	-0.0043
580.2372	-0.0014
580.4296	0.0058
580.622	0.0045
580.8144	-0.0038
581.0068	0.0035
581.1992	0.0037
581.3915	-0.0016
581.5839	-0.0045
581.7762	-0.004
581.9685	0.0002
582.1608	-0.0034
582.353	0.0048
582.5453	-0.0027
582.7375	-0.0024
582.9298	-0.0015
583.122	0.0024
583.3142	-0.0007
583.5063	-0.0033
583.6985	-0.0057
583.8906	-0.0061
584.0827	-0.0068
584.2749	-0.0051
584.4669	-0.0058
584.659	-0.0105
584.8511	-0.0038
585.0431	-0.0051
585.2352	-0.0034
585.4272	-0.0079
585.6192	-0.0047
585.8111	-0.0056
586.0031	-0.003
586.195	-0.0086
586.387	-0.0009
586.5789	-0.0081
586.7708	-0.0056
586.9627	-0.0047
587.1545	-0.0059
587.3464	-0.0045
587.5382	-0.005
587.73	-0.004
587.9218	-0.0068
588.1136	-0.0012
588.3053	-0.0013
588.4971	-0.0095
588.6888	-0.006
588.8805	-0.0065
589.0722	0.0007
589.2639	-0.0044
589.4556	-0.0044
589.6472	-0.0036
589.8389	0.0005
590.0305	-0.0019
590.2221	-0.002
590.4137	-0.0068
590.6052	-0.0011
590.7968	-0.004
590.9883	-0.0038
591.1798	-0.0077
591.3713	-0.003
591.5628	-0.0013
591.7543	0.0016
591.9458	-0.0035
592.1372	-0.0053
592.3286	-0.0021
592.52	-0.008
592.7114	0.0041
592.9028	-0.0033
593.0941	-0.0025
593.2855	-0.0017
593.4768	-0.001
593.6681	0.0023
593.8594	0.0019
594.0506	-0.0001
594.2419	0.0021
594.4331	-0.0027
594.6244	-0.0016
594.8156	-0.002
595.0067	-0.0008
595.1979	-0.0098
595.3891	-0.0119
595.5802	-0.0063
595.7713	-0.006
595.9624	-0.0031
596.1535	0.0014
596.3446	-0.0011
596.5357	-0.0005
596.7267	-0.0065
596.9177	0
597.1087	-0.003
597.2997	-0.0012
597.4907	-0.0009
597.6817	-0.0025
597.8726	-0.0035
598.0635	-0.0031
598.2544	-0.0053
598.4453	-0.0034
598.6362	-0.0098
598.827	-0.0063
599.0179	-0.0056
599.2087	-0.0124
599.3995	-0.0097
599.5903	-0.0036
599.7811	-0.0042
599.9718	-0.0001
600.1626	-0.0004
600.3533	-0.0004
600.544	-0.0012
600.7347	0.0028
600.9254	0.0001
601.116	-0.0043
601.3067	-0.0017
601.4973	-0.0092
601.6879	-0.0011
601.8785	-0.0063
602.0691	-0.0043
602.2596	-0.0028
602.4502	-0.0056
602.6407	0.0011
602.8312	-0.0016
603.0217	-0.0021
603.2122	-0.0018
603.4027	-0.0013
603.5931	-0.005
603.7835	-0.0032
603.9739	-0.0026
604.1643	-0.0038
604.3547	0.0007
604.5451	0.0012
604.7354	0.0016
604.9257	-0.0039
605.116	-0.0006
605.3063	0.0012
605.4966	-0.0032
605.6869	-0.0014
605.8771	0.0011
606.0673	-0.0059
606.2575	-0.0036
606.4477	-0.0061
606.6379	-0.0031
606.8281	-0.0108
607.0182	-0.0111
607.2083	-0.0061
607.3985	-0.009
607.5885	-0.0004
607.7786	-0.0046
607.9687	-0.0048
608.1587	-0.0025
608.3488	-0.0056
608.5388	0.0024
608.7288	-0.0083
608.9187	-0.0041
609.1087	-0.0063
609.2986	-0.0024
609.4886	0.001
609.6785	0.0025
609.8684	-0.0009
610.0582	-0.0054
610.2481	-0.0087
610.4379	-0.0005
610.6278	-0.0006
610.8176	-0.002
611.0074	-0.0018
611.1971	0.0016
611.3869	-0.0038
611.5766	0.0021
611.7664	-0.0002
611.9561	-0.0052
612.1458	0.0026
612.3354	-0.006
612.5251	-0.0059
612.7147	-0.0005
612.9044	-0.0067
613.094	-0.0018
613.2836	-0.0013
613.4731	-0.0054
613.6627	-0.0068
613.8522	-0.0003
614.0417	-0.0031
614.2313	-0.0041
614.4207	-0.0037
614.6102	-0.0008
614.7997	-0.0053
614.9891	-0.0015
615.1785	-0.0049
615.3679	0.0006
615.5573	0.0005
615.7467	-0.0014
615.9361	-0.0007
616.1254	-0.0016
616.3147	-0.0024
616.504	-0.0038
616.6933	-0.0042
616.8826	-0.0052
617.0718	-0.0052
617.2611	-0.003
617.4503	-0.0007
617.6395	-0.0034
617.8287	-0.0001
618.0179	0.0044
618.207	-0.0025
618.3961	-0.0048
618.5853	-0.003
618.7744	-0.0006
618.9634	0.0064
619.1525	-0.0002
619.3416	-0.0055
619.5306	0.0009
619.7196	-0.0009
619.9086	-0.0018
620.0976	0
620.2866	0.0038
620.4755	-0.0078
620.6645	0.0005
620.8534	0.0021
621.0423	-0.0049
621.2312	-0.0097
621.42	-0.0016
621.6089	0.0016
621.7977	-0.0033
621.9865	-0.0032
622.1753	0.0017
622.3641	0.0006
622.5529	-0.0031
622.7416	-0.0065
622.9303	0.0035
623.1191	-0.0011
623.3078	-0.0004
623.4964	0.0019
623.6851	0.0022
623.8737	0.0022
624.0624	0.0018
624.251	0.0023
624.4396	0.0005
624.6282	-0.0009
624.8167	0.0033
625.0053	0.0017
625.1938	0.0043
625.3823	-0.0014
625.5708	0.0004
625.7593	-0.001
625.9477	-0.0051
626.1362	-0.0012
626.3246	0
626.513	-0.0067
626.7014	0.0007
626.8898	-0.0056
627.0781	-0.0054
627.2665	-0.0056
627.4548	-0.0096
627.6431	-0.0074
627.8314	-0.0056
628.0197	0.0014
628.2079	0.0002
628.3962	0.0033
628.5844	0.005
628.7726	-0.0015
628.9608	0.0015
629.1489	0.001
629.3371	0.0029
629.5252	-0.0002
629.7134	0.0037
629.9015	-0.0032
630.0895	0.0017
630.2776	-0.004
630.4657	-0.007
630.6537	0.0009
630.8417	0.001
631.0297	0.0004
631.2177	-0.0008
631.4057	-0.0005
631.5936	-0.0003
631.7815	-0.0025
631.9695	-0.0033
632.1574	-0.001
632.3452	-0.0056
632.5331	-0.0074
632.7209	-0.0078
632.9088	-0.0049
633.0966	0.0013
633.2844	-0.0038
633.4722	-0.0002
633.6599	-0.002
633.8477	-0.0056
634.0354	-0.0044
634.2231	-0.0061
634.4108	-0.0022
634.5985	-0.0032
634.7861	-0.004
634.9738	-0.0055
635.1614	-0.0069
635.349	0.0007
635.5366	-0.0027
635.7242	0.0006
635.9117	0.0017
636.0993	-0.0059
636.2868	-0.0021
636.4743	-0.0001
636.6618	-0.0057
636.8492	-0.0054
637.0367	-0.0001
637.2241	-0.002
637.4115	-0.0032
637.5989	-0.0017
637.7863	0.0001
637.9737	-0.0042
638.161	-0.0052
638.3484	-0.0033
638.5357	-0.0005
638.723	-0.0039
638.9103	0.0009
639.0975	0.0012
639.2848	-0.0028
639.472	0.0017
639.6592	0.0027
639.8464	0.0006
640.0336	-0.0035
640.2208	0.0031
640.4079	-0.0046
640.595	0.0042
640.7821	-0.0002
640.9692	0.0002
641.1563	0.0021
641.3434	0.0056
641.5304	-0.0007
641.7174	-0.0002
641.9044	0.003
642.0914	0
642.2784	0.0045
642.4653	0.0046
642.6523	-0.0031
642.8392	0.0048
643.0261	0.0036
643.213	0.0005
643.3999	0.0003
643.5867	-0.0034
643.7735	0.0006
643.9604	0.0017
644.1472	-0.0037
644.3339	-0.0019
644.5207	-0.0024
644.7075	-0.0068
644.8942	-0.0001
645.0809	-0.0019
645.2676	-0.0049
645.4543	0.0034
645.6409	-0.0001
645.8276	0.0004
646.0142	-0.0025
646.2008	-0.0072
646.3874	-0.0058
646.574	-0.0048
646.7605	0.0011
646.9471	-0.0066
647.1336	-0.0035
647.3201	-0.004
647.5066	-0
647.6931	-0.0013
647.8795	-0.0031
648.0659	-0.0011
648.2524	-0.0011
648.4388	-0.0039
648.6252	-0.0042
648.8115	-0.011
648.9979	-0.001
649.1842	-0.006
649.3705	-0.0041
649.5568	-0.0058
649.7431	-0.0044
649.9294	-0.0076
650.1156	-0.0036
650.3018	-0.0104
650.488	-0.0076
650.6742	-0.0032
650.8604	0.0017
651.0466	0.0006
651.2327	-0.0046
651.4188	0.0053
651.6049	0.0036
651.791	0.0021
651.9771	-0.0011
652.1632	-0.0014
652.3492	-0.0006
652.5352	0.0004
652.7212	-0.0001
652.9072	0.0042
653.0932	-0.0002
653.2791	0.0007
653.465	-0.0032
653.651	-0.0063
653.8369	-0.0031
654.0227	0.0016
654.2086	-0.0012
654.3944	-0.0088
654.5803	-0.0033
654.7661	-0.0041
654.9519	-0.0028
655.1377	-0.0031
655.3234	-0.0002
655.5092	-0.0002
655.6949	-0.0002
655.8806	-0.0002
656.0663	-0.0002
656.2519	-0.0002
656.4376	-0.0041
656.6232	-0.0016
656.8088	-0.0018
656.9945	-0.0047
657.18	-0.0002
657.3656	-0.0013
657.5511	-0.0055
657.7367	-0.0038
657.9222	0.002
658.1077	-0.0006
658.2932	-0.0012
658.4786	-0.0012
658.6641	-0.0052
658.8495	-0.0031
659.0349	-0.0029
659.2203	-0.0038
659.4057	-0.0006
659.591	-0.0058
659.7764	-0.0037
659.9617	-0.0028
660.147	-0.0008
660.3323	-0.0055
660.5176	-0.0088
660.7028	-0.0063
660.888	-0.0038
661.0733	-0.0017
661.2585	-0.0062
661.4436	-0.0033
661.6288	-0.0033
661.8139	0.0023
661.9991	-0.0006
662.1842	-0.0025
662.3693	0.003
662.5544	-0.002
662.7394	0.0001
662.9245	0.0032
663.1095	-0.0024
663.2945	0.0016
663.4795	-0.0056
663.6644	-0.0036
663.8494	-0.0021
664.0343	-0.0048
664.2193	-0.0046
664.4042	-0.0082
664.589	-0.0013
664.7739	-0.0012
664.9587	0.002
665.1436	-0.0013
665.3284	-0.0003
665.5132	-0.0035
665.698	0.003
665.8827	-0.0028
666.0675	-0.0071
666.2522	-0.007
666.4369	-0.0066
666.6216	-0.0054
666.8063	-0.0036
666.9909	-0.0069
667.1756	-0.0072
667.3602	-0.0087
667.5448	-0.0081
667.7294	-0.0037
667.9139	-0.0037
668.0985	-0.0091
668.283	-0.0055
668.4675	-0.0135
668.652	-0.0157
668.8365	-0.0081
669.0209	-0.0099
669.2054	-0.0047
669.3898	-0.0069
669.5742	-0.007
669.7586	0.0006
669.943	-0.0078
670.1273	-0.0089
670.3117	-0.0002
670.496	-0.0068
670.6803	-0.0074
670.8646	-0.0005
671.0488	-0.0045
671.2331	-0.0021
671.4173	0.0005
671.6015	-0.0051
671.7857	-0.0061
671.9699	-0.0052
672.1541	-0.0042
672.3382	-0.0062
672.5223	-0.0033
672.7064	-0.0041
672.8905	-0.0133
673.0746	-0.009
673.2587	-0.0152
673.4427	-0.012
673.6267	-0.0077
673.8107	-0.0125
673.9947	-0.0078
674.1787	-0.0092
674.3626	-0.0039
674.5465	-0.0036
674.7304	0.0001
674.9143	-0.0015
675.0982	-0.0047
675.2821	-0.0015
675.4659	-0.0074
675.6497	0.0008
675.8335	-0.003
676.0173	-0.0071
676.2011	-0.0081
676.3849	-0.0101
676.5686	-0.0006
676.7523	-0.008
676.936	0.0032
677.1197	-0.0061
677.3034	-0.0064
677.487	-0.0091
677.6706	-0.0098
677.8542	-0.0059
678.0378	-0.0075
678.2214	-0.0129
678.405	-0.0009
678.5885	-0.0098
678.772	-0.0057
678.9555	-0.0007
679.139	-0.0067
679.3225	-0.0067
679.5059	-0.0056
679.6894	-0.0021
679.8728	0.0013
680.0562	0.0016
680.2395	-0.0013
680.4229	-0.001
680.6062	0.0018
680.7896	0.0003
680.9729	0.0007
681.1562	-0.0006
681.3394	-0.0003
681.5227	-0.0038
681.7059	-0.0088
681.8891	-0.0062
682.0723	-0.0058
682.2555	0.0014
682.4387	0.0021
682.6218	-0.0056
682.805	-0.0028
682.9881	-0.0048
683.1712	0.0031
683.3542	-0.0038
683.5373	-0.0044
683.7203	-0.0018
683.9034	-0.0026
684.0864	-0.0073
684.2694	-0.0054
684.4523	-0.0033
684.6353	-0.004
684.8182	-0.0043
685.0011	-0.0014
685.184	-0.0059
685.3669	-0.0016
685.5498	0.0038
685.7326	0.001
685.9154	-0.0112
686.0982	-0.0051
686.281	-0.0075
686.4638	-0.0091
686.6465	-0.0072
686.8293	-0.0011
687.012	-0.005
687.1947	-0.0089
687.3774	-0.0019
687.56	-0.0042
687.7427	0.002
687.9253	-0.0017
688.1079	-0.0003
688.2905	0.0015
688.4731	0.0011
688.6556	-0.0021
688.8382	-0.0035
689.0207	0.0019
689.2032	0.0017
689.3857	-0.0031
689.5681	-0.0013
689.7506	-0.002
689.933	-0.0021
690.1154	-0.001
690.2978	-0.0045
690.4802	-0.0023
690.6626	0.0052
690.8449	-0.0002
691.0272	0.0027
691.2095	0.0007
691.3918	-0.0052
691.5741	-0.0051
691.7563	-0.0005
691.9386	-0.0035
692.1208	-0.0046
692.303	-0.0054
692.4852	-0.002
692.6673	-0.0032
692.8495	-0.0055
693.0316	-0.0044
693.2137	-0.0085
693.3958	-0.0031
693.5778	0.0012
693.7599	-0.0057
693.9419	-0.0092
694.1239	-0.0027
694.3059	-0.0095
694.4879	-0.0088
694.6699	-0.0106
694.8518	-0.007
695.0337	-0.0049
695.2157	-0.0033
695.3975	-0.0079
695.5794	-0.0043
695.7613	-0.0032
695.9431	-0.0048
696.1249	-0.007
696.3067	-0.0087
696.4885	-0.0013
696.6703	-0.0023
696.852	-0.0012
697.0337	0.0025
697.2154	-0.0009
697.3971	-0.0065
697.5788	-0.0024
697.7605	-0.0048
697.9421	-0.0039
698.1237	-0.0067
698.3053	-0.0061
698.4869	-0.0028
698.6685	-0.0063
698.85	-0.0076
699.0315	-0.0051
699.213	-0.0003
699.3945	0.0022
699.576	0.0076
699.7575	-0.0045
699.9389	0.0015
700.1203	-0.0051
700.3017	-0.0047
700.4831	-0.0019
700.6645	-0.006
700.8458	-0.0021
701.0271	-0.0026
701.2084	-0.0083
701.3897	-0.0071
701.571	0.0023
701.7523	-0.0013
701.9335	0.0049
702.1147	0.0068
702.2959	-0.006
702.4771	-0.0012
702.6583	-0.0017
702.8394	-0.0032
703.0205	-0.0018
703.2016	0.0028
703.3827	0.0063
703.5638	-0.0075
703.7449	-0.0045
703.9259	-0.0006
704.1069	-0.0036
704.2879	-0.0011
704.4689	-0.0051
704.6499	-0.0055
704.8308	-0.0039
705.0117	-0.0014
705.1927	-0.0046
705.3735	0.0022
705.5544	0.0021
705.7353	-0.0035
705.9161	0.0008
706.0969	0.0018
706.2777	-0.0032
706.4585	-0.0018
706.6393	-0.0048
706.82	-0.0059
707.0007	-0.0071
707.1815	0.0013
707.3621	-0.0024
707.5428	-0.0017
707.7235	0.0015
707.9041	0.0016
708.0847	-0.0023
708.2653	-0.0024
708.4459	-0.0017
708.6265	-0.0059
708.807	-0.0017
708.9875	0.0005
709.168	-0.005
709.3485	-0.0008
709.529	-0.0026
709.7095	-0.0036
709.8899	-0.0114
710.0703	0.0037
710.2507	-0.0006
710.4311	-0.0059
710.6115	0.0028
710.7918	-0.0019
710.9721	0
711.1524	0.0008
711.3327	0.0025
711.513	-0.0036
711.6932	-0.0062
711.8735	0.0022
712.0537	-0.0012
712.2339	-0.0038
712.4141	-0.0023
712.5942	0.0001
712.7744	0.0002
712.9545	0.0025
713.1346	-0.0001
713.3147	0.0019
713.4947	0.0049
713.6748	0.0022
713.8548	-0.0051
714.0348	-0.0033
714.2148	-0.0032
714.3948	-0.0041
714.5748	-0.0073
714.7547	-0.0051
714.9346	-0.0015
715.1145	-0.0026
715.2944	-0.0016
715.4743	-0.0027
715.6541	0.002
715.834	-0.0075
716.0138	-0
716.1936	0.0043
716.3733	-0.0115
716.5531	-0.0048
716.7328	-0.0006
716.9126	-0.0037
717.0923	-0.0023
717.2719	-0.0102
717.4516	-0.0063
717.6312	0.0017
717.8109	-0.0044
717.9905	-0.0055
718.1701	-0.0025
718.3496	-0.0039
718.5292	-0.0052
718.7087	-0.0046
718.8882	-0.0031
719.0677	-0.0061
719.2472	-0.0036
719.4267	-0.0148
719.6061	-0.0075
719.7856	-0.0027
719.965	-0.0085
720.1443	-0.0043
720.3237	-0.0035
720.5031	-0.0096
720.6824	-0.005
720.8617	-0.0116
721.041	0.0029
721.2203	-0.0105
721.3995	-0.002
721.5788	-0.0085
721.758	-0.0014
721.9372	-0.0034
722.1164	-0.0071
722.2956	-0.007
722.4747	-0.0069
722.6538	-0.0056
722.8329	-0.0029
723.012	-0.0024
723.1911	-0.0037
723.3702	-0.0029
723.5492	-0.0056
723.7282	0.001
723.9072	-0.0043
724.0862	-0.0029
724.2652	-0.0004
724.4441	-0.0062
724.623	-0.0021
724.8019	-0.0026
724.9808	0.0006
725.1597	0.0027
725.3385	0.0009
725.5174	-0.0011
725.6962	-0.0153
725.875	0.0004
726.0538	0.0019
726.2325	0.0041
726.4112	0.0022
726.59	-0.0009
726.7687	0.0015
726.9474	-0.0056
727.126	-0.0047
727.3047	-0.0042
727.4833	-0.0014
727.6619	-0.0085
727.8405	-0.0017
728.0191	0.0004
728.1976	-0.0044
728.3762	-0.0072
728.5547	-0.0068
728.7332	-0.007
728.9116	-0.0102
729.0901	-0.01
729.2686	-0.0108
729.447	-0.0078
729.6254	-0.0044
729.8038	-0.0057
729.9821	0.0059
730.1605	-0.0086
730.3388	0.0012
730.5171	-0.006
730.6954	-0.0019
730.8737	-0.0036
731.0519	-0.0006
731.2302	-0.0003
731.4084	0.0035
731.5866	0.0017
731.7648	0.0035
731.9429	0.0004
732.1211	-0
732.2992	-0.0005
732.4773	-0.0002
732.6554	-0.0059
732.8335	-0.0059
733.0115	-0.0067
733.1896	-0.0133
733.3676	-0.0019
733.5456	-0.0035
733.7235	0
733.9015	0.0006
734.0794	-0.0038
734.2574	0.0008
734.4353	-0.0016
734.6131	0.0019
734.791	-0.0056
734.9689	-0.0062
735.1467	-0.0025
735.3245	0.0008
735.5023	-0.004
735.68	-0.0038
735.8578	0
736.0355	0.0087
736.2132	0.0048
736.3909	-0.0083
736.5686	-0.0003
736.7463	-0.0026
736.9239	-0.0088
737.1015	-0.0007
737.2791	-0.0073
737.4567	-0.0108
737.6343	-0.0042
737.8118	-0.0043
737.9894	0.0041
738.1669	-0.0057
738.3444	-0.0058
738.5218	0.0055
738.6993	0.005
738.8767	0.0052
739.0541	-0.0036
739.2315	-0.0061
739.4089	-0.0017
739.5863	-0.0043
739.7636	-0.0039
739.9409	-0.0038
740.1182	-0.0001
740.2955	0.0026
740.4728	-0.0032
740.65	-0.001
740.8272	0.0013
741.0044	0.0015
741.1816	0.0022
741.3588	0.0046
741.5359	0.0037
741.7131	0.0027
741.8902	0.0002
742.0673	-0.003
742.2444	-0.0109
742.4214	-0.0031
742.5985	-0.0117
742.7755	-0.0049
742.9525	-0.0001
743.1295	0
743.3064	-0.005
743.4834	0.0017
743.6603	-0.0047
743.8372	0.0038
744.0141	-0.0043
744.191	-0.0053
744.3678	-0.0012
744.5446	-0.0014
744.7215	-0.0063
744.8982	-0.0009
745.075	-0.0029
745.2518	0.001
745.4285	-0.0031
745.6052	0.0007
745.7819	0.0045
745.9586	0.0012
746.1353	0.0036
746.3119	0.0014
746.4885	-0.0018
746.6651	0.0002
746.8417	-0.0062
747.0183	-0.0049
747.1948	-0.0042
747.3714	-0.0059
747.5479	-0.0017
747.7244	-0.0073
747.9008	0.0006
748.0773	0.0054
748.2537	-0.0012
748.4301	-0.0012
748.6065	0.0012
748.7829	0.0025
748.9593	-0.0003
749.1356	-0.0084
749.3119	0.0016
749.4882	0.0031
749.6645	-0.0016
749.8408	-0.0009
750.017	-0.0018
750.1933	-0.0045
750.3695	-0.0053
750.5457	-0.0084
750.7218	-0.0048
750.898	-0.0011
751.0741	-0.0086
751.2502	-0.0048
751.4263	-0.0071
751.6024	0.0008
751.7784	-0.0017
751.9545	0.0016
752.1305	0.0038
752.3065	-0.007
752.4825	-0.0024
752.6584	0.0018
752.8344	-0.0016
753.0103	-0.0047
753.1862	-0.0001
753.3621	-0.0051
753.5379	-0.0113
753.7138	-0.0034
753.8896	-0.0088
754.0654	-0.0111
754.2412	-0.018
754.417	-0.0013
754.5927	0.0007
754.7685	-0.0122
754.9442	-0.0129
755.1199	-0.0119
755.2956	-0.0062
755.4712	-0.0065
755.6469	-0.0109
755.8225	-0.0052
755.9981	-0.0061
756.1736	-0.0063
756.3492	-0.0069
756.5248	-0.0034
756.7003	-0.0041
756.8758	-0.0066
757.0513	-0.0058
757.2267	-0.0079
757.4022	-0.0075
757.5776	-0.0114
757.753	-0.0108
757.9284	-0.004
758.1038	-0.0087
758.2791	-0.0115
758.4545	-0.0115
758.6298	-0.0093
758.8051	-0.005
758.9803	-0.0101
759.1556	-0.011
759.3308	-0.0069
759.506	-0.0084
759.6812	-0.0096
759.8564	-0.005
760.0316	-0.0035
760.2067	-0.0068
760.3819	-0.0088
760.557	-0.0089
760.732	-0.0146
760.9071	-0.0143
761.0821	-0.0096
761.2572	-0.0053
761.4322	-0.0115
761.6072	-0.008
761.7821	-0.009
761.9571	-0.011
762.132	-0.0079
762.3069	-0.005
762.4818	-0.0033
762.6567	-0.0092
762.8316	0.0004
763.0064	-0.002
763.1812	0.0018
763.356	-0.0013
763.5308	-0.0005
763.7055	0.0054
763.8803	-0.0063
764.055	-0.0065
764.2297	0.005
764.4044	-0.0018
764.579	-0.001
764.7537	0.0018
764.9283	-0.0022
765.1029	0.0049
765.2775	-0.0027
765.4521	0.0043
765.6266	0.006
765.8011	0.0082
765.9756	-0.001
766.1501	0.0029
766.3246	-0.0011
766.4991	-0.0048
766.6735	-0.0027
766.8479	-0.0053
767.0223	0.0008
767.1967	-0.0015
767.371	-0.0028
767.5454	0.0019
767.7197	-0.0024
767.894	0.0031
768.0683	-0.0036
768.2425	-0.0064
768.4168	-0.0076
768.591	0.0063
768.7652	0
768.9394	-0.0022
769.1135	0.0007
769.2877	-0.0017
769.4618	0.0111
769.6359	0.005
769.81	0.0003
769.984	-0.0075
770.1581	0.0058
770.3321	0.0033
770.5061	0.0015
770.6801	0.0014
770.8541	-0.0032
771.028	-0
771.202	0.005
771.3759	-0.0038
771.5498	0.0034
771.7236	0.0001
771.8975	-0.0057
772.0713	0.0074
772.2451	0.0055
772.4189	0.0058
772.5927	-0.0077
772.7665	-0.0026
772.9402	-0.0023
773.1139	0.0005
773.2876	-0.0005
773.4613	-0.0001
773.635	-0.0015
773.8086	0.001
773.9822	-0.0007
774.1558	0.0018
774.3294	0.0022
774.503	-0.0002
774.6765	-0.0107
774.8501	0.0027
775.0236	-0.0105
775.1971	-0.0064
775.3705	0.0055
775.544	0.006
775.7174	0.0012
775.8908	-0.0068
776.0642	0.0003
776.2376	-0.004
776.4109	-0.0053
776.5843	0.005
776.7576	-0.0009
776.9309	-0.0049
777.1041	-0.0004
777.2774	-0.004
777.4506	0.0007
777.6238	0.0006
777.797	0.0081
777.9702	-0.0069
778.1434	-0.0037
778.3165	0.0017
778.4896	-0.0188
778.6627	0.0001
778.8358	-0.0094
779.0089	-0.0016
779.1819	-0.0012
779.3549	-0.0053
779.5279	-0.0029
779.7009	-0.0092
779.8739	-0.0044
780.0468	-0.0144
780.2197	-0.0076
780.3926	-0.0052
780.5655	-0.0099
780.7384	-0.0035
780.9112	-0.0099
781.0841	-0.0016
781.2569	-0.0037
781.4297	-0.006
781.6024	0.0031
781.7752	-0.0021
781.9479	0.0019
782.1206	-0.0028
782.2933	-0.0044
782.466	-0.0005
782.6386	-0.0035
782.8113	-0.0121
782.9839	-0.0107
783.1565	-0.012
783.329	-0.0104
783.5016	-0.0041
783.6741	-0.0073
783.8466	-0.0142
784.0191	-0.0134
784.1916	-0.001
784.3641	0.0054
784.5365	0.0038
784.7089	0.0061
784.8813	0.0147
785.0537	0.0057
785.2261	0.0013
785.3984	-0.0033
785.5707	0.0033
785.743	0.0065
785.9153	-0.0003
786.0876	-0.0017
786.2598	0.0048
786.432	0.0093
786.6042	0
786.7764	0.0042
786.9486	-0.0009
787.1207	-0.0074
787.2928	0.0012
787.4649	-0.0022
787.637	-0.0047
787.8091	-0.002
787.9811	0.008
788.1532	-0.0079
788.3252	-0.0071
788.4972	0.0005
788.6691	-0.0051
788.8411	-0.0041
789.013	-0.006
789.1849	-0.0046
789.3568	-0.0108
789.5287	-0.0003
789.7005	0.0073
789.8723	-0.005
790.0442	-0.0086
790.2159	-0.0015
790.3877	-0.0087
790.5595	-0.0028
790.7312	0.0013
790.9029	-0.0093
791.0746	-0.0089
791.2463	-0.0051
791.4179	-0.0029
791.5896	0.0019
791.7612	-0.0104
791.9328	0.0037
792.1044	-0.0091
792.2759	0.0099
792.4474	0.0018
792.619	-0.0079
792.7905	-0.0061
792.9619	0.0021
793.1334	-0.002
793.3048	-0.0039
793.4762	-0.0073
793.6476	-0.0233
793.819	-0.0046
793.9904	-0.0219
794.1617	-0.0194
794.333	-0.0157
794.5043	-0.007
794.6756	0.0129
794.8469	0.0027
795.0181	-0.0032
795.1893	-0.0051
795.3605	-0.0058
795.5317	-0.0105
795.7029	-0.0027
795.874	-0.0056
796.0452	-0.0095
796.2163	-0.0092
796.3873	-0.0088
796.5584	-0.008
796.7294	-0.0034
796.9005	-0.0087
797.0715	-0.0132
797.2425	-0.0108
797.4134	-0.0091
797.5844	-0.0176
797.7553	-0.0109
797.9262	-0.0113
798.0971	-0.0108
798.2679	-0.009
798.4388	-0.0169
798.6096	-0.0092
798.7804	-0.0161
798.9512	-0.0073
799.122	-0.0025
799.2927	-0.0089
799.4635	-0.0024
799.6342	-0.0145
799.8049	-0.0103
799.9755	-0.015
800.1462	-0.0233
800.3168	-0.0102
800.4874	-0.0123
800.658	-0.0117
800.8286	-0.0081
800.9991	-0.0178
801.1696	-0.0096
801.3402	-0.0208
801.5106	-0.0165
801.6811	-0.0206
801.8516	-0.0033
802.022	-0.0266
802.1924	-0.03
802.3628	-0.0151
802.5332	-0.0166
802.7035	-0.0155
802.8739	-0.011
803.0442	-0.0202
803.2145	-0.0123
803.3847	-0.0219
803.555	-0.014
803.7252	-0.0181
803.8954	-0.0084
804.0656	-0.0104
804.2358	-0.0158
804.4059	-0.0087
804.5761	-0.0112
804.7462	-0.008
804.9163	-0.0177
805.0864	-0.0088
805.2564	-0.0108
805.4264	-0.0124
805.5965	-0.0067
805.7665	-0.0161
805.9364	-0.0016
806.1064	-0.0149
806.2763	-0.0159
806.4462	-0.0136
806.6161	-0.0022
806.786	-0.0071
806.9559	-0.0018
807.1257	-0.016
807.2955	-0.0073
807.4653	-0.0138
807.6351	-0.0064
807.8048	-0.009
807.9746	-0.0073
808.1443	-0.0056
808.314	-0.0035
808.4837	-0.0079
808.6533	0.0079
808.8229	-0.004
808.9926	0.0032
809.1622	-0.0141
809.3317	0.0086
809.5013	0.0075
809.6708	0.0049
809.8403	0.0013
810.0098	0.0082
810.1793	-0.0185
810.3488	0.009
810.5182	-0.0037
810.6876	-0.0005
810.857	-0.0043
811.0264	-0.0129
811.1958	0.0008
811.3651	-0.0109
811.5344	0.0009
811.7037	-0.0188
811.873	-0.0044
812.0422	-0.0215
812.2115	-0.0081
812.3807	-0.001
812.5499	-0.0072
812.7191	-0.0139
812.8882	-0.0009
813.0574	0.0003
813.2265	-0.0061
813.3956	-0.0031
813.5646	-0.0127
813.7337	0.0094
813.9027	-0.0006
814.0718	-0.0094
814.2407	0.0054
814.4097	-0.0109
814.5787	0.0041
814.7476	-0.0103
814.9165	0.0073
815.0854	-0.0128
815.2543	0.0051
815.4232	-0.0077
815.592	0.0041
815.7608	0.0029
815.9296	-0.005
816.0984	0.0049
816.2671	-0.0025
816.4359	-0.0089
816.6046	0.0073
816.7733	0.0017
816.942	0.0006
817.1106	0.0025
817.2793	-0.005
817.4479	-0.0025
817.6165	-0.017
817.785	0.0015
817.9536	0.0074
818.1221	-0.0117
818.2906	0
818.4591	-0.0126
818.6276	0.0156
818.7961	-0.0134
818.9645	-0.0086
819.1329	-0.0126
819.3013	-0.0054
819.4697	-0.0146
819.638	-0.0071
819.8064	0.0029
819.9747	0.0018
820.143	-0.0051
820.3113	-0.0201
820.4795	0.0052
820.6477	0.005
820.816	-0.0142
820.9842	-0.0059
821.1523	-0.029
821.3205	0.0008
821.4886	-0.0013
821.6567	-0.0088
821.8248	-0.0048
821.9929	-0.0066
822.1609	-0.0029
822.329	-0.0113
822.497	-0.0028
822.665	-0.0189
822.833	-0.0268
823.0009	-0.0159
823.1688	-0.011
823.3367	-0.0102
823.5046	0.0006
823.6725	-0.0193
823.8404	-0.0204
824.0082	-0.0072
824.176	-0.0046
824.3438	-0.0114
824.5116	0.0058
824.6793	-0.0087
824.847	-0.0134
825.0147	-0.0222
825.1824	-0.0181
825.3501	0.0176
825.5177	-0.0114
825.6854	0.0003
825.853	-0.0044
826.0206	0.0078
826.1881	-0.0038
826.3557	-0.0138
826.5232	-0.0059
826.6907	-0.0022
826.8582	0.0047
827.0257	-0.0044
827.1931	0.0055
827.3605	0.0181
827.528	-0.0075
827.6953	-0.0103
827.8627	-0.008
828.03	-0.0057
828.1974	-0.0142
828.3647	0.0003
828.532	0.0052
828.6992	-0.0015
828.8665	-0.0221
829.0337	-0.0222
829.2009	-0.0168
829.3681	-0.0214
829.5352	-0.0139
829.7024	-0.0037
829.8695	-0.0307
830.0366	-0.0421
830.2037	-0.0026
830.3707	-0.013
830.5378	0.0048
830.7048	-0.0128
830.8718	-0.0107
831.0388	-0.0091
831.2057	-0.0242
831.3727	-0.024
831.5396	-0.0049
831.7065	0.018
831.8734	0.0004
832.0402	-0.0226
832.2071	0.0053
832.3739	-0.0134
832.5407	-0.0217
832.7075	-0.0086
832.8742	-0.0004
833.041	0.0169
833.2077	-0.0318
833.3744	-0.0021
833.541	0.0021
833.7077	0.0051
833.8743	0.0037
834.0409	0.0171
834.2075	0.0015
834.3741	-0.0067
834.5407	0.0118
834.7072	-0.0099
834.8737	-0.0269
835.0402	-0.0371
835.2067	-0.0118
835.3731	-0.0052
835.5395	-0.0125
835.706	-0.027
835.8723	0.001
836.0387	-0.0144
836.2051	0.001
836.3714	0.005
836.5377	0.001
836.704	0.0005
836.8703	-0.0281
837.0365	-0.0019
837.2027	-0.0176
837.3689	-0.0051
837.5351	0.0028
837.7013	-0.0139
837.8674	-0.0104
838.0335	-0.0113
838.1997	-0.0149
838.3657	0.006
838.5318	-0.0003
838.6978	-0.0311
838.8639	0.0167
839.0299	-0.0379
839.1958	0.0037
839.3618	0.0095
839.5277	-0.0048
839.6937	-0.014
839.8596	0.0069
840.0254	-0.0138
840.1913	0.0034
840.3571	-0.0106
840.523	0.002
840.6888	-0.0207
840.8545	0.0041
841.0203	-0.0231
841.186	-0.0003
841.3517	-0.0148
841.5174	-0.0161
841.6831	0.0122
841.8488	0.0126
842.0144	0.0172
842.18	0.0034
842.3456	0.0076
842.5112	-0.0034
842.6767	-0.0038
842.8422	0.0068
843.0077	0.0129
843.1732	-0.004
843.3387	-0.0044
843.5042	0.0068
843.6696	-0.0141
843.835	-0.0024
844.0004	0.002
844.1657	-0.028
844.3311	0.0085
844.4964	-0.0063
844.6617	-0.0061
844.827	-0.0078
844.9923	0.0256
845.1575	0.0279
845.3227	-0.0351
845.4879	-0.0042
845.6531	-0.0327
845.8183	-0.0268
845.9834	-0.027
846.1485	0.0047
846.3136	-0.033
846.4787	-0.0289
846.6438	-0.015
846.8088	0.0266
846.9738	-0.0243
847.1388	-0.0177
847.3038	0.0218
847.4687	0.0311
847.6337	-0.0008
847.7986	0.0506
847.9635	0.0142
848.1284	0.0024
848.2932	0.0034
848.458	0.0015
848.6228	0.0025
848.7876	-0.0384
848.9524	0.0506
849.1172	-0.038
849.2819	0.0154
849.4466	-0.013
849.6113	-0.0088
849.7759	-0.0255
849.9406	-0.0215
850.1052	0.0246
850.2698	-0.0015
850.4344	0.0103
850.599	-0.0535
850.7635	-0.0266
850.928	-0.0173
851.0925	0.0011
851.257	-0.0242
851.4215	-0.0412
851.5859	0.0419
851.7503	0.0045
851.9147	0.0212
852.0791	-0.0103
852.2434	-0.0296
852.4078	0.0258
852.5721	-0.0249
852.7364	-0.0818
852.9007	0.0495
853.0649	-0.0006
853.2291	0.0023
853.3934	-0.0013
853.5575	0.0111
853.7217	-0.0347
853.8859	-0.0198
854.05	-0.0076
854.2141	-0.0443
854.3782	0.0131
854.5423	-0.0008
854.7063	0.0215
854.8703	0.0042
855.0343	0.0182
855.1983	-0.0037
855.3623	-0.0355
855.5262	0.0834
855.6901	0.0356
855.854	-0.0318
856.0179	0.0448
856.1818	0.0075
856.3456	-0.0719
856.5094	-0.0434
856.6732	-0.0876
856.837	-0.0443
857.0008	0.0163
857.1645	-0.0631
857.3282	-0.0579
857.4919	-0.0733
857.6556	0.0358
857.8192	-0.0021
857.9828	0.0126
858.1465	-0.0011
858.31	-0.0467
858.4736	-0.032
858.6372	0.0035
858.8007	0.0039
858.9642	-0.06
859.1277	0.0264
859.2911	-0.0225
859.4546	0.0157
859.618	-0.0253
859.7814	0.009
859.9448	-0.0434
860.1081	-0.0467
860.2715	0.0533
860.4348	0.0459
860.5981	0.042
860.7614	-0.1338
860.9246	-0.0119
861.0879	-0.0771
861.2511	0.0705
861.4143	-0.1248
861.5774	-0.0072
861.7406	-0.0585
861.9037	-0.0234
862.0668	-0.0018
862.2299	-0.0825
862.393	-0.0359
862.556	0.0891
862.7191	-0.0484
862.8821	-0.0686
863.0451	0.0533
863.208	-0.0608
863.371	0.1162
863.5339	-0.027
863.6968	-0.0888
863.8597	-0.0351
864.0225	-0.186
864.1854	0.047
864.3482	-0.0167
864.511	-0.1526
864.6737	-0.0668
864.8365	-0.0378
864.9992	-0.1435
865.1619	-0.0688
865.3246	-0.1453
865.4873	-0.0473
865.65	-0.0621
865.8126	0.0453
865.9752	-0.2572
866.1378	-0.0661
866.3004	-0.0056
866.4629	-0.1757
866.6254	0.0366
866.7879	0.0516
866.9504	-0.0425
867.1129	-0.0034
867.2753	-0.0229
867.4377	-0.1637
867.6001	-0.0962
867.7625	-0.0681
867.9249	-0.099
868.0872	-0.1613
868.2495	-0.1676
868.4118	-0.1645
868.5741	-0.1489
868.7363	0.1065
868.8986	-0.0844
869.0608	-0.0321
869.223	-0.1139
869.3851	-0.2146
869.5473	-0.2404
869.7094	-0.2229
869.8715	0.1055
870.0336	-0.154
870.1957	-0.1025
870.3577	-0.0679
870.5197	-0.5334
870.6817	-0.1001
870.8437	-0.2285
871.0057	-0.1384
871.1676	-0.1313
871.3295	-0.2945
871.4914	-0.0454
871.6533	-0.0392
871.8151	-0.1433
871.977	0.0083
872.1388	0.0886
872.3006	-0.1093
872.4623	-0.1272
872.6241	-0.0605
872.7858	-0.0921
872.9475	-0.1262
873.1092	-0.1815
873.2709	-0.0785
873.4325	-0.3383
873.5941	-0.2312
873.7557	-0.0465
873.9173	-0.0426
874.0789	-0.3715
874.2404	-0.1755
874.4019	-0.1267
874.5634	-0.1042
874.7249	-0.2466
874.8863	-0.2088
875.0478	0.1979
875.2092	-0.3776
875.3706	-0.3207
875.5319	-0.3685
875.6933	-0.2649
875.8546	-0.2254
876.0159	-0.0689
876.1772	-0.2821
876.3385	-0.2722
876.4997	-0.3346
876.6609	-0.1065
876.8221	0.4701
876.9833	-0.7023
877.1445	-0.1651
877.3056	-0.1313
877.4667	-0.803
877.6278	0.4041
877.7889	-0.1093
877.9499	-0.486
878.111	-0.0562
878.272	-0.2169
878.433	-0.1164
878.5939	0.029
878.7549	-0.3241
878.9158	0.0005
879.0767	0.0725
879.2376	0.2516
879.3984	-0.2483
879.5593	0.3028
879.7201	0.4533
879.8809	-0.149
880.0417	-0.1495
880.2024	0.0377
880.3632	-0.2999
880.5239	-0
880.6846	-0.3426
880.8452	0.5108
881.0059	-0.4118
881.1665	-0
881.3271	-0.4452
881.4877	-0.2073
881.6483	-0
881.8088	-0.2061
881.9693	0.0423
882.1298	0.0423
882.2903	0.0423
