Data from MonoPyChalIsomerACN10uM450nmA_Absorbance_13-11-21-491.txt Node
Date: Tue Jul 09 13:11:21 BST 2024
User: LASERRRRR
Spectrometer: FLMT03099
Trigger mode: 0
Integration Time (sec): 2.000000E-1
Scans to average: 1
Electric dark correction enabled: true
Nonlinearity correction enabled: false
Boxcar width: 0
XAxis mode: Wavelengths
Number of Pixels in Spectrum: 3648
>>>>>Begin Spectral Data<<<<<
179.3399	-0.1274
179.5586	-0.1274
179.7771	-0.1274
179.9957	-0.2589
180.2143	-0
180.4329	-0.2461
180.6514	-0
180.8699	-0
181.0885	-0.3605
181.307	-0.0248
181.5255	-0
181.744	-0.0462
181.9625	0.3127
182.181	-0
182.3994	-0.2384
182.6179	-0.4568
182.8363	-0
183.0547	0.249
183.2732	0.1244
183.4916	0.0172
183.71	0.0419
183.9284	-0.006
184.1467	0.1176
184.3651	0.0509
184.5835	0.1009
184.8018	0.0176
185.0201	0.0611
185.2385	0.0769
185.4568	0.0853
185.6751	0.2388
185.8934	0.088
186.1117	-0
186.3299	-0.1465
186.5482	0.0179
186.7664	0.1193
186.9847	0.0865
187.2029	0.132
187.4211	0.0912
187.6393	0.0161
187.8575	0.209
188.0757	-0.0566
188.2939	-0.0414
188.512	0.1024
188.7302	0.0132
188.9483	0.0106
189.1665	0.1512
189.3846	0.1324
189.6027	0.0215
189.8208	0.1024
190.0389	0.2761
190.257	0.2388
190.475	0.2943
190.6931	0.1618
190.9111	0.2769
191.1292	0.2021
191.3472	0.3234
191.5652	0.3948
191.7832	0.313
192.0012	0.3533
192.2192	0.387
192.4371	0.4434
192.6551	0.4137
192.873	0.4432
193.091	0.397
193.3089	0.5602
193.5268	0.4478
193.7447	0.3923
193.9626	0.5601
194.1805	0.5691
194.3984	0.6064
194.6162	0.6166
194.8341	0.611
195.0519	0.6337
195.2697	0.568
195.4875	0.6008
195.7054	0.6167
195.9231	0.6327
196.1409	0.6412
196.3587	0.6515
196.5765	0.6851
196.7942	0.7699
197.012	0.6499
197.2297	0.7579
197.4474	0.7708
197.6651	0.7043
197.8828	0.841
198.1005	0.7451
198.3182	0.7125
198.5358	0.7152
198.7535	0.7935
198.9711	0.9065
199.1888	0.7888
199.4064	0.8418
199.624	0.825
199.8416	0.8714
200.0592	0.7883
200.2767	0.8218
200.4943	0.7398
200.7119	1.0085
200.9294	0.8304
201.1469	0.8435
201.3645	0.7905
201.582	0.8878
201.7995	0.766
202.017	0.9398
202.2344	0.7814
202.4519	0.9688
202.6694	0.7837
202.8868	0.9813
203.1042	1.0038
203.3217	0.9667
203.5391	0.8584
203.7565	0.927
203.9739	0.9022
204.1913	0.8298
204.4086	1.0093
204.626	1.0343
204.8433	0.8587
205.0607	0.9772
205.278	0.9614
205.4953	1.0145
205.7126	0.9809
205.9299	1.0431
206.1472	1.1078
206.3644	0.9564
206.5817	0.9988
206.7989	1.0165
207.0162	1.1255
207.2334	0.989
207.4506	0.9491
207.6678	1.0218
207.885	1.0577
208.1022	1.0525
208.3194	1.0648
208.5365	0.9872
208.7537	1.0493
208.9708	1.0718
209.1879	1.0965
209.405	0.9872
209.6222	1.0371
209.8392	1.1353
210.0563	0.9808
210.2734	1.0678
210.4905	1.1237
210.7075	1.0487
210.9245	1.0088
211.1416	1.0344
211.3586	1.0587
211.5756	1.0729
211.7926	0.9947
212.0096	1.0424
212.2265	1.127
212.4435	1.1139
212.6604	1.0623
212.8774	0.999
213.0943	1.0097
213.3112	0.9925
213.5281	1.0778
213.745	0.9731
213.9619	0.9605
214.1788	0.9195
214.3956	0.9863
214.6125	0.9129
214.8293	0.8567
215.0461	0.909
215.2629	0.915
215.4798	0.8546
215.6965	0.8505
215.9133	0.8822
216.1301	0.8244
216.3469	0.8046
216.5636	0.8042
216.7803	0.7681
216.9971	0.762
217.2138	0.7327
217.4305	0.7102
217.6472	0.6612
217.8639	0.639
218.0805	0.5977
218.2972	0.56
218.5138	0.5363
218.7305	0.5235
218.9471	0.4942
219.1637	0.4514
219.3803	0.4385
219.5969	0.4004
219.8135	0.3562
220.0301	0.3343
220.2466	0.3778
220.4632	0.3463
220.6797	0.3319
220.8962	0.3135
221.1127	0.287
221.3292	0.3053
221.5457	0.2712
221.7622	0.3011
221.9787	0.2905
222.1951	0.2898
222.4116	0.2771
222.628	0.2696
222.8444	0.2676
223.0608	0.2719
223.2772	0.2661
223.4936	0.2713
223.71	0.2712
223.9264	0.2812
224.1427	0.2641
224.3591	0.2825
224.5754	0.2718
224.7917	0.2734
225.008	0.2778
225.2243	0.2852
225.4406	0.2868
225.6569	0.2795
225.8732	0.292
226.0894	0.2728
226.3057	0.294
226.5219	0.2851
226.7381	0.2855
226.9543	0.2842
227.1705	0.2942
227.3867	0.302
227.6029	0.2964
227.8191	0.3006
228.0352	0.3047
228.2513	0.3015
228.4675	0.3074
228.6836	0.3196
228.8997	0.2994
229.1158	0.322
229.3319	0.3247
229.548	0.3181
229.764	0.3149
229.9801	0.3298
230.1961	0.3426
230.4121	0.3365
230.6282	0.3365
230.8442	0.3305
231.0602	0.3467
231.2761	0.3413
231.4921	0.3564
231.7081	0.348
231.924	0.3576
232.14	0.3605
232.3559	0.3661
232.5718	0.3628
232.7877	0.3595
233.0036	0.3669
233.2195	0.3609
233.4353	0.3618
233.6512	0.3723
233.867	0.3762
234.0829	0.3853
234.2987	0.3852
234.5145	0.3704
234.7303	0.3963
234.9461	0.3911
235.1619	0.3961
235.3776	0.3857
235.5934	0.4078
235.8091	0.3877
236.0249	0.3786
236.2406	0.39
236.4563	0.3867
236.672	0.3929
236.8877	0.4064
237.1034	0.4016
237.319	0.406
237.5347	0.3975
237.7503	0.4057
237.966	0.4117
238.1816	0.4151
238.3972	0.416
238.6128	0.42
238.8284	0.4207
239.0439	0.4083
239.2595	0.4343
239.475	0.4198
239.6906	0.4193
239.9061	0.4215
240.1216	0.4125
240.3371	0.4197
240.5526	0.4259
240.7681	0.4145
240.9836	0.4113
241.199	0.4188
241.4145	0.4002
241.6299	0.3946
241.8453	0.3943
242.0607	0.3863
242.2761	0.4003
242.4915	0.3882
242.7069	0.3823
242.9223	0.3881
243.1376	0.3756
243.353	0.3466
243.5683	0.3598
243.7836	0.3492
243.9989	0.3345
244.2142	0.3336
244.4295	0.3356
244.6448	0.3315
244.86	0.3235
245.0753	0.3087
245.2905	0.2983
245.5057	0.2956
245.721	0.2971
245.9362	0.2882
246.1514	0.2852
246.3665	0.2873
246.5817	0.2686
246.7969	0.271
247.012	0.2709
247.2271	0.2598
247.4423	0.2677
247.6574	0.2533
247.8725	0.2586
248.0876	0.249
248.3026	0.2417
248.5177	0.2396
248.7328	0.2349
248.9478	0.235
249.1628	0.2425
249.3779	0.2345
249.5929	0.2278
249.8079	0.2284
250.0228	0.2235
250.2378	0.2213
250.4528	0.2247
250.6677	0.2183
250.8827	0.2117
251.0976	0.2165
251.3125	0.2231
251.5274	0.2079
251.7423	0.2107
251.9572	0.2106
252.172	0.2178
252.3869	0.2125
252.6017	0.2047
252.8166	0.2042
253.0314	0.1974
253.2462	0.2064
253.461	0.2065
253.6758	0.2002
253.8906	0.208
254.1053	0.2026
254.3201	0.2017
254.5348	0.2065
254.7496	0.2067
254.9643	0.1956
255.179	0.1929
255.3937	0.2108
255.6083	0.2
255.823	0.1904
256.0377	0.1881
256.2523	0.1953
256.467	0.1983
256.6816	0.1919
256.8962	0.1972
257.1108	0.1991
257.3254	0.1941
257.54	0.1858
257.7545	0.1952
257.9691	0.191
258.1836	0.1954
258.3981	0.1934
258.6127	0.2016
258.8272	0.1934
259.0417	0.1917
259.2561	0.195
259.4706	0.1886
259.6851	0.1994
259.8995	0.1891
260.114	0.1945
260.3284	0.1975
260.5428	0.1983
260.7572	0.205
260.9716	0.1903
261.186	0.2047
261.4003	0.202
261.6147	0.1996
261.829	0.2044
262.0433	0.2013
262.2577	0.1943
262.472	0.1976
262.6863	0.1956
262.9005	0.2024
263.1148	0.1915
263.3291	0.1896
263.5433	0.1943
263.7576	0.1955
263.9718	0.1945
264.186	0.1822
264.4002	0.1849
264.6144	0.1851
264.8286	0.1801
265.0427	0.1812
265.2569	0.1835
265.471	0.18
265.6851	0.1791
265.8993	0.179
266.1134	0.1765
266.3275	0.1811
266.5415	0.1757
266.7556	0.1824
266.9697	0.175
267.1837	0.1822
267.3978	0.1872
267.6118	0.1891
267.8258	0.1867
268.0398	0.1955
268.2538	0.189
268.4677	0.1949
268.6817	0.1995
268.8957	0.1869
269.1096	0.1875
269.3235	0.1856
269.5374	0.1832
269.7514	0.1686
269.9652	0.1706
270.1791	0.1508
270.393	0.1551
270.6068	0.1537
270.8207	0.1475
271.0345	0.1554
271.2483	0.1514
271.4622	0.1483
271.676	0.1382
271.8897	0.1419
272.1035	0.143
272.3173	0.1522
272.531	0.1497
272.7448	0.138
272.9585	0.1407
273.1722	0.1408
273.3859	0.1404
273.5996	0.1375
273.8133	0.1427
274.0269	0.142
274.2406	0.1398
274.4542	0.1373
274.6679	0.1393
274.8815	0.1415
275.0951	0.1499
275.3087	0.1401
275.5223	0.1374
275.7358	0.1397
275.9494	0.145
276.1629	0.1432
276.3765	0.1382
276.59	0.143
276.8035	0.1489
277.017	0.1418
277.2305	0.1452
277.444	0.1441
277.6574	0.1415
277.8709	0.1455
278.0843	0.1464
278.2978	0.1527
278.5112	0.1464
278.7246	0.1379
278.938	0.1487
279.1513	0.1479
279.3647	0.1422
279.5781	0.1458
279.7914	0.1475
280.0047	0.1522
280.2181	0.1542
280.4314	0.1434
280.6447	0.1525
280.8579	0.1589
281.0712	0.1511
281.2845	0.1448
281.4977	0.1615
281.711	0.1582
281.9242	0.1506
282.1374	0.1543
282.3506	0.1472
282.5638	0.1508
282.7769	0.1543
282.9901	0.1518
283.2033	0.16
283.4164	0.1547
283.6295	0.1618
283.8426	0.1519
284.0557	0.1513
284.2688	0.1538
284.4819	0.1524
284.695	0.1507
284.908	0.1607
285.1211	0.1585
285.3341	0.1534
285.5471	0.1598
285.7601	0.1552
285.9731	0.1513
286.1861	0.1542
286.3991	0.1539
286.612	0.1601
286.825	0.1587
287.0379	0.1586
287.2508	0.1633
287.4637	0.1608
287.6766	0.1581
287.8895	0.1587
288.1024	0.1629
288.3152	0.1621
288.5281	0.1586
288.7409	0.1556
288.9538	0.1577
289.1666	0.1653
289.3794	0.1544
289.5922	0.1559
289.8049	0.1507
290.0177	0.1635
290.2304	0.1604
290.4432	0.1612
290.6559	0.1647
290.8686	0.1621
291.0813	0.1609
291.294	0.1668
291.5067	0.1627
291.7194	0.1633
291.932	0.165
292.1447	0.1639
292.3573	0.1605
292.5699	0.1684
292.7825	0.1617
292.9951	0.1694
293.2077	0.1556
293.4203	0.1569
293.6328	0.1662
293.8454	0.1506
294.0579	0.1613
294.2704	0.1688
294.4829	0.1638
294.6954	0.1593
294.9079	0.1589
295.1204	0.1622
295.3328	0.1589
295.5453	0.1609
295.7577	0.1526
295.9701	0.1605
296.1825	0.1598
296.3949	0.1536
296.6073	0.1634
296.8197	0.1667
297.0321	0.1613
297.2444	0.156
297.4567	0.1584
297.6691	0.1625
297.8814	0.1545
298.0937	0.1613
298.306	0.1594
298.5182	0.151
298.7305	0.1641
298.9428	0.1588
299.155	0.1559
299.3672	0.1642
299.5794	0.1646
299.7916	0.1565
300.0038	0.1602
300.216	0.161
300.4282	0.156
300.6403	0.1571
300.8525	0.1622
301.0646	0.1619
301.2767	0.1644
301.4888	0.1548
301.7009	0.1605
301.913	0.1657
302.125	0.1595
302.3371	0.1685
302.5491	0.1597
302.7612	0.1602
302.9732	0.1703
303.1852	0.1567
303.3972	0.1608
303.6092	0.1565
303.8211	0.1594
304.0331	0.1531
304.245	0.1535
304.457	0.1562
304.6689	0.1575
304.8808	0.1546
305.0927	0.1508
305.3046	0.1484
305.5164	0.1547
305.7283	0.1502
305.9401	0.1528
306.152	0.1461
306.3638	0.161
306.5756	0.1445
306.7874	0.1404
306.9992	0.1378
307.2109	0.1384
307.4227	0.1385
307.6344	0.1349
307.8462	0.1305
308.0579	0.1324
308.2696	0.1307
308.4813	0.1337
308.693	0.1281
308.9046	0.1208
309.1163	0.1223
309.328	0.1243
309.5396	0.1192
309.7512	0.1219
309.9628	0.1172
310.1744	0.1237
310.386	0.1125
310.5976	0.1111
310.8091	0.1196
311.0207	0.1131
311.2322	0.1157
311.4437	0.126
311.6552	0.1178
311.8667	0.1082
312.0782	0.1021
312.2897	0.1052
312.5012	0.11
312.7126	0.0983
312.924	0.1034
313.1355	0.1
313.3469	0.1056
313.5583	0.1027
313.7696	0.1003
313.981	0.0971
314.1924	0.1019
314.4037	0.0936
314.6151	0.0957
314.8264	0.1082
315.0377	0.0934
315.249	0.1006
315.4603	0.1002
315.6716	0.1052
315.8828	0.0989
316.0941	0.1001
316.3053	0.1031
316.5165	0.0898
316.7277	0.0941
316.9389	0.1
317.1501	0.0957
317.3613	0.0968
317.5724	0.0911
317.7836	0.0906
317.9947	0.0924
318.2058	0.0947
318.417	0.09
318.6281	0.0917
318.8391	0.0936
319.0502	0.0873
319.2613	0.0968
319.4723	0.0942
319.6834	0.0939
319.8944	0.095
320.1054	0.0957
320.3164	0.0956
320.5274	0.0961
320.7383	0.0931
320.9493	0.0949
321.1602	0.0917
321.3712	0.1091
321.5821	0.0975
321.793	0.0912
322.0039	0.09
322.2148	0.0881
322.4257	0.0923
322.6365	0.0934
322.8474	0.0965
323.0582	0.1031
323.269	0.0935
323.4798	0.0981
323.6906	0.0994
323.9014	0.102
324.1122	0.0947
324.3229	0.0981
324.5337	0.0965
324.7444	0.0988
324.9551	0.1033
325.1658	0.0998
325.3765	0.1058
325.5872	0.0927
325.7979	0.1033
326.0085	0.1052
326.2192	0.092
326.4298	0.1039
326.6404	0.0951
326.851	0.0911
327.0616	0.101
327.2722	0.1006
327.4828	0.1003
327.6933	0.1038
327.9039	0.1009
328.1144	0.0985
328.3249	0.1123
328.5354	0.0978
328.7459	0.1037
328.9564	0.1003
329.1669	0.103
329.3773	0.1013
329.5878	0.1102
329.7982	0.1003
330.0086	0.1024
330.219	0.0999
330.4294	0.0999
330.6398	0.0982
330.8502	0.1085
331.0605	0.1056
331.2708	0.107
331.4812	0.0994
331.6915	0.1013
331.9018	0.0963
332.1121	0.1036
332.3224	0.0968
332.5326	0.1032
332.7429	0.1008
332.9531	0.1068
333.1633	0.1033
333.3735	0.1117
333.5837	0.1009
333.7939	0.109
334.0041	0.1044
334.2143	0.0993
334.4244	0.1019
334.6346	0.1096
334.8447	0.1091
335.0548	0.1032
335.2649	0.1018
335.475	0.1043
335.685	0.1072
335.8951	0.1042
336.1051	0.0987
336.3152	0.0984
336.5252	0.1115
336.7352	0.0999
336.9452	0.1094
337.1552	0.1042
337.3652	0.1142
337.5751	0.109
337.7851	0.1009
337.995	0.1001
338.2049	0.1026
338.4148	0.1088
338.6247	0.1096
338.8346	0.1056
339.0445	0.1119
339.2543	0.1106
339.4642	0.114
339.674	0.111
339.8838	0.1028
340.0936	0.1157
340.3034	0.1215
340.5132	0.118
340.7229	0.1177
340.9327	0.1148
341.1424	0.1124
341.3522	0.1121
341.5619	0.1294
341.7716	0.1253
341.9813	0.1195
342.1909	0.1172
342.4006	0.1156
342.6102	0.1082
342.8199	0.1164
343.0295	0.1172
343.2391	0.1152
343.4487	0.1163
343.6583	0.1173
343.8679	0.1151
344.0774	0.1195
344.287	0.1273
344.4965	0.1169
344.706	0.1261
344.9155	0.1303
345.125	0.127
345.3345	0.1285
345.544	0.1151
345.7534	0.1208
345.9629	0.1248
346.1723	0.1234
346.3817	0.1369
346.5911	0.1328
346.8005	0.126
347.0099	0.1175
347.2193	0.1323
347.4286	0.1402
347.638	0.1327
347.8473	0.1329
348.0566	0.1317
348.2659	0.1328
348.4752	0.1335
348.6845	0.1273
348.8937	0.1425
349.103	0.1362
349.3122	0.1342
349.5214	0.1314
349.7306	0.1307
349.9398	0.1336
350.149	0.1324
350.3582	0.1302
350.5674	0.1396
350.7765	0.1342
350.9856	0.1408
351.1948	0.1402
351.4039	0.1406
351.613	0.1384
351.822	0.1368
352.0311	0.1426
352.2402	0.141
352.4492	0.1373
352.6582	0.1356
352.8672	0.1521
353.0762	0.1478
353.2852	0.16
353.4942	0.1496
353.7032	0.1522
353.9121	0.1499
354.1211	0.1488
354.33	0.1436
354.5389	0.1535
354.7478	0.1507
354.9567	0.1418
355.1655	0.1578
355.3744	0.162
355.5833	0.1419
355.7921	0.1485
356.0009	0.1422
356.2097	0.1634
356.4185	0.158
356.6273	0.16
356.8361	0.1449
357.0448	0.1593
357.2536	0.1549
357.4623	0.1483
357.671	0.1661
357.8797	0.1711
358.0884	0.1643
358.2971	0.1641
358.5057	0.161
358.7144	0.1661
358.923	0.1688
359.1316	0.1559
359.3402	0.1658
359.5488	0.1663
359.7574	0.1748
359.966	0.1753
360.1746	0.1703
360.3831	0.1763
360.5916	0.1824
360.8002	0.1754
361.0087	0.1717
361.2172	0.171
361.4256	0.1804
361.6341	0.1673
361.8426	0.1837
362.051	0.1768
362.2594	0.1808
362.4678	0.182
362.6762	0.1905
362.8846	0.1837
363.093	0.1869
363.3014	0.1863
363.5097	0.1797
363.718	0.1951
363.9264	0.1858
364.1347	0.1995
364.343	0.1824
364.5513	0.1844
364.7595	0.1916
364.9678	0.1876
365.176	0.1999
365.3842	0.1868
365.5925	0.1947
365.8007	0.1916
366.0089	0.2027
366.217	0.206
366.4252	0.2039
366.6333	0.1883
366.8415	0.1961
367.0496	0.1972
367.2577	0.2019
367.4658	0.2129
367.6739	0.199
367.882	0.2021
368.09	0.2077
368.2981	0.2201
368.5061	0.209
368.7141	0.211
368.9221	0.2113
369.1301	0.2198
369.3381	0.212
369.5461	0.2165
369.754	0.21
369.962	0.2037
370.1699	0.2172
370.3778	0.2074
370.5857	0.2085
370.7936	0.2105
371.0015	0.2104
371.2093	0.2016
371.4172	0.2283
371.625	0.2156
371.8328	0.2173
372.0406	0.2415
372.2484	0.2236
372.4562	0.2273
372.664	0.2274
372.8717	0.2208
373.0795	0.2237
373.2872	0.219
373.4949	0.2122
373.7026	0.2271
373.9103	0.2292
374.118	0.2228
374.3256	0.219
374.5333	0.215
374.7409	0.2231
374.9485	0.2219
375.1561	0.2301
375.3637	0.2185
375.5713	0.234
375.7789	0.2323
375.9864	0.2339
376.194	0.2271
376.4015	0.2431
376.609	0.2354
376.8165	0.2347
377.024	0.2189
377.2315	0.2345
377.4389	0.2282
377.6464	0.227
377.8538	0.2416
378.0612	0.232
378.2686	0.243
378.476	0.2349
378.6834	0.25
378.8908	0.241
379.0981	0.2401
379.3055	0.2395
379.5128	0.2371
379.7201	0.2377
379.9274	0.2464
380.1347	0.2418
380.342	0.2485
380.5492	0.2382
380.7565	0.2445
380.9637	0.2508
381.1709	0.2465
381.3781	0.2334
381.5853	0.25
381.7925	0.2501
381.9997	0.2517
382.2068	0.2474
382.4139	0.2502
382.6211	0.2522
382.8282	0.2537
383.0353	0.2464
383.2424	0.2416
383.4494	0.2655
383.6565	0.2454
383.8635	0.2616
384.0706	0.2528
384.2776	0.2456
384.4846	0.2559
384.6916	0.2517
384.8986	0.2519
385.1055	0.2575
385.3125	0.2597
385.5194	0.2534
385.7263	0.2607
385.9333	0.2528
386.1402	0.2656
386.347	0.2558
386.5539	0.2604
386.7608	0.2483
386.9676	0.2522
387.1744	0.2497
387.3813	0.2503
387.5881	0.2489
387.7948	0.2439
388.0016	0.2645
388.2084	0.2642
388.4151	0.2526
388.6219	0.2557
388.8286	0.2543
389.0353	0.2449
389.242	0.2522
389.4487	0.2339
389.6553	0.2546
389.862	0.2445
390.0686	0.2395
390.2753	0.2285
390.4819	0.2328
390.6885	0.2457
390.8951	0.2474
391.1016	0.245
391.3082	0.2365
391.5147	0.2528
391.7213	0.2394
391.9278	0.2325
392.1343	0.2417
392.3408	0.2262
392.5473	0.2391
392.7537	0.2397
392.9602	0.2288
393.1666	0.23
393.373	0.2292
393.5794	0.2348
393.7858	0.2242
393.9922	0.222
394.1986	0.2269
394.4049	0.2334
394.6113	0.2297
394.8176	0.2129
395.0239	0.2252
395.2302	0.2213
395.4365	0.2242
395.6428	0.2145
395.8491	0.2128
396.0553	0.2191
396.2615	0.2117
396.4678	0.2302
396.674	0.2124
396.8802	0.217
397.0863	0.2191
397.2925	0.2139
397.4987	0.2178
397.7048	0.2092
397.9109	0.2184
398.117	0.2142
398.3231	0.218
398.5292	0.2118
398.7353	0.2103
398.9413	0.2184
399.1474	0.2129
399.3534	0.2106
399.5594	0.2068
399.7654	0.2142
399.9714	0.2085
400.1774	0.2246
400.3833	0.224
400.5893	0.21
400.7952	0.1984
401.0011	0.2021
401.207	0.2129
401.4129	0.1942
401.6188	0.206
401.8247	0.2126
402.0305	0.216
402.2364	0.2176
402.4422	0.2087
402.648	0.2211
402.8538	0.2102
403.0596	0.2096
403.2654	0.2075
403.4711	0.1988
403.6768	0.2313
403.8826	0.2126
404.0883	0.2031
404.294	0.2091
404.4997	0.2119
404.7054	0.2113
404.911	0.2062
405.1167	0.2185
405.3223	0.2101
405.5279	0.2116
405.7335	0.2178
405.9391	0.2056
406.1447	0.2004
406.3502	0.1962
406.5558	0.2073
406.7613	0.2001
406.9668	0.2142
407.1724	0.208
407.3778	0.2166
407.5833	0.2122
407.7888	0.2209
407.9942	0.2093
408.1997	0.2225
408.4051	0.2052
408.6105	0.2213
408.8159	0.2239
409.0213	0.2083
409.2267	0.2133
409.432	0.2155
409.6374	0.2194
409.8427	0.2198
410.048	0.2111
410.2533	0.1974
410.4586	0.2097
410.6639	0.2014
410.8691	0.2058
411.0744	0.2031
411.2796	0.2065
411.4848	0.2036
411.69	0.2173
411.8952	0.2026
412.1004	0.2048
412.3056	0.2204
412.5107	0.2143
412.7158	0.2097
412.921	0.2067
413.1261	0.1902
413.3312	0.2173
413.5362	0.2072
413.7413	0.2059
413.9464	0.2024
414.1514	0.2059
414.3564	0.2067
414.5614	0.2131
414.7664	0.2046
414.9714	0.1992
415.1764	0.2103
415.3813	0.2123
415.5863	0.2008
415.7912	0.2021
415.9961	0.2072
416.201	0.2129
416.4059	0.2031
416.6108	0.2065
416.8156	0.1926
417.0205	0.2129
417.2253	0.2079
417.4301	0.2062
417.6349	0.2052
417.8397	0.1932
418.0445	0.1991
418.2492	0.1967
418.454	0.1956
418.6587	0.1881
418.8634	0.1925
419.0681	0.2019
419.2728	0.2032
419.4775	0.1843
419.6822	0.1951
419.8868	0.1961
420.0915	0.1884
420.2961	0.204
420.5007	0.201
420.7053	0.1858
420.9099	0.183
421.1144	0.1874
421.319	0.1817
421.5235	0.2052
421.728	0.1928
421.9325	0.1863
422.137	0.1795
422.3415	0.1902
422.546	0.1932
422.7504	0.189
422.9549	0.1886
423.1593	0.182
423.3637	0.1807
423.5681	0.1901
423.7725	0.1857
423.9769	0.1825
424.1812	0.1819
424.3856	0.1834
424.5899	0.1952
424.7942	0.1731
424.9985	0.1729
425.2028	0.1692
425.4071	0.1674
425.6113	0.171
425.8156	0.1727
426.0198	0.177
426.224	0.1614
426.4282	0.1625
426.6324	0.1625
426.8366	0.171
427.0407	0.1589
427.2449	0.1714
427.449	0.1581
427.6531	0.1685
427.8572	0.1568
428.0613	0.1575
428.2654	0.1463
428.4694	0.1602
428.6735	0.1697
428.8775	0.148
429.0815	0.1569
429.2855	0.1644
429.4895	0.1456
429.6935	0.1501
429.8975	0.1529
430.1014	0.1445
430.3053	0.1404
430.5093	0.1501
430.7132	0.1438
430.9171	0.1392
431.1209	0.1428
431.3248	0.1417
431.5286	0.1334
431.7325	0.1323
431.9363	0.1359
432.1401	0.1393
432.3439	0.1271
432.5477	0.1264
432.7514	0.1233
432.9552	0.1218
433.1589	0.1338
433.3627	0.1222
433.5664	0.1106
433.7701	0.1155
433.9737	0.112
434.1774	0.1191
434.3811	0.1078
434.5847	0.1164
434.7883	0.1159
434.9919	0.1038
435.1955	0.1009
435.3991	0.1017
435.6027	0.1064
435.8062	0.1104
436.0098	0.1
436.2133	0.0955
436.4168	0.1008
436.6203	0.1025
436.8238	0.0921
437.0272	0.0863
437.2307	0.1046
437.4341	0.1026
437.6375	0.0916
437.841	0.099
438.0443	0.0908
438.2477	0.0826
438.4511	0.0893
438.6545	0.087
438.8578	0.0837
439.0611	0.0845
439.2644	0.0982
439.4677	0.0866
439.671	0.0763
439.8743	0.0836
440.0775	0.0762
440.2808	0.0653
440.484	0.0813
440.6872	0.0587
440.8904	0.0668
441.0936	0.0765
441.2967	0.0551
441.4999	0.0686
441.703	0.0606
441.9062	0.0657
442.1093	0.0605
442.3124	0.0537
442.5155	0.0559
442.7185	0.0523
442.9216	0.0628
443.1246	0.0541
443.3276	0.0584
443.5307	0.046
443.7337	0.056
443.9366	0.0554
444.1396	0.0472
444.3426	0.0435
444.5455	0.0498
444.7484	0.0427
444.9513	0.0393
445.1542	0.0577
445.3571	0.0408
445.56	0.0456
445.7628	0.0368
445.9657	0.0597
446.1685	0.0453
446.3713	0.041
446.5741	0.0448
446.7769	0.0414
446.9797	0.0382
447.1824	0.0353
447.3852	0.0372
447.5879	0.0378
447.7906	0.041
447.9933	0.0348
448.196	0.0505
448.3986	0.0253
448.6013	0.0249
448.8039	0.0353
449.0066	0.0321
449.2092	0.0263
449.4118	0.0221
449.6143	0.0262
449.8169	0.0168
450.0195	0.0219
450.222	0.0147
450.4245	0.0186
450.627	0.0235
450.8295	0.0179
451.032	0.0278
451.2345	0.0221
451.4369	0.0244
451.6394	0.0162
451.8418	0.0179
452.0442	0.0229
452.2466	0.0164
452.449	0.0136
452.6513	0.0219
452.8537	0.0188
453.056	0.0152
453.2583	0.0202
453.4607	0.0315
453.663	0.0242
453.8652	0.0183
454.0675	0.0277
454.2697	0.01
454.472	0.021
454.6742	0.0074
454.8764	0.0143
455.0786	0.0116
455.2808	0.01
455.4829	0.0107
455.6851	-0.0006
455.8872	0.0068
456.0893	0.0136
456.2915	0.0067
456.4935	0.0057
456.6956	0.0125
456.8977	0.0026
457.0997	0.0118
457.3018	0.015
457.5038	0.009
457.7058	0.0002
457.9078	0.0037
458.1098	0.0062
458.3117	0.0039
458.5137	0.0087
458.7156	0.0127
458.9175	-0.0014
459.1194	0.0099
459.3213	0.0135
459.5232	0.0035
459.725	-0.0049
459.9269	0.0054
460.1287	0.0068
460.3305	-0.0043
460.5323	0.0073
460.7341	0.0004
460.9359	-0.0026
461.1376	-0.0023
461.3394	-0.0012
461.5411	0.0061
461.7428	-0.0005
461.9445	0.0011
462.1462	-0.0042
462.3479	-0.0037
462.5495	0.0034
462.7512	0.0049
462.9528	-0.0025
463.1544	0.0036
463.356	-0.0045
463.5576	-0.0038
463.7592	-0.0045
463.9607	0.0002
464.1623	-0.0039
464.3638	0.0043
464.5653	0.0035
464.7668	0.0023
464.9683	0.0061
465.1697	-0.0003
465.3712	0.0017
465.5726	0.003
465.7741	-0.0062
465.9755	-0.0091
466.1769	-0.0153
466.3782	-0.0003
466.5796	-0.0055
466.7809	-0.0048
466.9823	-0.0128
467.1836	-0.0036
467.3849	0.0032
467.5862	-0.007
467.7875	-0.0089
467.9887	0.0037
468.19	-0.0022
468.3912	0.0042
468.5924	-0.0017
468.7936	-0.0005
468.9948	0.0118
469.196	-0.0091
469.3972	0.0028
469.5983	0.0114
469.7994	-0.0042
470.0006	-0.0112
470.2017	0.0073
470.4027	-0.0028
470.6038	-0.0074
470.8049	-0.0022
471.0059	-0.0003
471.2069	0.0014
471.408	-0.0074
471.6089	-0.0059
471.8099	-0.0061
472.0109	-0.0112
472.2119	-0.0117
472.4128	-0.0038
472.6137	-0.0046
472.8146	-0.0125
473.0155	-0.0055
473.2164	-0.0151
473.4173	-0.0073
473.6181	-0.0029
473.819	-0.0023
474.0198	-0.0119
474.2206	-0.0099
474.4214	-0.0117
474.6222	-0.0076
474.8229	-0.0119
475.0237	-0.0005
475.2244	-0.0006
475.4251	-0.0034
475.6258	0.0028
475.8265	-0.0024
476.0272	0.0008
476.2278	-0.001
476.4285	-0.0003
476.6291	-0.0053
476.8297	-0.0058
477.0303	-0.006
477.2309	-0.0046
477.4315	-0.0018
477.632	-0.0137
477.8326	-0.0084
478.0331	-0.0097
478.2336	-0.0067
478.4341	-0.0113
478.6346	-0.0027
478.8351	-0.0141
479.0355	-0.0118
479.236	-0.0056
479.4364	-0.004
479.6368	0.0026
479.8372	-0.0041
480.0376	-0.0025
480.2379	0.0004
480.4383	-0.0026
480.6386	-0.0184
480.8389	-0.0113
481.0392	-0.0099
481.2395	-0.0051
481.4398	-0.0063
481.6401	-0.0114
481.8403	-0.0063
482.0405	-0.0063
482.2408	0.0003
482.441	-0.0044
482.6411	-0.0004
482.8413	-0.0043
483.0415	-0.0027
483.2416	-0.0113
483.4417	-0.0092
483.6419	-0.0049
483.8419	-0.009
484.042	0.0016
484.2421	-0.0037
484.4422	-0.0013
484.6422	-0.0113
484.8422	-0.012
485.0422	-0.0047
485.2422	-0.0028
485.4422	-0.0016
485.6422	-0.0016
485.8421	-0.0013
486.042	-0.0029
486.242	-0.0097
486.4419	-0.0026
486.6417	-0.003
486.8416	-0.0079
487.0415	-0.0022
487.2413	-0.002
487.4411	-0.006
487.641	-0.0031
487.8408	-0.0107
488.0405	-0.0062
488.2403	-0.0011
488.4401	-0.0113
488.6398	-0.0072
488.8395	-0.0046
489.0392	-0.011
489.2389	-0.0063
489.4386	-0.0045
489.6383	0.0002
489.8379	-0.0113
490.0376	-0.0047
490.2372	-0.0025
490.4368	-0.01
490.6364	-0.0035
490.836	-0.0068
491.0355	-0.0025
491.2351	-0.0087
491.4346	-0.0053
491.6341	0.0013
491.8336	-0.0079
492.0331	-0.0048
492.2326	-0.0036
492.432	-0.004
492.6315	-0.0041
492.8309	-0.007
493.0303	-0.0078
493.2297	-0.0035
493.4291	-0.0083
493.6284	-0.0077
493.8278	0.0005
494.0271	-0.0064
494.2264	-0.0067
494.4257	0.0003
494.625	0.0011
494.8243	-0.0026
495.0236	-0.0161
495.2228	-0.0066
495.422	-0.0072
495.6213	-0.0078
495.8205	0.0017
496.0196	-0.0071
496.2188	-0.0079
496.418	0.002
496.6171	-0.0032
496.8162	-0.0069
497.0153	-0.0031
497.2144	-0.0058
497.4135	-0.0035
497.6126	-0.0055
497.8116	-0.0001
498.0107	-0.0054
498.2097	-0.0093
498.4087	-0.0053
498.6077	-0.0066
498.8067	-0.0108
499.0056	-0.0027
499.2046	0.0001
499.4035	-0.0135
499.6024	-0.0066
499.8013	-0.004
500.0002	-0.0111
500.199	-0.0006
500.3979	-0.0088
500.5967	-0.0093
500.7956	-0.0147
500.9944	-0.0088
501.1932	-0.0068
501.3919	-0.013
501.5907	-0.005
501.7895	-0.0021
501.9882	-0.0167
502.1869	-0.005
502.3856	-0.0011
502.5843	-0.0123
502.783	-0.011
502.9816	-0.0086
503.1803	-0.0009
503.3789	-0.0044
503.5775	0.0014
503.7761	-0.0048
503.9747	-0.0025
504.1732	-0.006
504.3718	0.0009
504.5703	-0.0041
504.7689	-0.003
504.9674	-0.0004
505.1658	-0.0071
505.3643	-0.001
505.5628	0.0015
505.7612	-0.0136
505.9597	-0.0059
506.1581	-0.0071
506.3565	-0.0018
506.5549	-0.0036
506.7532	-0.0104
506.9516	-0.002
507.1499	-0.0021
507.3482	-0.004
507.5465	0.0014
507.7448	0
507.9431	-0.0036
508.1414	-0.0121
508.3396	-0.0049
508.5379	-0.0026
508.7361	-0.0014
508.9343	-0.0084
509.1325	-0.0079
509.3306	-0.0022
509.5288	0.0016
509.7269	-0.0082
509.9251	-0.0066
510.1232	-0.0032
510.3213	-0.0145
510.5193	-0.0031
510.7174	-0.0028
510.9154	-0.0113
511.1135	-0.0082
511.3115	-0.0052
511.5095	-0.0118
511.7075	-0.0019
511.9055	-0.009
512.1034	-0.0058
512.3014	-0.0053
512.4993	-0.004
512.6972	-0.0086
512.8951	-0.0071
513.093	-0.0138
513.2908	0.0012
513.4887	0.0001
513.6865	-0.0117
513.8844	-0.0032
514.0822	-0.0035
514.2799	-0.0141
514.4777	-0.0071
514.6755	-0.0033
514.8732	-0.0115
515.0709	-0.0076
515.2687	-0.0049
515.4664	-0.009
515.664	-0.0053
515.8617	-0.0062
516.0594	-0.0119
516.257	-0.0067
516.4546	-0.0104
516.6522	-0.0111
516.8498	-0.0114
517.0474	-0.0007
517.2449	-0.0044
517.4425	-0.0065
517.64	-0.0037
517.8375	-0.009
518.035	-0.0086
518.2325	-0.0097
518.43	0.0055
518.6274	-0.0114
518.8249	-0.0043
519.0223	-0.0118
519.2197	-0.0099
519.4171	-0.001
519.6145	-0.0077
519.8118	-0.0091
520.0092	-0.0047
520.2065	-0.0112
520.4038	-0.0104
520.6011	-0.0115
520.7984	-0.0124
520.9956	-0.0085
521.1929	-0.0056
521.3901	-0.0098
521.5874	-0.0074
521.7846	-0.0022
521.9818	-0.0025
522.1789	0.0002
522.3761	-0.0093
522.5732	-0.0061
522.7704	-0.0011
522.9675	-0.0088
523.1646	-0.0039
523.3617	-0.008
523.5587	-0.0073
523.7558	0.0007
523.9528	-0.0073
524.1498	-0.013
524.3468	-0.0011
524.5438	-0.0084
524.7408	-0.0146
524.9378	-0.0052
525.1347	0.0022
525.3316	-0.0027
525.5285	-0.0021
525.7254	-0.009
525.9223	-0.0031
526.1192	-0.0022
526.316	-0.0055
526.5129	-0.0081
526.7097	-0.0117
526.9065	-0.0003
527.1033	-0.0003
527.3	0.0018
527.4968	-0.0143
527.6935	-0.0083
527.8903	-0.0033
528.087	-0.0139
528.2837	-0.0031
528.4804	-0.007
528.677	-0.0071
528.8737	-0.0152
529.0703	-0.0031
529.2669	0.0033
529.4635	-0.0079
529.6601	-0.0086
529.8567	-0.0047
530.0532	-0.0016
530.2498	-0.0029
530.4463	-0.0001
530.6428	-0.0056
530.8393	0.0026
531.0358	-0.0089
531.2322	-0.0088
531.4287	-0.0131
531.6251	-0.0092
531.8215	0.0021
532.0179	-0.0074
532.2143	0.0017
532.4107	-0.0055
532.607	-0.0101
532.8034	-0.0051
532.9997	-0.0031
533.196	0.0034
533.3923	-0.0067
533.5886	-0.0006
533.7848	-0.0012
533.9811	-0.0072
534.1773	-0.0063
534.3735	0.0019
534.5697	-0.0038
534.7659	-0.0001
534.9621	-0.0007
535.1582	-0.008
535.3544	-0.0075
535.5505	-0.0017
535.7466	-0.0109
535.9427	-0.0022
536.1387	0.0008
536.3348	0.0016
536.5308	-0.0095
536.7269	0.0046
536.9229	-0.0043
537.1189	-0.0084
537.3148	0.0005
537.5108	0.0006
537.7068	-0.005
537.9027	-0.0029
538.0986	0
538.2945	-0.0016
538.4904	-0.0084
538.6863	-0.0113
538.8821	-0.0063
539.078	-0.0111
539.2738	-0.0135
539.4696	-0.0075
539.6654	-0.0113
539.8611	-0.0023
540.0569	-0.0046
540.2526	-0.0059
540.4484	-0.0008
540.6441	-0.0049
540.8398	-0.0038
541.0355	-0.0082
541.2311	-0.0035
541.4268	-0.0005
541.6224	-0.001
541.818	0.0011
542.0136	-0.0072
542.2092	-0.0023
542.4048	-0.0026
542.6003	-0.0061
542.7959	-0.0045
542.9914	-0.0131
543.1869	-0.0099
543.3824	-0.0089
543.5779	-0.0093
543.7734	-0.0091
543.9688	-0.0155
544.1642	-0.0098
544.3596	-0.0057
544.555	-0.0011
544.7504	-0.003
544.9458	-0.0014
545.1411	0.0062
545.3365	-0.0025
545.5318	0.0013
545.7271	0.0045
545.9224	-0.0043
546.1177	-0.0148
546.3129	-0.0019
546.5081	-0.0029
546.7034	-0.0077
546.8986	-0.0067
547.0938	-0.0042
547.289	-0.0045
547.4841	-0.011
547.6793	-0.0079
547.8744	-0.002
548.0695	-0.0076
548.2646	-0.0108
548.4597	0.0005
548.6548	-0.0055
548.8498	-0.0054
549.0448	-0.0017
549.2399	0.0004
549.4349	0.0014
549.6298	-0.0098
549.8248	-0.0017
550.0198	-0.0064
550.2147	0.0005
550.4096	-0.0067
550.6045	-0.007
550.7994	-0.0072
550.9943	-0.0057
551.1892	-0.0063
551.384	-0.0114
551.5788	-0.0094
551.7737	0.0026
551.9685	-0.001
552.1632	-0.0014
552.358	-0.0078
552.5528	-0.0075
552.7475	-0.0108
552.9422	-0.0064
553.1369	-0.0098
553.3316	-0.0021
553.5263	-0.0088
553.7209	-0.0063
553.9156	-0.0015
554.1102	-0.0082
554.3048	-0.0096
554.4994	-0.0017
554.694	-0.003
554.8885	-0.0064
555.0831	-0.004
555.2776	-0.002
555.4721	-0.0076
555.6666	-0.0084
555.8611	-0.0059
556.0555	-0.0017
556.25	-0.0056
556.4444	-0.0109
556.6388	-0.0123
556.8332	-0.0008
557.0276	-0.0063
557.222	-0.0056
557.4163	0.0063
557.6107	-0.0083
557.805	-0.0027
557.9993	-0.0023
558.1936	-0.0085
558.3879	0.0042
558.5821	-0.0043
558.7764	-0.0105
558.9706	-0.004
559.1648	-0.0034
559.359	-0.0074
559.5532	-0.0048
559.7473	-0.0067
559.9415	-0.0081
560.1356	-0.0039
560.3297	-0.0107
560.5238	-0.0041
560.7179	-0.0023
560.9119	-0.002
561.106	-0.0025
561.3	-0.0049
561.494	-0.005
561.688	-0.005
561.882	-0.0015
562.076	-0.0065
562.2699	-0.0068
562.4639	-0.0107
562.6578	-0.005
562.8517	-0.0026
563.0456	-0.0018
563.2395	-0.0039
563.4333	-0.0026
563.6272	-0.0074
563.821	-0.0015
564.0148	0.0011
564.2086	-0.0041
564.4024	-0.0055
564.5961	-0.0004
564.7899	0.0001
564.9836	-0.0007
565.1773	-0.0019
565.371	-0.0026
565.5647	-0.0024
565.7584	0.0046
565.952	-0.0003
566.1456	-0.0008
566.3393	-0.0035
566.5329	-0.0055
566.7264	-0.0035
566.92	0.0032
567.1136	-0.004
567.3071	0.0022
567.5006	-0.0019
567.6941	-0.0031
567.8876	-0.0005
568.0811	-0.0018
568.2745	-0.0065
568.468	-0.012
568.6614	-0.0088
568.8548	-0.0112
569.0482	-0.0126
569.2416	-0.0019
569.4349	-0.0019
569.6283	-0.0087
569.8216	-0.0113
570.0149	-0.003
570.2082	-0.0014
570.4015	-0.0036
570.5947	-0.0027
570.788	-0.0083
570.9812	-0.0062
571.1744	-0.0058
571.3676	-0.0067
571.5608	-0.0026
571.754	-0.0055
571.9471	-0.004
572.1402	-0.0082
572.3333	-0.002
572.5264	0.0018
572.7195	0.0033
572.9126	-0.0032
573.1057	-0.0016
573.2987	0.0014
573.4917	-0.0068
573.6847	-0.004
573.8777	-0.0088
574.0707	-0
574.2636	-0.0054
574.4566	-0.0021
574.6495	-0.0077
574.8424	-0.0056
575.0353	-0.004
575.2281	-0.0011
575.421	-0.0078
575.6138	-0.0062
575.8067	-0.0048
575.9995	-0.0009
576.1923	-0.0057
576.385	-0.0058
576.5778	-0.0035
576.7706	0.0035
576.9633	-0.0007
577.156	0.0025
577.3487	-0
577.5414	0.0004
577.734	0.0013
577.9267	0.0014
578.1193	-0.0051
578.3119	0.0005
578.5045	-0.0043
578.6971	-0.0025
578.8897	-0.0069
579.0822	0.0012
579.2747	-0.0013
579.4673	-0.0037
579.6598	-0.0029
579.8522	-0.0041
580.0447	-0.0059
580.2372	0.003
580.4296	0.0037
580.622	0.005
580.8144	-0.0033
581.0068	-0.0032
581.1992	0.0019
581.3915	-0.0013
581.5839	-0.0008
581.7762	-0.0082
581.9685	-0.001
582.1608	-0.0066
582.353	0.0011
582.5453	-0.0072
582.7375	0.0024
582.9298	-0.0033
583.122	0.0009
583.3142	-0.0009
583.5063	-0.0025
583.6985	-0.003
583.8906	-0.0035
584.0827	-0.0088
584.2749	-0.0039
584.4669	-0.0068
584.659	-0.0074
584.8511	-0.0046
585.0431	-0.0044
585.2352	-0.0072
585.4272	-0.0077
585.6192	-0.0052
585.8111	-0.0049
586.0031	-0.0012
586.195	0.0009
586.387	0.001
586.5789	-0.0015
586.7708	-0.0075
586.9627	-0.006
587.1545	-0.0066
587.3464	-0.0056
587.5382	-0.0045
587.73	-0.0064
587.9218	-0.0061
588.1136	-0.0008
588.3053	-0.0022
588.4971	-0.0079
588.6888	-0.0031
588.8805	-0.0041
589.0722	-0.0038
589.2639	-0.0035
589.4556	-0.0022
589.6472	-0.0017
589.8389	-0.0026
590.0305	-0.0043
590.2221	0.001
590.4137	-0.0033
590.6052	-0.0047
590.7968	-0.0026
590.9883	-0.0027
591.1798	-0.0088
591.3713	-0.0007
591.5628	-0.0075
591.7543	-0.0034
591.9458	0.0002
592.1372	-0.0049
592.3286	-0.0055
592.52	-0.0063
592.7114	0.0046
592.9028	-0.0041
593.0941	0.0002
593.2855	-0.0014
593.4768	0.0019
593.6681	0.0057
593.8594	0.0007
594.0506	-0.0002
594.2419	0.0008
594.4331	-0.0052
594.6244	-0.0041
594.8156	-0.0039
595.0067	-0.0025
595.1979	-0.0005
595.3891	-0.0028
595.5802	-0.0073
595.7713	-0.0017
595.9624	0.0044
596.1535	-0.0044
596.3446	-0.0037
596.5357	0.0023
596.7267	-0.0018
596.9177	-0.0019
597.1087	-0.0001
597.2997	0.0016
597.4907	-0.0024
597.6817	-0.0073
597.8726	-0.0023
598.0635	-0.0066
598.2544	-0.0039
598.4453	-0.0044
598.6362	-0.0043
598.827	-0.0074
599.0179	-0.0063
599.2087	-0.0126
599.3995	-0.0088
599.5903	-0.002
599.7811	-0.0034
599.9718	-0.0022
600.1626	-0.0007
600.3533	-0.0012
600.544	-0.0073
600.7347	-0.0015
600.9254	-0.001
601.116	-0.0052
601.3067	-0.0059
601.4973	-0.0041
601.6879	0.0004
601.8785	-0.007
602.0691	-0.0038
602.2596	-0.0019
602.4502	-0.0046
602.6407	0.0027
602.8312	-0.0026
603.0217	-0.0035
603.2122	-0.0031
603.4027	-0.0006
603.5931	-0.0067
603.7835	-0.0054
603.9739	-0.0045
604.1643	-0.0024
604.3547	0.0003
604.5451	-0.0051
604.7354	-0.0021
604.9257	-0.0066
605.116	-0.0019
605.3063	-0.0006
605.4966	0.0014
605.6869	-0.0044
605.8771	-0.0023
606.0673	-0.0042
606.2575	-0.0053
606.4477	-0.0057
606.6379	-0.0112
606.8281	-0.0085
607.0182	-0.0103
607.2083	-0.0057
607.3985	-0.0104
607.5885	0.0012
607.7786	-0.0044
607.9687	-0.0045
608.1587	-0.0108
608.3488	-0.0025
608.5388	0.0035
608.7288	-0.0082
608.9187	-0.0037
609.1087	-0.0058
609.2986	-0.0041
609.4886	-0.0045
609.6785	-0
609.8684	-0.004
610.0582	-0.0062
610.2481	-0.0013
610.4379	-0.0021
610.6278	-0.0016
610.8176	-0.0026
611.0074	-0.0022
611.1971	0.0001
611.3869	-0.0046
611.5766	0
611.7664	0.0013
611.9561	-0.007
612.1458	0.0054
612.3354	-0.0061
612.5251	-0.007
612.7147	-0.0034
612.9044	-0.0037
613.094	-0.0018
613.2836	-0.0019
613.4731	-0.0062
613.6627	-0.0054
613.8522	0.0008
614.0417	-0.0067
614.2313	-0.0058
614.4207	-0.0027
614.6102	0.0009
614.7997	-0.0061
614.9891	-0.003
615.1785	-0.0063
615.3679	0.0009
615.5573	-0.002
615.7467	0.0027
615.9361	0.0014
616.1254	-0.0028
616.3147	-0.0007
616.504	-0.0016
616.6933	-0.0017
616.8826	-0.0093
617.0718	-0.0054
617.2611	0.0008
617.4503	0.0006
617.6395	-0.0023
617.8287	0.0004
618.0179	0.0039
618.207	-0.0031
618.3961	-0.004
618.5853	-0.0023
618.7744	-0.0028
618.9634	0.0014
619.1525	-0.0068
619.3416	-0.0138
619.5306	-0.0032
619.7196	0.0003
619.9086	-0.0031
620.0976	-0.0018
620.2866	0.0002
620.4755	-0.0056
620.6645	-0.0044
620.8534	-0.0006
621.0423	-0.0033
621.2312	-0.0072
621.42	0.001
621.6089	0.0002
621.7977	-0.0075
621.9865	-0.004
622.1753	0.0045
622.3641	0.0033
622.5529	-0.0005
622.7416	-0.0056
622.9303	0.0016
623.1191	-0.0008
623.3078	-0.0002
623.4964	-0.0026
623.6851	-0.0003
623.8737	-0.0005
624.0624	-0.0006
624.251	-0.0022
624.4396	0.0012
624.6282	-0.0014
624.8167	0.0022
625.0053	-0.0007
625.1938	0.0018
625.3823	0.0037
625.5708	0.0004
625.7593	-0.0011
625.9477	-0.0082
626.1362	-0.0022
626.3246	-0.0033
626.513	-0.0038
626.7014	-0.0049
626.8898	-0.0041
627.0781	-0.0025
627.2665	-0.0037
627.4548	-0.0088
627.6431	-0.0068
627.8314	-0.0059
628.0197	0.0014
628.2079	-0.0023
628.3962	0.0024
628.5844	0.0003
628.7726	0.0029
628.9608	0.0025
629.1489	0.0027
629.3371	0.0004
629.5252	0.0002
629.7134	0.0009
629.9015	0.0003
630.0895	-0.0034
630.2776	-0.0015
630.4657	-0.0045
630.6537	-0.0036
630.8417	0.001
631.0297	-0.0036
631.2177	-0.0025
631.4057	0.0039
631.5936	0.0032
631.7815	-0.0045
631.9695	-0.0039
632.1574	-0.0083
632.3452	-0.007
632.5331	-0.0034
632.7209	-0.0066
632.9088	-0.0055
633.0966	-0.0015
633.2844	-0.0041
633.4722	-0.0012
633.6599	-0.0044
633.8477	-0.0011
634.0354	-0.0064
634.2231	-0.0053
634.4108	-0.0026
634.5985	-0.0007
634.7861	-0.0016
634.9738	-0.0059
635.1614	-0.0059
635.349	-0.0026
635.5366	-0.0011
635.7242	-0.0014
635.9117	0.0003
636.0993	-0.0017
636.2868	-0.0068
636.4743	-0.0034
636.6618	-0.0131
636.8492	-0.0004
637.0367	-0.0014
637.2241	-0.0031
637.4115	-0.0059
637.5989	0
637.7863	-0.0014
637.9737	-0.003
638.161	-0.005
638.3484	-0.0019
638.5357	-0.0035
638.723	0.0006
638.9103	-0.0012
639.0975	0.0018
639.2848	-0.0044
639.472	0.0023
639.6592	0.004
639.8464	-0
640.0336	-0.0049
640.2208	0.002
640.4079	-0.0028
640.595	-0.0015
640.7821	-0.004
640.9692	0.0011
641.1563	0.0024
641.3434	-0.0004
641.5304	-0.004
641.7174	-0.0016
641.9044	0.0014
642.0914	-0.0035
642.2784	0.0021
642.4653	0.0034
642.6523	-0.0025
642.8392	0.0026
643.0261	0.0076
643.213	0.0011
643.3999	-0.0016
643.5867	-0.002
643.7735	-0.0017
643.9604	-0.0017
644.1472	-0.0011
644.3339	-0.0027
644.5207	-0.0041
644.7075	-0.0059
644.8942	-0.0074
645.0809	-0.001
645.2676	-0.0047
645.4543	0.0068
645.6409	0.0027
645.8276	-0.0012
646.0142	-0.0054
646.2008	-0.0076
646.3874	-0.0028
646.574	-0.0024
646.7605	-0.0028
646.9471	-0.008
647.1336	-0.0005
647.3201	-0.0068
647.5066	-0.0006
647.6931	0.0017
647.8795	-0.0074
648.0659	-0.0042
648.2524	-0.0096
648.4388	-0.0014
648.6252	-0.0032
648.8115	-0.0108
648.9979	-0.0078
649.1842	-0.0128
649.3705	-0.0015
649.5568	-0.003
649.7431	-0.0024
649.9294	-0.005
650.1156	-0.0004
650.3018	-0.004
650.488	-0.0069
650.6742	-0.0044
650.8604	0.0006
651.0466	0.002
651.2327	-0.0015
651.4188	0.0016
651.6049	0.0073
651.791	0.0011
651.9771	-0.0012
652.1632	0.0059
652.3492	0.0034
652.5352	-0.0022
652.7212	0.0001
652.9072	0.0017
653.0932	-0.0018
653.2791	-0.002
653.465	-0.0044
653.651	-0.005
653.8369	-0.004
654.0227	0.0017
654.2086	-0.0034
654.3944	-0.0096
654.5803	-0.008
654.7661	-0.0021
654.9519	-0.0054
655.1377	-0.0007
655.3234	0
655.5092	0
655.6949	0
655.8806	0
656.0663	0
656.2519	0
656.4376	-0.0036
656.6232	-0.0053
656.8088	-0.0051
656.9945	-0.0032
657.18	-0.0023
657.3656	-0.0035
657.5511	-0.0013
657.7367	-0.0053
657.9222	-0.0027
658.1077	0.0006
658.2932	-0.0027
658.4786	0.0008
658.6641	0.0003
658.8495	-0.0023
659.0349	-0.005
659.2203	-0.0081
659.4057	-0.0033
659.591	0.0012
659.7764	-0.0046
659.9617	-0.0042
660.147	-0.0041
660.3323	-0.0043
660.5176	-0.009
660.7028	-0.0057
660.888	0.0002
661.0733	0.0017
661.2585	-0.0129
661.4436	-0.0022
661.6288	-0.0011
661.8139	0.0019
661.9991	0.0045
662.1842	-0.0005
662.3693	-0.0035
662.5544	0.0001
662.7394	-0.0005
662.9245	0.0015
663.1095	0.0055
663.2945	-0.0061
663.4795	-0.0039
663.6644	-0.0074
663.8494	-0.005
664.0343	-0.0033
664.2193	-0.0069
664.4042	-0.0083
664.589	-0.0057
664.7739	-0.0032
664.9587	0.0016
665.1436	0.001
665.3284	-0.0022
665.5132	-0.0055
665.698	0.0004
665.8827	0.0033
666.0675	-0.0074
666.2522	-0.0059
666.4369	-0.0115
666.6216	-0.0108
666.8063	-0.0069
666.9909	-0.0095
667.1756	-0.0072
667.3602	-0.0116
667.5448	-0.0106
667.7294	-0.0041
667.9139	-0.0057
668.0985	-0.0121
668.283	-0.0061
668.4675	-0.0153
668.652	-0.0139
668.8365	-0.0097
669.0209	-0.0087
669.2054	-0.0036
669.3898	-0.0094
669.5742	-0.0021
669.7586	-0.0039
669.943	-0.007
670.1273	-0.0132
670.3117	-0.007
670.496	-0.0036
670.6803	-0.002
670.8646	-0.0032
671.0488	0.0027
671.2331	-0.0018
671.4173	0.0021
671.6015	-0.0019
671.7857	-0.0052
671.9699	-0.0015
672.1541	-0.0061
672.3382	-0.0064
672.5223	-0.009
672.7064	-0.0069
672.8905	-0.0114
673.0746	-0.0093
673.2587	-0.014
673.4427	-0.0144
673.6267	-0.0126
673.8107	-0.011
673.9947	-0.0143
674.1787	-0.0062
674.3626	-0.009
674.5465	-0.008
674.7304	-0.0005
674.9143	-0.0027
675.0982	-0.004
675.2821	-0.0037
675.4659	-0.0041
675.6497	0
675.8335	-0.0036
676.0173	-0.0097
676.2011	-0.004
676.3849	-0.0053
676.5686	-0.0058
676.7523	-0.0016
676.936	-0.0005
677.1197	-0.0038
677.3034	-0.0057
677.487	-0.007
677.6706	-0.0034
677.8542	-0.0008
678.0378	-0.0048
678.2214	-0.0126
678.405	0.0001
678.5885	-0.0064
678.772	-0.0028
678.9555	0.0008
679.139	-0.0075
679.3225	-0.0131
679.5059	-0.0029
679.6894	-0.0005
679.8728	-0.0026
680.0562	-0.0004
680.2395	-0.004
680.4229	0.0021
680.6062	-0.0003
680.7896	0.0036
680.9729	-0.002
681.1562	0.0021
681.3394	-0.0026
681.5227	0.001
681.7059	-0.0075
681.8891	-0.0052
682.0723	-0.0007
682.2555	-0.0061
682.4387	0.0042
682.6218	-0.007
682.805	-0.0033
682.9881	-0.0027
683.1712	0.0003
683.3542	-0.0023
683.5373	-0.0075
683.7203	-0.0028
683.9034	-0.0019
684.0864	-0.0062
684.2694	-0.0052
684.4523	-0.0018
684.6353	-0.0052
684.8182	-0.0033
685.0011	-0.0061
685.184	-0.0034
685.3669	-0.0029
685.5498	-0.0011
685.7326	-0.0016
685.9154	-0.0036
686.0982	-0.0077
686.281	-0.0055
686.4638	-0.0058
686.6465	-0.0025
686.8293	-0.0017
687.012	-0.0004
687.1947	-0.0111
687.3774	0.0012
687.56	-0.0024
687.7427	0.0002
687.9253	-0.0035
688.1079	0.0003
688.2905	-0.0005
688.4731	-0.0013
688.6556	-0.0083
688.8382	-0.0008
689.0207	0.0019
689.2032	-0.0028
689.3857	0
689.5681	-0.0017
689.7506	0.0025
689.933	-0.0003
690.1154	-0.0008
690.2978	-0.0017
690.4802	-0.0034
690.6626	0.0056
690.8449	0.0036
691.0272	0.0025
691.2095	0.0034
691.3918	-0.0051
691.5741	-0.0031
691.7563	-0.0015
691.9386	-0.0055
692.1208	-0.0061
692.303	-0.0022
692.4852	-0.0034
692.6673	-0.0008
692.8495	-0.0041
693.0316	-0.0024
693.2137	-0.0033
693.3958	-0.0042
693.5778	-0
693.7599	-0.0123
693.9419	-0.0065
694.1239	-0.0035
694.3059	-0.009
694.4879	-0.0074
694.6699	-0.0082
694.8518	-0.0082
695.0337	-0.0054
695.2157	-0.0037
695.3975	-0.0092
695.5794	-0.0056
695.7613	-0.0091
695.9431	-0.0057
696.1249	-0.0073
696.3067	-0.0076
696.4885	0.0018
696.6703	-0.0026
696.852	-0.0014
697.0337	-0.002
697.2154	0.0004
697.3971	-0.0096
697.5788	-0.0044
697.7605	0.0017
697.9421	-0.004
698.1237	-0.0094
698.3053	-0.0069
698.4869	-0.0012
698.6685	-0.0039
698.85	-0.0088
699.0315	-0.001
699.213	-0.0028
699.3945	0.0063
699.576	0.0088
699.7575	-0.0012
699.9389	-0.0008
700.1203	-0.002
700.3017	-0.0035
700.4831	-0.0022
700.6645	-0.0097
700.8458	0.0001
701.0271	-0.0031
701.2084	-0.0109
701.3897	-0.0022
701.571	-0.0016
701.7523	0.0015
701.9335	0.0024
702.1147	0.0072
702.2959	-0.0062
702.4771	-0.0001
702.6583	0.001
702.8394	0.0002
703.0205	-0.0004
703.2016	-0.0002
703.3827	0.0041
703.5638	-0.0088
703.7449	-0.0031
703.9259	-0.0018
704.1069	0.0004
704.2879	-0.0051
704.4689	-0.0065
704.6499	-0.0029
704.8308	-0.0018
705.0117	-0.0065
705.1927	0.0007
705.3735	0.0017
705.5544	0.0033
705.7353	0.0048
705.9161	0.0003
706.0969	0.0066
706.2777	-0.0027
706.4585	-0.0033
706.6393	-0.002
706.82	-0.0013
707.0007	0.0017
707.1815	-0.0021
707.3621	-0.0015
707.5428	0.0015
707.7235	-0.0023
707.9041	-0.001
708.0847	-0.0021
708.2653	-0.0042
708.4459	-0.0054
708.6265	-0.0029
708.807	0.0034
708.9875	-0.005
709.168	-0.0033
709.3485	-0.0033
709.529	-0.0082
709.7095	-0.0048
709.8899	-0.0125
710.0703	0.0025
710.2507	-0.0007
710.4311	-0.0012
710.6115	0.0028
710.7918	0.0008
710.9721	0.0036
711.1524	0.0005
711.3327	-0.0009
711.513	-0.005
711.6932	-0.0039
711.8735	0.0022
712.0537	-0.0057
712.2339	-0.0042
712.4141	-0.0026
712.5942	0.002
712.7744	0.0033
712.9545	0.0001
713.1346	-0.0036
713.3147	0.0076
713.4947	0.0024
713.6748	-0.0079
713.8548	-0.0072
714.0348	-0.0044
714.2148	-0.0069
714.3948	-0.0112
714.5748	-0.0141
714.7547	-0.0045
714.9346	0.0005
715.1145	-0.0054
715.2944	-0.0043
715.4743	-0.0082
715.6541	-0.0059
715.834	-0.0046
716.0138	-0.0007
716.1936	-0.0029
716.3733	-0.0051
716.5531	-0.0023
716.7328	-0.001
716.9126	-0.003
717.0923	-0.0013
717.2719	-0.0109
717.4516	-0.0087
717.6312	-0.0024
717.8109	-0.0026
717.9905	-0.0101
718.1701	-0.0047
718.3496	-0.0042
718.5292	-0.0073
718.7087	-0.0067
718.8882	-0.0028
719.0677	-0.0013
719.2472	-0.0038
719.4267	-0.0139
719.6061	-0.0115
719.7856	-0.0011
719.965	-0.0072
720.1443	-0.0015
720.3237	-0.0075
720.5031	-0.0062
720.6824	-0.0045
720.8617	-0.0068
721.041	-0.0056
721.2203	-0.0062
721.3995	-0.0055
721.5788	-0.0073
721.758	-0.0031
721.9372	0.0001
722.1164	-0.0023
722.2956	-0.0087
722.4747	-0.0023
722.6538	-0.0075
722.8329	-0.0036
723.012	-0.0023
723.1911	-0.0014
723.3702	-0.0029
723.5492	-0.002
723.7282	-0.0014
723.9072	-0.0038
724.0862	-0.0004
724.2652	-0.0037
724.4441	-0.0047
724.623	0.0039
724.8019	-0.0041
724.9808	-0.0042
725.1597	0.0014
725.3385	0.004
725.5174	-0.0006
725.6962	-0.0096
725.875	0.0018
726.0538	0.0047
726.2325	-0.0073
726.4112	-0.0022
726.59	0.0006
726.7687	0.0028
726.9474	-0.0036
727.126	-0.0048
727.3047	-0.0048
727.4833	-0.0003
727.6619	-0.0117
727.8405	-0.0053
728.0191	-0.0011
728.1976	-0.0072
728.3762	-0.0112
728.5547	-0.0115
728.7332	-0.0056
728.9116	-0.0117
729.0901	-0.0085
729.2686	-0.0103
729.447	-0.0038
729.6254	-0.007
729.8038	-0.0028
729.9821	-0.0065
730.1605	-0.0007
730.3388	0.0032
730.5171	-0.0021
730.6954	-0.003
730.8737	-0.0027
731.0519	-0.0001
731.2302	0.0033
731.4084	0.0051
731.5866	0.0009
731.7648	0.0061
731.9429	-0.0015
732.1211	0.0032
732.2992	-0.0038
732.4773	-0.0034
732.6554	-0.004
732.8335	-0.0015
733.0115	-0.0079
733.1896	-0.0102
733.3676	-0.0027
733.5456	-0.0004
733.7235	-0.0069
733.9015	0.0034
734.0794	0.0032
734.2574	-0.0041
734.4353	-0.0069
734.6131	0.0007
734.791	-0.0002
734.9689	-0.0046
735.1467	0.0063
735.3245	-0.0007
735.5023	-0.0037
735.68	-0.0056
735.8578	-0.0034
736.0355	0.0079
736.2132	-0.0025
736.3909	-0.0044
736.5686	0.0006
736.7463	-0.0064
736.9239	-0.0055
737.1015	-0.0004
737.2791	-0.0125
737.4567	-0.0051
737.6343	-0.0066
737.8118	-0
737.9894	-0.0016
738.1669	-0.0019
738.3444	-0.0005
738.5218	0.0032
738.6993	0.0015
738.8767	0.0023
739.0541	-0.006
739.2315	-0.0044
739.4089	0.0025
739.5863	-0.0115
739.7636	-0.0069
739.9409	-0.0032
740.1182	0.0033
740.2955	-0.0049
740.4728	-0.0001
740.65	0.0013
740.8272	0.0017
741.0044	0.0017
741.1816	0.0045
741.3588	0.0025
741.5359	-0.0037
741.7131	0.004
741.8902	0.0044
742.0673	0.0026
742.2444	-0.0041
742.4214	-0.0077
742.5985	-0.0046
742.7755	-0.0085
742.9525	-0.0025
743.1295	-0.0024
743.3064	-0.0059
743.4834	-0.0019
743.6603	0.0002
743.8372	0.0029
744.0141	-0.0025
744.191	-0.0011
744.3678	0.0003
744.5446	0.0028
744.7215	-0.008
744.8982	-0.0024
745.075	0.0082
745.2518	-0.0013
745.4285	-0.0049
745.6052	0.004
745.7819	-0.0013
745.9586	0.0023
746.1353	-0.0065
746.3119	0.0082
746.4885	-0.0081
746.6651	-0.0016
746.8417	-0.009
747.0183	-0.0021
747.1948	-0.0091
747.3714	-0.0065
747.5479	-0.0054
747.7244	0.0011
747.9008	0.0026
748.0773	0.0044
748.2537	0.0022
748.4301	0.005
748.6065	-0.0013
748.7829	0.0003
748.9593	-0.0019
749.1356	-0.0057
749.3119	0.0007
749.4882	0.002
749.6645	-0.0021
749.8408	-0.001
750.017	-0.0071
750.1933	-0.0031
750.3695	-0.0034
750.5457	-0.0048
750.7218	-0.0032
750.898	-0.0058
751.0741	-0.0095
751.2502	-0.0018
751.4263	-0.0059
751.6024	-0.0053
751.7784	0.002
751.9545	-0.0045
752.1305	0.0055
752.3065	-0.0051
752.4825	-0.0064
752.6584	0.0024
752.8344	-0.0003
753.0103	-0.0053
753.1862	0.0026
753.3621	0.0018
753.5379	-0.0049
753.7138	0
753.8896	-0.0062
754.0654	-0.0087
754.2412	-0.0118
754.417	-0.0047
754.5927	-0.0072
754.7685	-0.0091
754.9442	-0.0115
755.1199	-0.011
755.2956	-0.0034
755.4712	-0.0027
755.6469	-0.0117
755.8225	-0.0117
755.9981	-0.0114
756.1736	-0.0056
756.3492	-0.0096
756.5248	-0.0013
756.7003	-0.0102
756.8758	-0.0112
757.0513	-0.0114
757.2267	-0.0081
757.4022	-0.0029
757.5776	-0.0113
757.753	-0.0181
757.9284	-0.007
758.1038	-0.0064
758.2791	-0.0087
758.4545	-0.0104
758.6298	-0.0079
758.8051	-0.0115
758.9803	-0.0092
759.1556	-0.0116
759.3308	-0.0047
759.506	-0.0052
759.6812	-0.0125
759.8564	-0.003
760.0316	-0.008
760.2067	-0.0047
760.3819	-0.0006
760.557	-0.0097
760.732	-0.0058
760.9071	-0.0127
761.0821	-0.0142
761.2572	-0.0097
761.4322	-0.0124
761.6072	-0.0097
761.7821	-0.0118
761.9571	-0.0129
762.132	-0.0096
762.3069	-0.0061
762.4818	-0.006
762.6567	-0.0108
762.8316	0.0001
763.0064	-0.0021
763.1812	0
763.356	0.0079
763.5308	-0.0034
763.7055	0.0023
763.8803	-0.0079
764.055	-0.004
764.2297	0.0092
764.4044	-0.004
764.579	-0.0018
764.7537	-0.0029
764.9283	-0.0088
765.1029	0.0069
765.2775	0.0026
765.4521	0.0041
765.6266	0.0054
765.8011	0.0045
765.9756	0.0061
766.1501	0.0034
766.3246	-0.0006
766.4991	-0.0046
766.6735	-0.0073
766.8479	-0.0135
767.0223	0.004
767.1967	-0.0073
767.371	-0.0073
767.5454	0.0006
767.7197	-0.004
767.894	0.006
768.0683	-0.0046
768.2425	-0.0058
768.4168	-0.0062
768.591	0.0037
768.7652	0.0049
768.9394	0.0037
769.1135	0.0024
769.2877	-0.0063
769.4618	0.007
769.6359	-0.0032
769.81	0.0006
769.984	-0.007
770.1581	0.0032
770.3321	0.0027
770.5061	-0.0026
770.6801	0.004
770.8541	-0.0043
771.028	0.0048
771.202	0.0043
771.3759	-0.0049
771.5498	-0.0029
771.7236	0.0025
771.8975	0.0019
772.0713	0.0029
772.2451	0.0005
772.4189	0.0043
772.5927	-0.0062
772.7665	0.0004
772.9402	0.0001
773.1139	0.0001
773.2876	-0
773.4613	-0.0033
773.635	0.0016
773.8086	0.0075
773.9822	0.0036
774.1558	-0.003
774.3294	0.0031
774.503	-0.0004
774.6765	-0.0069
774.8501	0.0074
775.0236	-0.007
775.1971	-0.0095
775.3705	-0.0019
775.544	-0.0059
775.7174	0.0027
775.8908	-0.0062
776.0642	-0.0023
776.2376	-0.0037
776.4109	-0.0118
776.5843	0.0039
776.7576	0.0012
776.9309	0.0023
777.1041	-0.0002
777.2774	0.002
777.4506	0.011
777.6238	0.0053
777.797	-0.0006
777.9702	0.0012
778.1434	-0.0007
778.3165	0.0029
778.4896	-0.0084
778.6627	0.0018
778.8358	-0.0086
779.0089	-0.0006
779.1819	0.0022
779.3549	-0.0045
779.5279	-0.0075
779.7009	-0.0047
779.8739	-0.0009
780.0468	-0.0066
780.2197	-0.0015
780.3926	-0.0058
780.5655	-0.0125
780.7384	-0.0054
780.9112	-0.0081
781.0841	-0.0062
781.2569	-0.0008
781.4297	-0.0027
781.6024	-0.0073
781.7752	0.0037
781.9479	0.0017
782.1206	-0.0053
782.2933	-0.002
782.466	-0.0056
782.6386	0.0005
782.8113	-0.0096
782.9839	-0.0042
783.1565	-0.0057
783.329	-0.003
783.5016	0.0032
783.6741	-0.0087
783.8466	-0.0111
784.0191	-0.0038
784.1916	-0.0006
784.3641	-0.001
784.5365	0.0036
784.7089	0.0035
784.8813	0.0061
785.0537	0.0133
785.2261	0.0046
785.3984	0.0013
785.5707	0.0026
785.743	0.0068
785.9153	0.0039
786.0876	0.0046
786.2598	0.0123
786.432	0.0098
786.6042	0.0028
786.7764	0.0116
786.9486	-0.0002
787.1207	-0.0056
787.2928	0.004
787.4649	-0.0044
787.637	-0.0047
787.8091	0.0047
787.9811	0.0059
788.1532	-0.0002
788.3252	-0.0058
788.4972	-0.004
788.6691	-0.0033
788.8411	0.0002
789.013	-0.0048
789.1849	0.0027
789.3568	-0.0056
789.5287	-0.0081
789.7005	0.004
789.8723	-0.0095
790.0442	-0.0094
790.2159	-0.0049
790.3877	-0.0016
790.5595	-0.0029
790.7312	0.0014
790.9029	-0.0018
791.0746	-0.0101
791.2463	0.0006
791.4179	-0.0085
791.5896	0.0028
791.7612	-0.0001
791.9328	0.0071
792.1044	-0.0109
792.2759	0.0117
792.4474	-0.0084
792.619	-0.0046
792.7905	-0.0041
792.9619	-0.0002
793.1334	-0.0033
793.3048	-0.0077
793.4762	0
793.6476	-0.0191
793.819	-0.0113
793.9904	-0.0122
794.1617	-0.0142
794.333	-0.006
794.5043	-0.0061
794.6756	0.0039
794.8469	0.0009
795.0181	-0.0078
795.1893	-0.0053
795.3605	-0.0069
795.5317	-0.0029
795.7029	-0
795.874	-0.0119
796.0452	-0.0039
796.2163	-0.009
796.3873	-0.0065
796.5584	-0.0074
796.7294	-0.0091
796.9005	-0.0155
797.0715	-0.016
797.2425	-0.0101
797.4134	-0.0155
797.5844	-0.0183
797.7553	-0.0084
797.9262	-0.0054
798.0971	-0.0147
798.2679	-0.0152
798.4388	-0.0141
798.6096	-0.0151
798.7804	-0.0206
798.9512	-0.0175
799.122	-0.0025
799.2927	-0.0133
799.4635	-0.0085
799.6342	-0.0097
799.8049	-0.0136
799.9755	-0.009
800.1462	-0.0232
800.3168	-0.0115
800.4874	-0.0095
800.658	-0.0172
800.8286	-0.0128
800.9991	-0.0151
801.1696	-0.0136
801.3402	-0.0228
801.5106	-0.0167
801.6811	-0.0214
801.8516	-0.0161
802.022	-0.0196
802.1924	-0.0291
802.3628	-0.0263
802.5332	-0.0117
802.7035	-0.0098
802.8739	-0.0115
803.0442	-0.0133
803.2145	-0.0136
803.3847	-0.0237
803.555	-0.0105
803.7252	-0.0144
803.8954	-0.0149
804.0656	-0.0075
804.2358	-0.0156
804.4059	-0.014
804.5761	-0.0025
804.7462	-0.0071
804.9163	-0.0087
805.0864	-0.0098
805.2564	-0.0057
805.4264	-0.0159
805.5965	-0.0085
805.7665	-0.0032
805.9364	0.0024
806.1064	-0.0117
806.2763	-0.0072
806.4462	-0.0079
806.6161	-0.007
806.786	-0.009
806.9559	-0.0105
807.1257	-0.011
807.2955	-0.0112
807.4653	-0.0042
807.6351	-0.0223
807.8048	0.0042
807.9746	-0.0138
808.1443	0.0043
808.314	-0.0001
808.4837	0.0093
808.6533	-0.0026
808.8229	-0.0066
808.9926	0.0038
809.1622	0.0013
809.3317	0.0153
809.5013	0.005
809.6708	-0.004
809.8403	0.0092
810.0098	0.0091
810.1793	-0.0058
810.3488	0.0141
810.5182	-0.0068
810.6876	0.0004
810.857	-0.0028
811.0264	-0.0119
811.1958	0.01
811.3651	-0.0181
811.5344	0.0013
811.7037	-0.0083
811.873	-0.0168
812.0422	-0.0094
812.2115	-0.0066
812.3807	0.0033
812.5499	-0.0034
812.7191	-0.0091
812.8882	-0.0068
813.0574	-0.0052
813.2265	0.0001
813.3956	0.0038
813.5646	-0.0058
813.7337	-0.0042
813.9027	0.0089
814.0718	-0.0138
814.2407	0.0118
814.4097	-0.004
814.5787	-0.0037
814.7476	-0.0064
814.9165	0.0067
815.0854	-0.0115
815.2543	0.0088
815.4232	-0.0098
815.592	0.0085
815.7608	0.0085
815.9296	-0.0009
816.0984	0.0047
816.2671	0.0043
816.4359	0.0004
816.6046	-0.0001
816.7733	-0.006
816.942	0.0022
817.1106	0.0013
817.2793	-0.0094
817.4479	-0.0157
817.6165	-0.0108
817.785	-0.0024
817.9536	0.0035
818.1221	-0.0048
818.2906	-0.0024
818.4591	-0.0061
818.6276	0.0023
818.7961	-0.0138
818.9645	-0.0079
819.1329	-0.005
819.3013	-0.0154
819.4697	-0.0223
819.638	-0.0156
819.8064	-0.0189
819.9747	0.0067
820.143	0.0017
820.3113	-0.0044
820.4795	0.0046
820.6477	-0.0139
820.816	-0.0013
820.9842	-0.0079
821.1523	-0.025
821.3205	-0.0046
821.4886	-0.0003
821.6567	-0.0072
821.8248	-0.0203
821.9929	0.004
822.1609	0.0071
822.329	-0.0014
822.497	-0.0073
822.665	-0.016
822.833	-0.02
823.0009	-0.0173
823.1688	-0.0048
823.3367	-0.0167
823.5046	-0.0159
823.6725	-0.0141
823.8404	0.0086
824.0082	-0.0135
824.176	-0.0054
824.3438	0.002
824.5116	0.0176
824.6793	-0.0119
824.847	-0.0014
825.0147	-0.0036
825.1824	-0.0082
825.3501	-0.0069
825.5177	-0.0174
825.6854	-0.0073
825.853	-0.0003
826.0206	-0.0042
826.1881	0.0014
826.3557	0.0045
826.5232	-0
826.6907	-0.0022
826.8582	0.0088
827.0257	-0.0055
827.1931	0.0085
827.3605	-0.0043
827.528	-0.0105
827.6953	0.0094
827.8627	0.0065
828.03	-0.0052
828.1974	-0.0069
828.3647	0.0216
828.532	-0.0206
828.6992	-0.0054
828.8665	-0.0131
829.0337	-0.0045
829.2009	-0.0233
829.3681	-0.0318
829.5352	-0.002
829.7024	-0.0135
829.8695	-0.0325
830.0366	-0.0336
830.2037	-0.0123
830.3707	-0.023
830.5378	-0.0015
830.7048	-0.0144
830.8718	0.0037
831.0388	-0.0049
831.2057	-0.008
831.3727	-0.0119
831.5396	0.0012
831.7065	-0.0031
831.8734	0.0035
832.0402	-0.0178
832.2071	0.0081
832.3739	-0.0123
832.5407	-0.0181
832.7075	0.0047
832.8742	0.0202
833.041	0.0169
833.2077	-0.0335
833.3744	-0.0047
833.541	-0.0029
833.7077	0.0073
833.8743	0.0052
834.0409	0.0204
834.2075	0.0207
834.3741	0.0115
834.5407	0.0009
834.7072	0.0131
834.8737	-0.0167
835.0402	-0.0198
835.2067	-0.0116
835.3731	-0.0102
835.5395	-0.0143
835.706	-0.0227
835.8723	-0.0308
836.0387	-0.0247
836.2051	-0.022
836.3714	0.0224
836.5377	-0.003
836.704	0.0114
836.8703	-0.0331
837.0365	-0.0007
837.2027	-0.0063
837.3689	0.0093
837.5351	-0.0081
837.7013	0.0029
837.8674	0.0125
838.0335	-0.0189
838.1997	0.0008
838.3657	-0.0064
838.5318	0.005
838.6978	-0.0289
838.8639	0.0183
839.0299	-0.0014
839.1958	0.0008
839.3618	0.0149
839.5277	-0.0133
839.6937	0.002
839.8596	-0.0148
840.0254	-0.0079
840.1913	0.0128
840.3571	0.0034
840.523	0.009
840.6888	-0.0117
840.8545	-0.0215
841.0203	-0.0074
841.186	0.0107
841.3517	-0.0104
841.5174	-0.0199
841.6831	0.0151
841.8488	-0.0122
842.0144	0.0239
842.18	0.0261
842.3456	-0.0088
842.5112	0.0129
842.6767	-0.0137
842.8422	0.008
843.0077	0.0061
843.1732	-0.0147
843.3387	-0.0055
843.5042	0.0112
843.6696	0.0107
843.835	-0.0334
844.0004	0.0099
844.1657	-0.0132
844.3311	-0.01
844.4964	-0.0019
844.6617	0.011
844.827	-0.0041
844.9923	0.0152
845.1575	0.0059
845.3227	-0.0362
845.4879	-0.0137
845.6531	-0.0066
845.8183	-0.0132
845.9834	-0.0111
846.1485	0.0155
846.3136	-0.0524
846.4787	-0.0082
846.6438	0.0139
846.8088	0.0061
846.9738	0.0089
847.1388	0.0162
847.3038	0.0266
847.4687	-0.0217
847.6337	0.0135
847.7986	0.0286
847.9635	0.0063
848.1284	-0.0269
848.2932	0.0179
848.458	0.0174
848.6228	0.002
848.7876	-0.025
848.9524	0.0268
849.1172	-0.0313
849.2819	0.0024
849.4466	0.0108
849.6113	-0.0015
849.7759	0.0043
849.9406	0.0215
850.1052	0.0235
850.2698	0.0303
850.4344	0.0196
850.599	-0.0387
850.7635	0.055
850.928	0.0131
851.0925	0.0359
851.257	0.0097
851.4215	-0.0101
851.5859	0.0372
851.7503	0.009
851.9147	0.0074
852.0791	0.0348
852.2434	-0.0431
852.4078	0.0238
852.5721	0.0029
852.7364	-0.0702
852.9007	0.0297
853.0649	-0.0048
853.2291	-0.0485
853.3934	-0.0074
853.5575	-0.0239
853.7217	-0.0586
853.8859	-0.0185
854.05	0.0086
854.2141	-0.0316
854.3782	0.013
854.5423	0.0312
854.7063	0.0215
854.8703	-0.0404
855.0343	-0.0024
855.1983	-0.0015
855.3623	0.0159
855.5262	0.042
855.6901	-0.0055
855.854	-0.0096
856.0179	0.0848
856.1818	-0.0172
856.3456	-0.0559
856.5094	-0.0416
856.6732	-0.006
856.837	0.035
857.0008	0.0266
857.1645	0.0173
857.3282	0.0219
857.4919	-0.0646
857.6556	0.0336
857.8192	0.0655
857.9828	0.0665
858.1465	0.011
858.31	0.0391
858.4736	-0.0852
858.6372	0.0081
858.8007	0.029
858.9642	-0.0465
859.1277	0.0287
859.2911	0.0578
859.4546	0.0536
859.618	0.0088
859.7814	0.0328
859.9448	-0.0183
860.1081	-0.0284
860.2715	0.1173
860.4348	-0.0649
860.5981	-0.029
860.7614	-0.0238
860.9246	-0.0017
861.0879	-0.0563
861.2511	0.0229
861.4143	-0.0969
861.5774	-0.0573
861.7406	0.0228
861.9037	-0.092
862.0668	-0.0019
862.2299	-0.0568
862.393	-0.0901
862.556	0.0382
862.7191	0.176
862.8821	-0.0288
863.0451	0.0277
863.208	0.0224
863.371	0.1498
863.5339	0.0051
863.6968	-0.1503
863.8597	0.0889
864.0225	-0.0937
864.1854	-0.0092
864.3482	-0.0086
864.511	-0.0996
864.6737	0.0241
864.8365	0.0134
864.9992	-0.0033
865.1619	0.0551
865.3246	-0.0947
865.4873	0.0059
865.65	0.0277
865.8126	0.0062
865.9752	0.0344
866.1378	0.0297
866.3004	-0.0448
866.4629	0.3542
866.6254	0.0164
866.7879	-0.1
866.9504	-0.1046
867.1129	-0.0976
867.2753	-0.1028
867.4377	0.0567
867.6001	-0.1351
867.7625	0.0652
867.9249	0.0374
868.0872	0.0086
868.2495	-0.1218
868.4118	-0.2392
868.5741	-0.2693
868.7363	-0.0825
868.8986	0.0913
869.0608	-0.0875
869.223	0.0557
869.3851	0.1499
869.5473	-0.2487
869.7094	0.367
869.8715	0.3552
870.0336	-0.2408
870.1957	0.1107
870.3577	0.015
870.5197	-0.4828
870.6817	0.0063
870.8437	-0.1041
871.0057	-0.2909
871.1676	0.0982
871.3295	-0.1868
871.4914	-0.0322
871.6533	-0.2131
871.8151	-0.0055
871.977	0.2852
872.1388	0.0147
872.3006	-0
872.4623	0.0111
872.6241	0.3065
872.7858	0.1176
872.9475	0.2023
873.1092	-0.0609
873.2709	-0.0334
873.4325	-0.3335
873.5941	0.2158
873.7557	-0.0357
873.9173	-0.0659
874.0789	-0.1324
874.2404	-0.3044
874.4019	-0.3505
874.5634	-0.1248
874.7249	-0.259
874.8863	-0.1138
875.0478	-0.1343
875.2092	-0.3505
875.3706	-0.0321
875.5319	0
875.6933	0.017
875.8546	-0.0921
876.0159	0.212
876.1772	-0.3005
876.3385	-0
876.4997	-0.3795
876.6609	0.1246
876.8221	-0.1601
876.9833	-0.3666
877.1445	-0.3076
877.3056	0.0599
877.4667	-0.8986
877.6278	0.0669
877.7889	-0.078
877.9499	-0.5814
878.111	0.3758
878.272	0.0147
878.433	-0.0692
878.5939	0.2095
878.7549	-0.2548
878.9158	-0.0425
879.0767	0.1299
879.2376	-0.0159
879.3984	0.3704
879.5593	0.0703
879.7201	-0
879.8809	0.0244
880.0417	0.0359
880.2024	-0.2397
880.3632	-0.1533
880.5239	-0
880.6846	-0.1634
880.8452	0.2879
881.0059	-0.1196
881.1665	-0
881.3271	-0.2809
881.4877	-0.136
881.6483	-0
881.8088	-0.077
881.9693	-0.0099
882.1298	-0.0099
882.2903	-0.0099
