Data from MonoPyChalIsomerACN10uM450nmA_Absorbance_13-11-27-091.txt Node
Date: Tue Jul 09 13:11:27 BST 2024
User: LASERRRRR
Spectrometer: FLMT03099
Trigger mode: 0
Integration Time (sec): 2.000000E-1
Scans to average: 1
Electric dark correction enabled: true
Nonlinearity correction enabled: false
Boxcar width: 0
XAxis mode: Wavelengths
Number of Pixels in Spectrum: 3648
>>>>>Begin Spectral Data<<<<<
179.3399	-0.0953
179.5586	-0.0953
179.7771	-0.0953
179.9957	0.8435
180.2143	0.1184
180.4329	0.1729
180.6514	-0
180.8699	-0
181.0885	-0
181.307	0.0118
181.5255	-0
181.744	-0.6041
181.9625	-0.1931
182.181	-0.0523
182.3994	-0.1953
182.6179	-0.3862
182.8363	-0
183.0547	0.0516
183.2732	0.1243
183.4916	0.0259
183.71	0.0567
183.9284	-0.0062
184.1467	0.0804
184.3651	0.0823
184.5835	0.1526
184.8018	-0.0511
185.0201	0.2112
185.2385	0.0794
185.4568	-0.0898
185.6751	0.1274
185.8934	0.2536
186.1117	0.0292
186.3299	0.1163
186.5482	0.0475
186.7664	0.0273
186.9847	0.1695
187.2029	0.0687
187.4211	0.0826
187.6393	-0.0553
187.8575	0.3335
188.0757	0.0492
188.2939	0.1605
188.512	0.1482
188.7302	0.0335
188.9483	0.127
189.1665	0.0863
189.3846	0.3135
189.6027	0.0629
189.8208	0.0753
190.0389	0.3305
190.257	0.2328
190.475	0.3725
190.6931	0.1596
190.9111	0.2381
191.1292	0.2198
191.3472	0.4236
191.5652	0.3359
191.7832	0.4955
192.0012	0.3711
192.2192	0.4756
192.4371	0.5212
192.6551	0.4436
192.873	0.4553
193.091	0.4752
193.3089	0.5516
193.5268	0.5661
193.7447	0.4599
193.9626	0.5552
194.1805	0.5487
194.3984	0.6437
194.6162	0.5464
194.8341	0.6684
195.0519	0.5449
195.2697	0.5811
195.4875	0.596
195.7054	0.707
195.9231	0.7425
196.1409	0.6621
196.3587	0.6784
196.5765	0.6763
196.7942	0.8233
197.012	0.6169
197.2297	0.7835
197.4474	0.7371
197.6651	0.726
197.8828	0.9342
198.1005	0.7919
198.3182	0.7767
198.5358	0.7512
198.7535	0.8671
198.9711	0.8444
199.1888	0.795
199.4064	0.7641
199.624	0.7332
199.8416	0.7662
200.0592	0.7473
200.2767	0.8574
200.4943	0.8941
200.7119	0.8215
200.9294	1.0275
201.1469	0.9286
201.3645	0.6854
201.582	0.821
201.7995	0.7827
202.017	1.0149
202.2344	0.8223
202.4519	0.9244
202.6694	0.8585
202.8868	0.939
203.1042	0.8973
203.3217	0.8913
203.5391	1.0569
203.7565	0.9623
203.9739	0.8446
204.1913	0.9466
204.4086	0.9725
204.626	0.9665
204.8433	0.9616
205.0607	1.004
205.278	1.0841
205.4953	1.0613
205.7126	0.9584
205.9299	1.0273
206.1472	0.9957
206.3644	1.0261
206.5817	1.1006
206.7989	1.0203
207.0162	1.0646
207.2334	0.944
207.4506	1.0129
207.6678	1.0732
207.885	1.0997
208.1022	1.0367
208.3194	1.1062
208.5365	1.0655
208.7537	1.0401
208.9708	0.9869
209.1879	1.1517
209.405	1.1529
209.6222	1.0923
209.8392	1.1082
210.0563	1.0016
210.2734	1.0944
210.4905	1.238
210.7075	0.9572
210.9245	1.0102
211.1416	1.1398
211.3586	1.0903
211.5756	1.1274
211.7926	1.1423
212.0096	1.0915
212.2265	1.0312
212.4435	1.0649
212.6604	1.0544
212.8774	1.0526
213.0943	1.0567
213.3112	0.9814
213.5281	1.0279
213.745	1.0276
213.9619	0.9417
214.1788	0.9529
214.3956	1.0174
214.6125	0.9474
214.8293	0.8817
215.0461	0.8599
215.2629	0.9296
215.4798	0.8627
215.6965	0.8743
215.9133	0.8316
216.1301	0.8108
216.3469	0.8053
216.5636	0.7798
216.7803	0.7693
216.9971	0.7889
217.2138	0.7045
217.4305	0.7362
217.6472	0.6947
217.8639	0.6443
218.0805	0.6052
218.2972	0.5759
218.5138	0.5472
218.7305	0.5005
218.9471	0.4674
219.1637	0.4801
219.3803	0.4227
219.5969	0.4027
219.8135	0.3745
220.0301	0.3732
220.2466	0.3719
220.4632	0.3225
220.6797	0.3201
220.8962	0.3246
221.1127	0.3145
221.3292	0.2978
221.5457	0.2826
221.7622	0.2794
221.9787	0.2915
222.1951	0.2811
222.4116	0.2633
222.628	0.2834
222.8444	0.2741
223.0608	0.2716
223.2772	0.2628
223.4936	0.2625
223.71	0.2706
223.9264	0.2828
224.1427	0.2624
224.3591	0.2754
224.5754	0.2733
224.7917	0.2685
225.008	0.2708
225.2243	0.2812
225.4406	0.2818
225.6569	0.289
225.8732	0.2905
226.0894	0.2675
226.3057	0.2952
226.5219	0.2806
226.7381	0.2801
226.9543	0.2888
227.1705	0.2891
227.3867	0.2995
227.6029	0.3086
227.8191	0.3059
228.0352	0.3041
228.2513	0.3109
228.4675	0.3095
228.6836	0.3052
228.8997	0.3186
229.1158	0.3189
229.3319	0.3286
229.548	0.3116
229.764	0.324
229.9801	0.3276
230.1961	0.342
230.4121	0.3482
230.6282	0.3346
230.8442	0.3485
231.0602	0.3427
231.2761	0.3484
231.4921	0.3444
231.7081	0.3579
231.924	0.3688
232.14	0.3683
232.3559	0.3642
232.5718	0.3625
232.7877	0.3542
233.0036	0.3589
233.2195	0.3674
233.4353	0.37
233.6512	0.3779
233.867	0.3763
234.0829	0.3819
234.2987	0.3911
234.5145	0.3702
234.7303	0.3953
234.9461	0.3894
235.1619	0.3816
235.3776	0.377
235.5934	0.3947
235.8091	0.3912
236.0249	0.3846
236.2406	0.3906
236.4563	0.3889
236.672	0.3977
236.8877	0.4079
237.1034	0.4008
237.319	0.4121
237.5347	0.3952
237.7503	0.4173
237.966	0.4126
238.1816	0.4084
238.3972	0.4093
238.6128	0.4141
238.8284	0.4093
239.0439	0.4075
239.2595	0.4249
239.475	0.4225
239.6906	0.4202
239.9061	0.4133
240.1216	0.4193
240.3371	0.4133
240.5526	0.4233
240.7681	0.4088
240.9836	0.4179
241.199	0.4066
241.4145	0.4072
241.6299	0.4138
241.8453	0.4083
242.0607	0.37
242.2761	0.3964
242.4915	0.39
242.7069	0.3924
242.9223	0.3737
243.1376	0.3726
243.353	0.3595
243.5683	0.3683
243.7836	0.3531
243.9989	0.3479
244.2142	0.3433
244.4295	0.3333
244.6448	0.3304
244.86	0.3273
245.0753	0.3076
245.2905	0.2935
245.5057	0.3089
245.721	0.3123
245.9362	0.283
246.1514	0.2892
246.3665	0.2982
246.5817	0.2834
246.7969	0.2836
247.012	0.2788
247.2271	0.2632
247.4423	0.2679
247.6574	0.2611
247.8725	0.2522
248.0876	0.2625
248.3026	0.2551
248.5177	0.2494
248.7328	0.2317
248.9478	0.2403
249.1628	0.2359
249.3779	0.2372
249.5929	0.2298
249.8079	0.2373
250.0228	0.2273
250.2378	0.2301
250.4528	0.2111
250.6677	0.2256
250.8827	0.2178
251.0976	0.2233
251.3125	0.211
251.5274	0.2074
251.7423	0.2161
251.9572	0.2113
252.172	0.2112
252.3869	0.2123
252.6017	0.2079
252.8166	0.2007
253.0314	0.2109
253.2462	0.2037
253.461	0.2032
253.6758	0.2024
253.8906	0.1981
254.1053	0.2002
254.3201	0.2117
254.5348	0.2006
254.7496	0.2025
254.9643	0.2069
255.179	0.2048
255.3937	0.1989
255.6083	0.2053
255.823	0.191
256.0377	0.1924
256.2523	0.1934
256.467	0.1979
256.6816	0.1902
256.8962	0.2031
257.1108	0.1986
257.3254	0.1982
257.54	0.1929
257.7545	0.1924
257.9691	0.2026
258.1836	0.1902
258.3981	0.198
258.6127	0.1979
258.8272	0.1926
259.0417	0.1966
259.2561	0.2039
259.4706	0.1906
259.6851	0.1956
259.8995	0.1901
260.114	0.1883
260.3284	0.2023
260.5428	0.1935
260.7572	0.1984
260.9716	0.199
261.186	0.1962
261.4003	0.2005
261.6147	0.2036
261.829	0.2085
262.0433	0.2034
262.2577	0.1988
262.472	0.1973
262.6863	0.1874
262.9005	0.2003
263.1148	0.1952
263.3291	0.1894
263.5433	0.1883
263.7576	0.19
263.9718	0.1902
264.186	0.1878
264.4002	0.1875
264.6144	0.1853
264.8286	0.1857
265.0427	0.1869
265.2569	0.1831
265.471	0.1844
265.6851	0.1764
265.8993	0.173
266.1134	0.1791
266.3275	0.1828
266.5415	0.1736
266.7556	0.1834
266.9697	0.1773
267.1837	0.1796
267.3978	0.1918
267.6118	0.1909
267.8258	0.1961
268.0398	0.191
268.2538	0.1925
268.4677	0.197
268.6817	0.2013
268.8957	0.1886
269.1096	0.1806
269.3235	0.1833
269.5374	0.1767
269.7514	0.1703
269.9652	0.1712
270.1791	0.1637
270.393	0.1651
270.6068	0.1555
270.8207	0.1495
271.0345	0.1653
271.2483	0.1555
271.4622	0.1608
271.676	0.1493
271.8897	0.1481
272.1035	0.146
272.3173	0.151
272.531	0.1483
272.7448	0.1472
272.9585	0.1413
273.1722	0.1448
273.3859	0.146
273.5996	0.1384
273.8133	0.1515
274.0269	0.1508
274.2406	0.1443
274.4542	0.1459
274.6679	0.1483
274.8815	0.1414
275.0951	0.151
275.3087	0.1421
275.5223	0.141
275.7358	0.145
275.9494	0.1509
276.1629	0.1494
276.3765	0.1445
276.59	0.1569
276.8035	0.1486
277.017	0.1482
277.2305	0.1452
277.444	0.1442
277.6574	0.1515
277.8709	0.1564
278.0843	0.1516
278.2978	0.1549
278.5112	0.158
278.7246	0.1462
278.938	0.1462
279.1513	0.1503
279.3647	0.1552
279.5781	0.149
279.7914	0.1567
280.0047	0.1514
280.2181	0.1531
280.4314	0.15
280.6447	0.1543
280.8579	0.1555
281.0712	0.1551
281.2845	0.1497
281.4977	0.1553
281.711	0.146
281.9242	0.1577
282.1374	0.1531
282.3506	0.1502
282.5638	0.1596
282.7769	0.1595
282.9901	0.1542
283.2033	0.1618
283.4164	0.1568
283.6295	0.1635
283.8426	0.1587
284.0557	0.1572
284.2688	0.1576
284.4819	0.1549
284.695	0.1521
284.908	0.1603
285.1211	0.164
285.3341	0.1568
285.5471	0.1654
285.7601	0.1585
285.9731	0.1537
286.1861	0.1583
286.3991	0.154
286.612	0.1641
286.825	0.1622
287.0379	0.1601
287.2508	0.1543
287.4637	0.1689
287.6766	0.1574
287.8895	0.1644
288.1024	0.1606
288.3152	0.159
288.5281	0.1559
288.7409	0.1574
288.9538	0.1615
289.1666	0.1586
289.3794	0.1518
289.5922	0.1615
289.8049	0.1579
290.0177	0.1613
290.2304	0.1547
290.4432	0.163
290.6559	0.1586
290.8686	0.157
291.0813	0.1629
291.294	0.1603
291.5067	0.1517
291.7194	0.153
291.932	0.1541
292.1447	0.1543
292.3573	0.1568
292.5699	0.165
292.7825	0.1624
292.9951	0.1585
293.2077	0.1554
293.4203	0.1584
293.6328	0.1648
293.8454	0.1508
294.0579	0.1629
294.2704	0.162
294.4829	0.1667
294.6954	0.1575
294.9079	0.1638
295.1204	0.1567
295.3328	0.1538
295.5453	0.1556
295.7577	0.1586
295.9701	0.1566
296.1825	0.1622
296.3949	0.1514
296.6073	0.1666
296.8197	0.1544
297.0321	0.1601
297.2444	0.1551
297.4567	0.1487
297.6691	0.1614
297.8814	0.1585
298.0937	0.1579
298.306	0.1547
298.5182	0.1464
298.7305	0.1594
298.9428	0.1565
299.155	0.1569
299.3672	0.1566
299.5794	0.163
299.7916	0.1544
300.0038	0.1523
300.216	0.1583
300.4282	0.1581
300.6403	0.1525
300.8525	0.1537
301.0646	0.1574
301.2767	0.161
301.4888	0.1506
301.7009	0.1572
301.913	0.1554
302.125	0.1548
302.3371	0.1578
302.5491	0.1514
302.7612	0.1646
302.9732	0.1627
303.1852	0.1541
303.3972	0.1501
303.6092	0.1487
303.8211	0.1573
304.0331	0.1509
304.245	0.1539
304.457	0.1518
304.6689	0.1494
304.8808	0.1482
305.0927	0.1508
305.3046	0.148
305.5164	0.1522
305.7283	0.1491
305.9401	0.1523
306.152	0.1461
306.3638	0.1547
306.5756	0.1407
306.7874	0.1472
306.9992	0.1411
307.2109	0.1356
307.4227	0.1371
307.6344	0.1319
307.8462	0.1316
308.0579	0.1295
308.2696	0.1246
308.4813	0.1374
308.693	0.1325
308.9046	0.1265
309.1163	0.1196
309.328	0.1217
309.5396	0.1226
309.7512	0.1243
309.9628	0.1253
310.1744	0.1267
310.386	0.1108
310.5976	0.1155
310.8091	0.1133
311.0207	0.1156
311.2322	0.1161
311.4437	0.1184
311.6552	0.1102
311.8667	0.1085
312.0782	0.1109
312.2897	0.1016
312.5012	0.1144
312.7126	0.1069
312.924	0.1006
313.1355	0.106
313.3469	0.1038
313.5583	0.1119
313.7696	0.108
313.981	0.102
314.1924	0.1033
314.4037	0.1022
314.6151	0.1002
314.8264	0.1006
315.0377	0.0995
315.249	0.1033
315.4603	0.0966
315.6716	0.1025
315.8828	0.103
316.0941	0.1021
316.3053	0.0931
316.5165	0.0965
316.7277	0.0943
316.9389	0.1047
317.1501	0.095
317.3613	0.0948
317.5724	0.0948
317.7836	0.085
317.9947	0.0994
318.2058	0.0926
318.417	0.0918
318.6281	0.0993
318.8391	0.094
319.0502	0.0983
319.2613	0.0977
319.4723	0.098
319.6834	0.0953
319.8944	0.1028
320.1054	0.0987
320.3164	0.1045
320.5274	0.1044
320.7383	0.0911
320.9493	0.0945
321.1602	0.0991
321.3712	0.1034
321.5821	0.1012
321.793	0.0982
322.0039	0.0985
322.2148	0.0988
322.4257	0.0934
322.6365	0.0937
322.8474	0.1008
323.0582	0.1153
323.269	0.1085
323.4798	0.1022
323.6906	0.1051
323.9014	0.1006
324.1122	0.1053
324.3229	0.1037
324.5337	0.092
324.7444	0.0999
324.9551	0.1062
325.1658	0.1044
325.3765	0.097
325.5872	0.0962
325.7979	0.1016
326.0085	0.1038
326.2192	0.11
326.4298	0.11
326.6404	0.1071
326.851	0.0997
327.0616	0.1084
327.2722	0.1017
327.4828	0.1004
327.6933	0.1022
327.9039	0.1061
328.1144	0.1055
328.3249	0.106
328.5354	0.1049
328.7459	0.102
328.9564	0.1034
329.1669	0.102
329.3773	0.1065
329.5878	0.1146
329.7982	0.1112
330.0086	0.1105
330.219	0.1018
330.4294	0.1018
330.6398	0.1127
330.8502	0.1088
331.0605	0.1081
331.2708	0.1081
331.4812	0.1074
331.6915	0.104
331.9018	0.0993
332.1121	0.1157
332.3224	0.1058
332.5326	0.1036
332.7429	0.1067
332.9531	0.1118
333.1633	0.1144
333.3735	0.1137
333.5837	0.107
333.7939	0.1109
334.0041	0.1083
334.2143	0.105
334.4244	0.1059
334.6346	0.0951
334.8447	0.1133
335.0548	0.108
335.2649	0.1023
335.475	0.1013
335.685	0.1163
335.8951	0.114
336.1051	0.108
336.3152	0.1065
336.5252	0.1073
336.7352	0.108
336.9452	0.106
337.1552	0.1106
337.3652	0.1056
337.5751	0.1116
337.7851	0.1056
337.995	0.1086
338.2049	0.1051
338.4148	0.1146
338.6247	0.1077
338.8346	0.1061
339.0445	0.1137
339.2543	0.1199
339.4642	0.1116
339.674	0.1147
339.8838	0.1037
340.0936	0.1232
340.3034	0.1149
340.5132	0.1111
340.7229	0.1285
340.9327	0.1205
341.1424	0.1168
341.3522	0.1081
341.5619	0.1275
341.7716	0.1214
341.9813	0.1245
342.1909	0.1268
342.4006	0.117
342.6102	0.1166
342.8199	0.1204
343.0295	0.1217
343.2391	0.1296
343.4487	0.1278
343.6583	0.1327
343.8679	0.1214
344.0774	0.1256
344.287	0.1353
344.4965	0.1285
344.706	0.1338
344.9155	0.131
345.125	0.1322
345.3345	0.1285
345.544	0.1234
345.7534	0.1244
345.9629	0.13
346.1723	0.1352
346.3817	0.1356
346.5911	0.1342
346.8005	0.1307
347.0099	0.1262
347.2193	0.1391
347.4286	0.1408
347.638	0.1306
347.8473	0.1354
348.0566	0.1473
348.2659	0.1319
348.4752	0.1364
348.6845	0.1394
348.8937	0.135
349.103	0.1338
349.3122	0.1393
349.5214	0.1409
349.7306	0.138
349.9398	0.1291
350.149	0.1345
350.3582	0.1334
350.5674	0.1433
350.7765	0.1429
350.9856	0.137
351.1948	0.151
351.4039	0.1418
351.613	0.1272
351.822	0.1458
352.0311	0.1434
352.2402	0.1383
352.4492	0.1406
352.6582	0.1377
352.8672	0.1461
353.0762	0.1507
353.2852	0.154
353.4942	0.1561
353.7032	0.1403
353.9121	0.1507
354.1211	0.1479
354.33	0.1393
354.5389	0.1447
354.7478	0.1491
354.9567	0.1416
355.1655	0.1389
355.3744	0.1547
355.5833	0.1517
355.7921	0.1544
356.0009	0.1448
356.2097	0.1576
356.4185	0.1485
356.6273	0.1684
356.8361	0.1537
357.0448	0.1689
357.2536	0.15
357.4623	0.1531
357.671	0.17
357.8797	0.1641
358.0884	0.1594
358.2971	0.1618
358.5057	0.1649
358.7144	0.1566
358.923	0.1706
359.1316	0.1676
359.3402	0.1681
359.5488	0.1623
359.7574	0.1683
359.966	0.1664
360.1746	0.1717
360.3831	0.178
360.5916	0.1724
360.8002	0.1811
361.0087	0.1726
361.2172	0.1737
361.4256	0.1708
361.6341	0.1776
361.8426	0.1817
362.051	0.1681
362.2594	0.1691
362.4678	0.1737
362.6762	0.1822
362.8846	0.1844
363.093	0.18
363.3014	0.1807
363.5097	0.1876
363.718	0.1887
363.9264	0.1732
364.1347	0.2014
364.343	0.1804
364.5513	0.1857
364.7595	0.1898
364.9678	0.1909
365.176	0.1917
365.3842	0.1851
365.5925	0.1912
365.8007	0.1796
366.0089	0.1985
366.217	0.1957
366.4252	0.202
366.6333	0.1985
366.8415	0.1922
367.0496	0.2002
367.2577	0.1962
367.4658	0.1951
367.6739	0.2066
367.882	0.2
368.09	0.2044
368.2981	0.211
368.5061	0.1915
368.7141	0.1943
368.9221	0.1976
369.1301	0.2074
369.3381	0.2023
369.5461	0.2086
369.754	0.2094
369.962	0.2042
370.1699	0.2125
370.3778	0.2062
370.5857	0.2056
370.7936	0.2174
371.0015	0.2141
371.2093	0.2035
371.4172	0.2125
371.625	0.2096
371.8328	0.2363
372.0406	0.2313
372.2484	0.2184
372.4562	0.2146
372.664	0.2196
372.8717	0.214
373.0795	0.2128
373.2872	0.2176
373.4949	0.2088
373.7026	0.2128
373.9103	0.2121
374.118	0.2307
374.3256	0.2115
374.5333	0.2178
374.7409	0.2184
374.9485	0.228
375.1561	0.2275
375.3637	0.2207
375.5713	0.2227
375.7789	0.2152
375.9864	0.2236
376.194	0.2323
376.4015	0.2324
376.609	0.225
376.8165	0.2271
377.024	0.2172
377.2315	0.2277
377.4389	0.2214
377.6464	0.2199
377.8538	0.2261
378.0612	0.2321
378.2686	0.2362
378.476	0.2205
378.6834	0.2311
378.8908	0.2427
379.0981	0.2294
379.3055	0.2313
379.5128	0.2302
379.7201	0.239
379.9274	0.2323
380.1347	0.2408
380.342	0.2471
380.5492	0.2318
380.7565	0.2288
380.9637	0.2442
381.1709	0.2404
381.3781	0.2298
381.5853	0.2386
381.7925	0.2373
381.9997	0.2406
382.2068	0.2372
382.4139	0.2386
382.6211	0.2376
382.8282	0.2417
383.0353	0.2409
383.2424	0.2321
383.4494	0.2629
383.6565	0.2436
383.8635	0.2523
384.0706	0.2396
384.2776	0.2488
384.4846	0.2495
384.6916	0.2407
384.8986	0.2448
385.1055	0.2551
385.3125	0.2656
385.5194	0.2519
385.7263	0.2498
385.9333	0.2478
386.1402	0.24
386.347	0.2604
386.5539	0.2457
386.7608	0.2451
386.9676	0.2434
387.1744	0.2342
387.3813	0.2365
387.5881	0.2355
387.7948	0.2382
388.0016	0.2443
388.2084	0.2582
388.4151	0.2411
388.6219	0.239
388.8286	0.2416
389.0353	0.2326
389.242	0.2299
389.4487	0.2377
389.6553	0.2345
389.862	0.227
390.0686	0.2295
390.2753	0.2385
390.4819	0.2258
390.6885	0.2367
390.8951	0.2324
391.1016	0.2322
391.3082	0.2358
391.5147	0.2285
391.7213	0.2273
391.9278	0.2174
392.1343	0.2235
392.3408	0.2152
392.5473	0.2233
392.7537	0.2248
392.9602	0.2225
393.1666	0.219
393.373	0.2194
393.5794	0.2208
393.7858	0.2072
393.9922	0.2148
394.1986	0.2215
394.4049	0.2175
394.6113	0.2177
394.8176	0.202
395.0239	0.2053
395.2302	0.2067
395.4365	0.2116
395.6428	0.2033
395.8491	0.209
396.0553	0.2056
396.2615	0.2102
396.4678	0.2233
396.674	0.2025
396.8802	0.2046
397.0863	0.2068
397.2925	0.2128
397.4987	0.2012
397.7048	0.1903
397.9109	0.2071
398.117	0.1931
398.3231	0.2054
398.5292	0.1957
398.7353	0.2058
398.9413	0.1977
399.1474	0.1979
399.3534	0.1954
399.5594	0.2013
399.7654	0.1964
399.9714	0.1972
400.1774	0.1999
400.3833	0.1947
400.5893	0.197
400.7952	0.191
401.0011	0.2124
401.207	0.2024
401.4129	0.1852
401.6188	0.1976
401.8247	0.1949
402.0305	0.1933
402.2364	0.199
402.4422	0.2017
402.648	0.2123
402.8538	0.1958
403.0596	0.185
403.2654	0.1893
403.4711	0.1854
403.6768	0.2066
403.8826	0.1959
404.0883	0.2028
404.294	0.1999
404.4997	0.1993
404.7054	0.2012
404.911	0.2043
405.1167	0.2076
405.3223	0.2055
405.5279	0.1927
405.7335	0.1968
405.9391	0.1986
406.1447	0.2021
406.3502	0.1952
406.5558	0.1936
406.7613	0.1922
406.9668	0.2019
407.1724	0.1966
407.3778	0.2153
407.5833	0.1911
407.7888	0.2061
407.9942	0.2037
408.1997	0.1972
408.4051	0.1901
408.6105	0.2005
408.8159	0.2124
409.0213	0.1923
409.2267	0.2006
409.432	0.2136
409.6374	0.1945
409.8427	0.2097
410.048	0.191
410.2533	0.1849
410.4586	0.2007
410.6639	0.1876
410.8691	0.1901
411.0744	0.1978
411.2796	0.1906
411.4848	0.1747
411.69	0.1976
411.8952	0.2076
412.1004	0.1843
412.3056	0.2016
412.5107	0.2078
412.7158	0.2062
412.921	0.1913
413.1261	0.1867
413.3312	0.208
413.5362	0.1955
413.7413	0.1898
413.9464	0.1903
414.1514	0.1906
414.3564	0.1908
414.5614	0.2009
414.7664	0.1988
414.9714	0.1781
415.1764	0.1837
415.3813	0.1924
415.5863	0.1885
415.7912	0.192
415.9961	0.1958
416.201	0.1955
416.4059	0.1869
416.6108	0.1941
416.8156	0.1725
417.0205	0.1913
417.2253	0.1913
417.4301	0.199
417.6349	0.1894
417.8397	0.1753
418.0445	0.1918
418.2492	0.1805
418.454	0.1914
418.6587	0.1841
418.8634	0.1838
419.0681	0.182
419.2728	0.1912
419.4775	0.1763
419.6822	0.1933
419.8868	0.1831
420.0915	0.188
420.2961	0.1919
420.5007	0.1865
420.7053	0.1859
420.9099	0.1747
421.1144	0.174
421.319	0.1744
421.5235	0.1834
421.728	0.17
421.9325	0.1713
422.137	0.1744
422.3415	0.1879
422.546	0.1724
422.7504	0.1798
422.9549	0.1799
423.1593	0.1738
423.3637	0.1769
423.5681	0.1735
423.7725	0.1707
423.9769	0.1711
424.1812	0.1744
424.3856	0.1611
424.5899	0.1641
424.7942	0.1634
424.9985	0.1597
425.2028	0.1548
425.4071	0.1628
425.6113	0.1668
425.8156	0.1612
426.0198	0.1747
426.224	0.1522
426.4282	0.1577
426.6324	0.161
426.8366	0.1561
427.0407	0.1499
427.2449	0.1709
427.449	0.1589
427.6531	0.1581
427.8572	0.1408
428.0613	0.1435
428.2654	0.1439
428.4694	0.15
428.6735	0.1612
428.8775	0.1506
429.0815	0.1471
429.2855	0.1536
429.4895	0.1387
429.6935	0.1402
429.8975	0.1337
430.1014	0.1372
430.3053	0.1361
430.5093	0.1393
430.7132	0.1298
430.9171	0.1394
431.1209	0.1332
431.3248	0.1369
431.5286	0.1305
431.7325	0.1288
431.9363	0.127
432.1401	0.1302
432.3439	0.1192
432.5477	0.1272
432.7514	0.1225
432.9552	0.1159
433.1589	0.1171
433.3627	0.1091
433.5664	0.1204
433.7701	0.114
433.9737	0.0966
434.1774	0.1019
434.3811	0.1033
434.5847	0.11
434.7883	0.118
434.9919	0.112
435.1955	0.0818
435.3991	0.1064
435.6027	0.0954
435.8062	0.099
436.0098	0.0998
436.2133	0.0899
436.4168	0.1019
436.6203	0.0957
436.8238	0.0889
437.0272	0.0957
437.2307	0.0921
437.4341	0.0845
437.6375	0.0937
437.841	0.092
438.0443	0.0738
438.2477	0.086
438.4511	0.0857
438.6545	0.0815
438.8578	0.0838
439.0611	0.0711
439.2644	0.0836
439.4677	0.0776
439.671	0.0715
439.8743	0.086
440.0775	0.0673
440.2808	0.0686
440.484	0.0739
440.6872	0.071
440.8904	0.0606
441.0936	0.0628
441.2967	0.0721
441.4999	0.0641
441.703	0.0603
441.9062	0.0642
442.1093	0.0613
442.3124	0.0571
442.5155	0.0509
442.7185	0.0538
442.9216	0.0615
443.1246	0.0598
443.3276	0.0576
443.5307	0.048
443.7337	0.0517
443.9366	0.0558
444.1396	0.0503
444.3426	0.0418
444.5455	0.0434
444.7484	0.0441
444.9513	0.0509
445.1542	0.05
445.3571	0.0384
445.56	0.0403
445.7628	0.0356
445.9657	0.0452
446.1685	0.0459
446.3713	0.0367
446.5741	0.0443
446.7769	0.0364
446.9797	0.0291
447.1824	0.0336
447.3852	0.0403
447.5879	0.0288
447.7906	0.0371
447.9933	0.0343
448.196	0.0337
448.3986	0.0324
448.6013	0.0224
448.8039	0.0299
449.0066	0.0332
449.2092	0.0232
449.4118	0.0214
449.6143	0.0315
449.8169	0.0163
450.0195	0.0171
450.222	0.0193
450.4245	0.0142
450.627	0.026
450.8295	0.0111
451.032	0.0223
451.2345	0.0137
451.4369	0.0213
451.6394	0.023
451.8418	0.0195
452.0442	0.0219
452.2466	0.0213
452.449	0.0111
452.6513	0.0167
452.8537	0.0181
453.056	0.0091
453.2583	0.0181
453.4607	0.0239
453.663	0.0279
453.8652	0.0047
454.0675	0.0218
454.2697	0.0078
454.472	0.0143
454.6742	0.0132
454.8764	0.0226
455.0786	0.0136
455.2808	0.0148
455.4829	0.008
455.6851	0.0006
455.8872	0.0125
456.0893	0.0035
456.2915	-0.002
456.4935	0.0106
456.6956	0.0142
456.8977	0.0098
457.0997	0.0083
457.3018	0.0001
457.5038	0.0061
457.7058	0.0064
457.9078	0.0115
458.1098	0.0094
458.3117	0.0059
458.5137	0.012
458.7156	0.0042
458.9175	-0.0001
459.1194	0.0067
459.3213	0.0053
459.5232	0.0051
459.725	0.0026
459.9269	0.0052
460.1287	0.0069
460.3305	0.0043
460.5323	0.0106
460.7341	0.0034
460.9359	-0.0038
461.1376	0.0038
461.3394	0.0026
461.5411	0.0031
461.7428	-0.006
461.9445	-0.0005
462.1462	-0.0004
462.3479	-0.0058
462.5495	0.0164
462.7512	-0.0013
462.9528	-0.0024
463.1544	0.0022
463.356	0.0094
463.5576	0.0001
463.7592	-0.0013
463.9607	0.0018
464.1623	0.0069
464.3638	0.0052
464.5653	0.0024
464.7668	-0.003
464.9683	0.0132
465.1697	-0.0021
465.3712	-0.0005
465.5726	-0.0037
465.7741	-0.0097
465.9755	-0.0097
466.1769	-0.0144
466.3782	0.0005
466.5796	-0.0008
466.7809	-0.0033
466.9823	-0.0123
467.1836	0.0008
467.3849	0.0109
467.5862	-0.0047
467.7875	-0.0066
467.9887	0.0045
468.19	-0.0059
468.3912	-0.0028
468.5924	0.0057
468.7936	-0.0027
468.9948	0.0102
469.196	0.0048
469.3972	0.0047
469.5983	0.0074
469.7994	-0.0014
470.0006	-0.009
470.2017	0.0021
470.4027	0.0051
470.6038	0.0025
470.8049	-0.0058
471.0059	0.0078
471.2069	0.0096
471.408	-0.0035
471.6089	-0.0069
471.8099	-0.0115
472.0109	-0.0122
472.2119	-0.0188
472.4128	-0.0007
472.6137	-0.0067
472.8146	-0.0114
473.0155	-0.0083
473.2164	-0.0107
473.4173	-0.0124
473.6181	-0.0028
473.819	-0.0021
474.0198	-0.0067
474.2206	-0.0014
474.4214	-0.0033
474.6222	-0.0058
474.8229	-0.014
475.0237	0.0007
475.2244	0.0059
475.4251	-0.01
475.6258	0.0081
475.8265	-0.0009
476.0272	-0.0081
476.2278	-0.0044
476.4285	-0.0021
476.6291	0.0026
476.8297	-0.0037
477.0303	-0.003
477.2309	-0.0012
477.4315	0.0037
477.632	-0.0049
477.8326	-0.0033
478.0331	0.0012
478.2336	0.0004
478.4341	-0.0121
478.6346	0.0021
478.8351	-0.005
479.0355	-0.0035
479.236	0.0005
479.4364	-0.0096
479.6368	0.0035
479.8372	-0.0033
480.0376	0.0006
480.2379	-0.0007
480.4383	0.0001
480.6386	-0.0146
480.8389	-0.0081
481.0392	-0.0119
481.2395	-0.019
481.4398	-0.0011
481.6401	-0.0097
481.8403	-0.0067
482.0405	-0.0107
482.2408	-0.0003
482.441	-0.0103
482.6411	0.0004
482.8413	-0.0118
483.0415	-0.0031
483.2416	-0.0019
483.4417	-0.0089
483.6419	-0.0065
483.8419	-0.0077
484.042	-0.0022
484.2421	-0.0034
484.4422	-0.0036
484.6422	-0.0152
484.8422	-0.0098
485.0422	-0.0044
485.2422	-0.0076
485.4422	-0.0049
485.6422	0.0009
485.8421	-0.0052
486.042	-0.0074
486.242	-0.0077
486.4419	-0.0077
486.6417	-0.0077
486.8416	-0.0053
487.0415	-0.0002
487.2413	-0.0024
487.4411	-0.0045
487.641	-0.0014
487.8408	-0.0119
488.0405	-0.0095
488.2403	-0.0069
488.4401	-0.0059
488.6398	-0.0048
488.8395	-0.0075
489.0392	-0.0072
489.2389	-0.005
489.4386	-0.0043
489.6383	-0.0073
489.8379	-0.0083
490.0376	-0.0012
490.2372	0.0009
490.4368	-0.0111
490.6364	0.0017
490.836	-0.009
491.0355	-0.0061
491.2351	-0.0112
491.4346	-0.0057
491.6341	-0.0063
491.8336	-0.0048
492.0331	-0.0141
492.2326	-0.0103
492.432	-0.0067
492.6315	-0.0028
492.8309	0.0001
493.0303	-0.0101
493.2297	0.002
493.4291	-0.0106
493.6284	0.0018
493.8278	-0.0033
494.0271	-0.0013
494.2264	-0.0016
494.4257	-0.0001
494.625	0.0021
494.8243	0.0001
495.0236	-0.0129
495.2228	-0.0067
495.422	-0.0019
495.6213	-0.0057
495.8205	-0.002
496.0196	-0.0116
496.2188	-0.0064
496.418	-0.0009
496.6171	-0.0019
496.8162	-0.0107
497.0153	0.0052
497.2144	-0.006
497.4135	-0.0031
497.6126	-0.0006
497.8116	0.0025
498.0107	-0.0028
498.2097	-0.0063
498.4087	-0.0031
498.6077	-0.0082
498.8067	-0.0067
499.0056	0.0013
499.2046	-0.0041
499.4035	-0.0038
499.6024	-0.002
499.8013	-0.002
500.0002	-0.0093
500.199	-0.0054
500.3979	-0.0026
500.5967	-0.0092
500.7956	-0.0088
500.9944	-0.0044
501.1932	-0.0091
501.3919	-0.0134
501.5907	-0.0064
501.7895	-0.0032
501.9882	-0.0079
502.1869	-0.0074
502.3856	-0.0047
502.5843	-0.012
502.783	-0.0085
502.9816	-0.0087
503.1803	-0.0091
503.3789	-0.0007
503.5775	-0.0011
503.7761	-0.0076
503.9747	-0.007
504.1732	-0.0047
504.3718	-0.0075
504.5703	-0.0007
504.7689	-0.002
504.9674	-0.0054
505.1658	-0.0094
505.3643	-0.0043
505.5628	0.0002
505.7612	-0.0095
505.9597	0.0025
506.1581	-0.0043
506.3565	-0.0029
506.5549	-0.0057
506.7532	-0.0115
506.9516	-0.0036
507.1499	-0.0088
507.3482	-0.0014
507.5465	-0.0056
507.7448	-0.0001
507.9431	-0.0061
508.1414	-0.0068
508.3396	0.0007
508.5379	-0.0029
508.7361	0.004
508.9343	-0.0093
509.1325	-0.0038
509.3306	-0.0007
509.5288	0.0018
509.7269	-0.0045
509.9251	-0.006
510.1232	-0.0049
510.3213	-0.016
510.5193	0.0018
510.7174	-0.0019
510.9154	-0.0025
511.1135	-0.0031
511.3115	-0.0061
511.5095	-0.0104
511.7075	-0.001
511.9055	-0.0095
512.1034	-0.0036
512.3014	-0.0041
512.4993	-0.008
512.6972	-0.0081
512.8951	-0.009
513.093	-0.0137
513.2908	0.0019
513.4887	-0.0046
513.6865	-0.009
513.8844	-0.0008
514.0822	-0.0039
514.2799	-0.0063
514.4777	-0.0062
514.6755	0.0043
514.8732	-0.006
515.0709	-0.0059
515.2687	-0.0069
515.4664	-0.0028
515.664	-0.0028
515.8617	-0.0095
516.0594	-0.0054
516.257	0.0041
516.4546	-0.0168
516.6522	-0.0052
516.8498	-0.0125
517.0474	0.0032
517.2449	-0.0075
517.4425	0.0009
517.64	-0.0047
517.8375	-0.004
518.035	-0.0045
518.2325	-0.0043
518.43	-0.0063
518.6274	-0.0079
518.8249	-0.0061
519.0223	-0.0082
519.2197	-0.0102
519.4171	-0.0025
519.6145	-0.0107
519.8118	-0.0102
520.0092	-0.0045
520.2065	-0.0072
520.4038	-0.0017
520.6011	-0.0129
520.7984	-0.0047
520.9956	-0.0092
521.1929	-0.0084
521.3901	-0.0057
521.5874	-0.0012
521.7846	0.0008
521.9818	0.0059
522.1789	-0.0046
522.3761	-0.0028
522.5732	0.0009
522.7704	-0.0051
522.9675	-0.0041
523.1646	-0.0024
523.3617	-0.0004
523.5587	-0.0067
523.7558	-0.0015
523.9528	-0.0106
524.1498	-0.0095
524.3468	0.0003
524.5438	-0.0098
524.7408	-0.0111
524.9378	-0.0041
525.1347	0.0024
525.3316	0.0024
525.5285	-0.0034
525.7254	-0.0109
525.9223	-0.0045
526.1192	-0.0084
526.316	-0.0031
526.5129	-0.0046
526.7097	-0.0046
526.9065	-0.0003
527.1033	-0
527.3	-0.0035
527.4968	-0.0122
527.6935	-0.0068
527.8903	-0.0049
528.087	-0.013
528.2837	-0.004
528.4804	-0.0054
528.677	0.0033
528.8737	-0.0084
529.0703	-0.0011
529.2669	0.0037
529.4635	-0.004
529.6601	-0.0029
529.8567	0.0003
530.0532	-0.0031
530.2498	-0.0045
530.4463	-0.0018
530.6428	0.0076
530.8393	-0.003
531.0358	-0.0118
531.2322	-0.0113
531.4287	-0.0119
531.6251	-0.0036
531.8215	-0.0067
532.0179	-0.0102
532.2143	-0.0057
532.4107	-0.004
532.607	-0.0065
532.8034	-0.0117
532.9997	-0.0066
533.196	-0.0041
533.3923	-0.0021
533.5886	-0.0039
533.7848	-0.002
533.9811	-0.0032
534.1773	-0.0059
534.3735	-0.0012
534.5697	-0.0081
534.7659	-0.0007
534.9621	0.0014
535.1582	-0.0075
535.3544	-0.0108
535.5505	-0.0046
535.7466	-0
535.9427	-0.0007
536.1387	-0.0009
536.3348	0.0026
536.5308	-0.0057
536.7269	-0.0008
536.9229	-0.0054
537.1189	-0.008
537.3148	-0.0035
537.5108	0.0022
537.7068	-0.0072
537.9027	-0.0013
538.0986	-0.0065
538.2945	-0.0015
538.4904	-0.004
538.6863	-0.0056
538.8821	-0.0057
539.078	-0.0065
539.2738	-0.0107
539.4696	-0.0077
539.6654	-0.0049
539.8611	-0.0041
540.0569	-0.0043
540.2526	-0.0061
540.4484	0.0059
540.6441	0.0024
540.8398	-0.005
541.0355	-0.0019
541.2311	-0.0029
541.4268	-0.002
541.6224	-0.0037
541.818	-0.0026
542.0136	-0.0042
542.2092	-0.0058
542.4048	-0.0047
542.6003	-0.005
542.7959	0.0031
542.9914	-0.0052
543.1869	-0.0033
543.3824	-0.0079
543.5779	-0.0064
543.7734	-0.0088
543.9688	-0.0152
544.1642	-0.0032
544.3596	-0.003
544.555	-0.0089
544.7504	-0.0056
544.9458	-0.0055
545.1411	0.0019
545.3365	-0.0003
545.5318	0.0034
545.7271	-0.0026
545.9224	-0.0025
546.1177	-0.0041
546.3129	0.0009
546.5081	-0.0087
546.7034	-0.0051
546.8986	0.0007
547.0938	-0.0055
547.289	-0.0047
547.4841	-0.0131
547.6793	-0.0089
547.8744	0.0003
548.0695	-0.0043
548.2646	-0.006
548.4597	0.0005
548.6548	-0.0023
548.8498	-0.0047
549.0448	-0.0023
549.2399	-0.0044
549.4349	-0.0027
549.6298	-0.0055
549.8248	-0.0038
550.0198	-0.0016
550.2147	0.0014
550.4096	-0.0085
550.6045	-0.0044
550.7994	-0.0022
550.9943	-0.0024
551.1892	-0.0033
551.384	-0.0106
551.5788	-0.0105
551.7737	0.0004
551.9685	-0.0022
552.1632	-0.0069
552.358	-0.0122
552.5528	-0.0033
552.7475	-0.01
552.9422	-0.0067
553.1369	-0.0085
553.3316	-0.0002
553.5263	0.0008
553.7209	-0.009
553.9156	0.0012
554.1102	-0.0074
554.3048	-0.0067
554.4994	-0.0056
554.694	0.0014
554.8885	-0.0014
555.0831	-0.0047
555.2776	-0.0022
555.4721	-0.0037
555.6666	-0.0039
555.8611	-0.0044
556.0555	-0.0102
556.25	-0.0045
556.4444	-0.0059
556.6388	-0.0048
556.8332	-0.0111
557.0276	-0.0083
557.222	-0.0047
557.4163	-0.0001
557.6107	-0.0065
557.805	-0.0026
557.9993	-0.0018
558.1936	-0.0019
558.3879	0.0011
558.5821	-0.01
558.7764	-0.0067
558.9706	-0.0008
559.1648	-0.001
559.359	-0.0088
559.5532	-0.0064
559.7473	-0.0048
559.9415	-0.0079
560.1356	-0.0076
560.3297	-0.0103
560.5238	-0.0027
560.7179	-0.0049
560.9119	0.0024
561.106	0.0046
561.3	-0.0023
561.494	-0.0047
561.688	-0.0042
561.882	-0.0026
562.076	-0.008
562.2699	-0.0054
562.4639	-0.0057
562.6578	-0.011
562.8517	-0.0011
563.0456	-0.0061
563.2395	-0.0065
563.4333	-0.004
563.6272	-0.0056
563.821	-0.0046
564.0148	0.0017
564.2086	-0.0071
564.4024	-0.0054
564.5961	-0.0042
564.7899	-0.002
564.9836	-0.0001
565.1773	-0.0051
565.371	0.0046
565.5647	-0.004
565.7584	0.0021
565.952	0.0012
566.1456	-0.0015
566.3393	-0.0043
566.5329	-0.0007
566.7264	0.0068
566.92	-0.0012
567.1136	-0.0057
567.3071	-0.0008
567.5006	-0.0008
567.6941	-0.0035
567.8876	-0.0029
568.0811	-0.0053
568.2745	-0.0052
568.468	-0.0015
568.6614	-0.0082
568.8548	-0.0086
569.0482	-0.0076
569.2416	-0.0031
569.4349	-0.0018
569.6283	-0.011
569.8216	-0.0065
570.0149	-0.0069
570.2082	-0.0063
570.4015	0.0015
570.5947	-0.0036
570.788	-0.0066
570.9812	-0.0044
571.1744	-0.0091
571.3676	-0.0046
571.5608	-0.0019
571.754	-0.0013
571.9471	-0.0043
572.1402	-0.0017
572.3333	-0.0029
572.5264	-0.0035
572.7195	-0.0042
572.9126	-0.004
573.1057	-0.0071
573.2987	0.0017
573.4917	-0.0067
573.6847	-0.0025
573.8777	-0.0049
574.0707	-0.0025
574.2636	-0.0073
574.4566	-0.005
574.6495	-0.0034
574.8424	-0.0033
575.0353	-0.0029
575.2281	-0.0009
575.421	-0.0091
575.6138	-0.0035
575.8067	-0.0074
575.9995	-0.0032
576.1923	-0.0082
576.385	-0.0068
576.5778	-0.004
576.7706	0.0026
576.9633	0.0012
577.156	0.0001
577.3487	0.0016
577.5414	-0.0011
577.734	0.0053
577.9267	0.0022
578.1193	-0.0016
578.3119	0.0024
578.5045	-0.0076
578.6971	-0.0007
578.8897	-0.0062
579.0822	-0.0059
579.2747	0.0058
579.4673	-0.003
579.6598	-0.0017
579.8522	-0.0012
580.0447	-0.0079
580.2372	0.001
580.4296	0.0033
580.622	0.0069
580.8144	-0.0036
581.0068	-0.0008
581.1992	0.0055
581.3915	-0.0034
581.5839	-0.0023
581.7762	-0.0065
581.9685	-0.002
582.1608	-0.0015
582.353	-0.0002
582.5453	-0.0067
582.7375	-0.0002
582.9298	-0.0043
583.122	0.0023
583.3142	-0.0033
583.5063	-0.0047
583.6985	-0.0052
583.8906	-0.0044
584.0827	0.0004
584.2749	-0.0057
584.4669	-0.0038
584.659	-0.0078
584.8511	-0.0023
585.0431	-0.0045
585.2352	-0.0066
585.4272	-0.0037
585.6192	-0.0053
585.8111	-0.0066
586.0031	0.001
586.195	-0.0062
586.387	0.0034
586.5789	-0.004
586.7708	-0.0063
586.9627	-0.007
587.1545	-0.0043
587.3464	-0.0066
587.5382	-0.0069
587.73	-0.0074
587.9218	-0.0019
588.1136	0
588.3053	-0.0049
588.4971	-0.0095
588.6888	-0.006
588.8805	-0.0025
589.0722	-0.001
589.2639	-0.0024
589.4556	0.0019
589.6472	-0.0044
589.8389	0.0026
590.0305	-0.0047
590.2221	-0.0041
590.4137	-0.0031
590.6052	-0.0001
590.7968	-0.0042
590.9883	-0.0022
591.1798	-0.0064
591.3713	0.0017
591.5628	-0.0062
591.7543	-0.0008
591.9458	-0.0014
592.1372	-0.0045
592.3286	-0.0026
592.52	-0.0063
592.7114	0.0027
592.9028	-0.0038
593.0941	-0.0045
593.2855	-0.0037
593.4768	-0.0014
593.6681	0.0001
593.8594	0.0086
594.0506	0.0003
594.2419	0.0021
594.4331	-0.0054
594.6244	-0.0036
594.8156	-0.007
595.0067	-0.0038
595.1979	-0.0048
595.3891	-0.0038
595.5802	-0.0076
595.7713	-0.0012
595.9624	0.0009
596.1535	0.0019
596.3446	-0.0012
596.5357	-0.0013
596.7267	-0.0031
596.9177	0.002
597.1087	-0.0036
597.2997	0.0014
597.4907	-0.0021
597.6817	0.0006
597.8726	-0.0083
598.0635	-0.005
598.2544	-0.0024
598.4453	-0.0016
598.6362	-0.0063
598.827	-0.009
599.0179	-0.0019
599.2087	-0.0102
599.3995	-0.0087
599.5903	-0.0004
599.7811	-0.0046
599.9718	-0.0012
600.1626	0.0021
600.3533	-0.0007
600.544	-0.0045
600.7347	-0
600.9254	-0.0014
601.116	-0.0064
601.3067	-0.0008
601.4973	-0.0058
601.6879	0.0039
601.8785	-0.0052
602.0691	0.0005
602.2596	-0.0054
602.4502	-0.0043
602.6407	0.0017
602.8312	-0.0019
603.0217	0.001
603.2122	-0.0054
603.4027	-0.0034
603.5931	-0.0036
603.7835	-0.0001
603.9739	-0.0031
604.1643	0.0009
604.3547	0.0012
604.5451	-0.0005
604.7354	-0.0017
604.9257	-0.0059
605.116	-0.0005
605.3063	-0.0023
605.4966	-0.0044
605.6869	-0.0016
605.8771	0.0013
606.0673	-0.003
606.2575	-0.0043
606.4477	-0.0038
606.6379	-0.0087
606.8281	-0.0059
607.0182	-0.0111
607.2083	-0.0052
607.3985	-0.0095
607.5885	-0.0008
607.7786	-0.0031
607.9687	-0.0036
608.1587	-0.0056
608.3488	-0.0041
608.5388	0.0014
608.7288	-0.0115
608.9187	-0.0036
609.1087	-0.0077
609.2986	-0.0034
609.4886	-0.0023
609.6785	-0.0029
609.8684	-0.006
610.0582	-0.0034
610.2481	-0.0011
610.4379	-0.0021
610.6278	-0.0013
610.8176	-0.0012
611.0074	-0.0059
611.1971	-0.0048
611.3869	-0.0013
611.5766	-0.0016
611.7664	-0.0012
611.9561	-0
612.1458	0.0006
612.3354	-0.0058
612.5251	-0.0063
612.7147	-0.0039
612.9044	-0.0028
613.094	0.0011
613.2836	-0.0068
613.4731	-0.0081
613.6627	-0.0025
613.8522	-0.0003
614.0417	-0.0078
614.2313	-0.001
614.4207	-0.0039
614.6102	0.0024
614.7997	-0.0059
614.9891	-0.0041
615.1785	-0.005
615.3679	0.0018
615.5573	-0.0018
615.7467	-0.0026
615.9361	0.0006
616.1254	-0.0061
616.3147	-0.0063
616.504	-0.001
616.6933	-0.0026
616.8826	-0.0026
617.0718	-0.0029
617.2611	-0.0002
617.4503	0.0014
617.6395	-0.007
617.8287	0.0025
618.0179	0.0041
618.207	-0.0052
618.3961	-0.0017
618.5853	-0.0009
618.7744	-0.0026
618.9634	0.0014
619.1525	-0.0022
619.3416	-0.0058
619.5306	0.0014
619.7196	0.0046
619.9086	-0.0011
620.0976	-0.0028
620.2866	0.0007
620.4755	-0.0055
620.6645	-0.0033
620.8534	0.0005
621.0423	-0.0097
621.2312	-0.0081
621.42	-0.0001
621.6089	-0.0038
621.7977	-0.0063
621.9865	-0.0039
622.1753	-0.0017
622.3641	0.0011
622.5529	-0.004
622.7416	-0.0042
622.9303	0.0075
623.1191	-0.001
623.3078	-0.0018
623.4964	-0.0033
623.6851	0.0011
623.8737	-0.0005
624.0624	-0.0016
624.251	0.0032
624.4396	0.0005
624.6282	-0
624.8167	-0.0012
625.0053	-0.0007
625.1938	0.0058
625.3823	0.0053
625.5708	0.0009
625.7593	-0.0018
625.9477	-0.0059
626.1362	-0.0007
626.3246	-0.0007
626.513	-0.0042
626.7014	-0.0006
626.8898	-0.0042
627.0781	-0.006
627.2665	-0.0025
627.4548	-0.009
627.6431	-0.0023
627.8314	-0.0017
628.0197	-0.0015
628.2079	0.0049
628.3962	0.0006
628.5844	0.0018
628.7726	-0.0028
628.9608	0.0011
629.1489	0.0031
629.3371	-0.002
629.5252	0.0053
629.7134	0.0021
629.9015	-0.0021
630.0895	-0.005
630.2776	-0.0024
630.4657	-0.0029
630.6537	-0.0034
630.8417	-0.0025
631.0297	-0.0016
631.2177	0.005
631.4057	-0.0008
631.5936	-0
631.7815	-0.0005
631.9695	-0.0016
632.1574	-0.0024
632.3452	-0.0094
632.5331	-0.0029
632.7209	-0.0049
632.9088	-0.0028
633.0966	-0.0012
633.2844	-0.0044
633.4722	-0.0009
633.6599	-0.003
633.8477	-0.0031
634.0354	-0.0053
634.2231	-0.0081
634.4108	-0.0003
634.5985	-0.003
634.7861	-0.0041
634.9738	-0.0071
635.1614	-0.0029
635.349	-0.003
635.5366	-0.0034
635.7242	0.0007
635.9117	0.0026
636.0993	0.0016
636.2868	-0.0025
636.4743	-0.0015
636.6618	-0.0056
636.8492	0.0008
637.0367	-0.0037
637.2241	-0.0055
637.4115	-0.0003
637.5989	0.0009
637.7863	-0.0011
637.9737	-0.0036
638.161	-0.0033
638.3484	-0.0024
638.5357	-0.0022
638.723	-0.0028
638.9103	0.0013
639.0975	0.005
639.2848	0.0002
639.472	0.0016
639.6592	0.0071
639.8464	0.0017
640.0336	-0.0024
640.2208	0.0026
640.4079	-0.0028
640.595	0.0002
640.7821	0.0034
640.9692	0.0022
641.1563	0.0037
641.3434	0.0029
641.5304	0.0004
641.7174	-0.0006
641.9044	0.0017
642.0914	0.0017
642.2784	0.0027
642.4653	0.0023
642.6523	-0.0041
642.8392	0.0052
643.0261	0.004
643.213	0.0003
643.3999	-0.003
643.5867	-0.0002
643.7735	0.0003
643.9604	0.0031
644.1472	-0.0018
644.3339	-0.0011
644.5207	-0.0001
644.7075	-0.005
644.8942	-0.0023
645.0809	-0.0021
645.2676	0.0011
645.4543	0.0011
645.6409	-0.0067
645.8276	-0.0053
646.0142	-0.0042
646.2008	-0.0055
646.3874	-0.003
646.574	-0.0061
646.7605	-0.0028
646.9471	-0.0053
647.1336	-0.0047
647.3201	-0.005
647.5066	-0.0027
647.6931	0.0032
647.8795	-0.0077
648.0659	-0.0036
648.2524	-0.0017
648.4388	-0.0037
648.6252	-0.0017
648.8115	-0.0085
648.9979	-0.0078
649.1842	-0.0086
649.3705	-0.0034
649.5568	-0.0011
649.7431	-0.0014
649.9294	-0.0039
650.1156	-0.0062
650.3018	-0.0051
650.488	-0.0087
650.6742	-0.0038
650.8604	0.0004
651.0466	0.0033
651.2327	-0.0002
651.4188	0.0022
651.6049	-0.0019
651.791	0.001
651.9771	-0.0025
652.1632	0.0038
652.3492	-0.0006
652.5352	-0.0035
652.7212	0.0001
652.9072	0.0042
653.0932	0.0017
653.2791	0.0021
653.465	-0.0027
653.651	-0.0064
653.8369	-0.0019
654.0227	0.0006
654.2086	-0.0006
654.3944	-0.0095
654.5803	-0.0067
654.7661	-0.001
654.9519	0.0004
655.1377	-0.002
655.3234	0.0001
655.5092	0.0001
655.6949	0.0001
655.8806	0.0001
656.0663	0.0001
656.2519	0.0001
656.4376	-0.0032
656.6232	-0.0049
656.8088	-0.0049
656.9945	-0.0003
657.18	0.0019
657.3656	-0.0013
657.5511	-0.0036
657.7367	0.0006
657.9222	-0.0011
658.1077	-0.0011
658.2932	0.0014
658.4786	0.0038
658.6641	-0.0008
658.8495	-0.0037
659.0349	-0.0077
659.2203	-0.0052
659.4057	-0.0062
659.591	-0.0028
659.7764	-0.0062
659.9617	-0.0072
660.147	-0.0082
660.3323	-0.0023
660.5176	-0.0055
660.7028	-0.0097
660.888	-0.0038
661.0733	-0.0024
661.2585	-0.0034
661.4436	0.0005
661.6288	-0.0072
661.8139	0.0001
661.9991	0.0005
662.1842	-0.002
662.3693	-0.0075
662.5544	-0.0016
662.7394	-0.001
662.9245	-0.001
663.1095	0.0014
663.2945	-0.005
663.4795	-0.0062
663.6644	-0.0037
663.8494	-0.0019
664.0343	-0.0042
664.2193	-0.0056
664.4042	-0.0135
664.589	-0.0064
664.7739	-0.0055
664.9587	0.002
665.1436	-0.0002
665.3284	-0.0052
665.5132	0.0014
665.698	0.0042
665.8827	-0.0025
666.0675	-0.005
666.2522	-0.0054
666.4369	-0.0072
666.6216	-0.0088
666.8063	-0.008
666.9909	-0.0113
667.1756	-0.0066
667.3602	-0.0132
667.5448	-0.0117
667.7294	-0.0044
667.9139	-0.0083
668.0985	-0.0151
668.283	-0.0028
668.4675	-0.0088
668.652	-0.0101
668.8365	-0.0085
669.0209	-0.0095
669.2054	-0.0063
669.3898	-0.0098
669.5742	-0.0076
669.7586	0.0023
669.943	-0.0043
670.1273	-0.0105
670.3117	-0.0048
670.496	-0.0057
670.6803	0.0014
670.8646	-0.0059
671.0488	-0.0003
671.2331	-0.0031
671.4173	-0.0024
671.6015	0.0004
671.7857	-0.0084
671.9699	-0.0068
672.1541	-0.0044
672.3382	-0.0059
672.5223	-0.0038
672.7064	-0.008
672.8905	-0.0072
673.0746	-0.0081
673.2587	-0.0098
673.4427	-0.0142
673.6267	-0.0155
673.8107	-0.0123
673.9947	-0.0084
674.1787	-0.013
674.3626	-0.0111
674.5465	-0.0032
674.7304	-0.0001
674.9143	-0.0024
675.0982	-0.0021
675.2821	-0.0052
675.4659	-0.0057
675.6497	-0.0013
675.8335	-0.0025
676.0173	-0.006
676.2011	-0.0069
676.3849	-0.0051
676.5686	-0.0013
676.7523	-0.0046
676.936	0.0004
677.1197	-0.0013
677.3034	-0.0064
677.487	-0.0056
677.6706	-0.008
677.8542	0.0003
678.0378	-0.0038
678.2214	-0.0098
678.405	-0.0068
678.5885	-0.0092
678.772	-0.0093
678.9555	-0.0035
679.139	-0.0052
679.3225	-0.0075
679.5059	-0.0052
679.6894	-0.0037
679.8728	-0.0015
680.0562	-0.0002
680.2395	-0.0022
680.4229	-0.0008
680.6062	0.0031
680.7896	-0.0043
680.9729	0.0017
681.1562	-0.0013
681.3394	-0.0015
681.5227	-0.0063
681.7059	-0.0054
681.8891	-0.0067
682.0723	-0.0046
682.2555	-0.0009
682.4387	0.0011
682.6218	-0.0049
682.805	0.0003
682.9881	-0.0037
683.1712	0.004
683.3542	0.0012
683.5373	-0.0022
683.7203	-0.0031
683.9034	-0.0055
684.0864	-0.0078
684.2694	-0.0046
684.4523	-0.0036
684.6353	-0.0001
684.8182	0.0002
685.0011	-0.0065
685.184	-0.0003
685.3669	-0.0045
685.5498	-0.0013
685.7326	-0.0019
685.9154	-0.003
686.0982	-0.0033
686.281	-0.0112
686.4638	-0.0039
686.6465	-0.0035
686.8293	-0.0042
687.012	-0.0037
687.1947	-0.0058
687.3774	-0.0019
687.56	-0.0076
687.7427	0
687.9253	-0.0025
688.1079	0.0002
688.2905	0.0027
688.4731	-0.0015
688.6556	-0.0086
688.8382	0.0009
689.0207	0.0029
689.2032	0.0034
689.3857	-0.0026
689.5681	-0.0023
689.7506	-0.0022
689.933	0.0004
690.1154	0.0003
690.2978	0.0023
690.4802	0.001
690.6626	0.0037
690.8449	0.0046
691.0272	0.0046
691.2095	0.0024
691.3918	-0.0017
691.5741	-0.0017
691.7563	-0.0009
691.9386	-0.0062
692.1208	-0.0068
692.303	-0.0036
692.4852	-0.0051
692.6673	-0.0062
692.8495	-0.0029
693.0316	-0.0005
693.2137	-0.0058
693.3958	-0.0036
693.5778	-0.0022
693.7599	-0.0076
693.9419	-0.0088
694.1239	-0.0053
694.3059	-0.0098
694.4879	-0.0068
694.6699	-0.0062
694.8518	-0.0085
695.0337	-0.0032
695.2157	-0.003
695.3975	-0.008
695.5794	-0.0067
695.7613	-0.0063
695.9431	-0.0065
696.1249	-0.0071
696.3067	-0.0038
696.4885	0.0002
696.6703	-0.0076
696.852	-0.0057
697.0337	-0.0002
697.2154	0.0026
697.3971	-0.008
697.5788	-0.0058
697.7605	-0.0015
697.9421	-0.0044
698.1237	-0.0059
698.3053	-0.004
698.4869	-0.0033
698.6685	-0.0039
698.85	-0.0084
699.0315	0.0033
699.213	0.0009
699.3945	0.0036
699.576	0.0092
699.7575	-0.0006
699.9389	-0.0025
700.1203	-0.0008
700.3017	-0.0042
700.4831	0.0043
700.6645	-0.0067
700.8458	-0.0022
701.0271	-0.0064
701.2084	-0.0079
701.3897	-0.0064
701.571	0.0015
701.7523	-0.0007
701.9335	0.0073
702.1147	0.0069
702.2959	-0.0027
702.4771	-0.0026
702.6583	0.0005
702.8394	0.0036
703.0205	-0.0003
703.2016	-0.0015
703.3827	-0.0017
703.5638	-0.0055
703.7449	-0.0046
703.9259	-0.0044
704.1069	-0.0017
704.2879	-0.0031
704.4689	-0.0057
704.6499	-0.0035
704.8308	-0.0033
705.0117	0.0005
705.1927	-0.0029
705.3735	-0.0006
705.5544	-0.0035
705.7353	0.0026
705.9161	0.0058
706.0969	0.0047
706.2777	-0.0017
706.4585	-0.0059
706.6393	-0.0033
706.82	-0.0033
707.0007	-0.0054
707.1815	0.0019
707.3621	-0.0044
707.5428	-0.0016
707.7235	0.0029
707.9041	-0.0034
708.0847	-0.0031
708.2653	-0.002
708.4459	-0.0087
708.6265	-0.0043
708.807	0.0003
708.9875	-0.002
709.168	-0.0052
709.3485	-0.0071
709.529	-0.0084
709.7095	-0.0002
709.8899	-0.0057
710.0703	0.0002
710.2507	-0.0038
710.4311	0.0042
710.6115	0.0014
710.7918	-0.0017
710.9721	0.001
711.1524	-0.0001
711.3327	0.0016
711.513	-0.006
711.6932	-0.0023
711.8735	0.0034
712.0537	0.0006
712.2339	-0.0036
712.4141	-0.0011
712.5942	0.0022
712.7744	-0.0001
712.9545	0.0017
713.1346	0.0012
713.3147	0.005
713.4947	-0.0013
713.6748	-0.0027
713.8548	-0.0059
714.0348	-0.0028
714.2148	-0.0042
714.3948	-0.0022
714.5748	-0.0144
714.7547	-0.0095
714.9346	-0.0024
715.1145	-0.0075
715.2944	-0.0039
715.4743	-0.002
715.6541	-0.0056
715.834	-0.0067
716.0138	-0.0014
716.1936	-0.0018
716.3733	-0.0099
716.5531	-0.007
716.7328	0.0041
716.9126	-0.0007
717.0923	-0.0001
717.2719	-0.0161
717.4516	-0.0065
717.6312	-0.0022
717.8109	0.0027
717.9905	-0.0042
718.1701	-0.0008
718.3496	-0.0013
718.5292	-0.0052
718.7087	-0.007
718.8882	-0.0076
719.0677	-0.0036
719.2472	-0.0018
719.4267	-0.0102
719.6061	-0.0078
719.7856	-0.0027
719.965	-0.008
720.1443	-0.0042
720.3237	-0.0022
720.5031	-0.0096
720.6824	-0
720.8617	-0.0072
721.041	-0.0007
721.2203	-0.0069
721.3995	-0.0029
721.5788	-0.0085
721.758	-0.0038
721.9372	-0.0038
722.1164	-0.0015
722.2956	-0.0043
722.4747	-0.0113
722.6538	-0.0069
722.8329	-0.0035
723.012	-0.0014
723.1911	-0.0017
723.3702	0.001
723.5492	-0.0055
723.7282	-0.0038
723.9072	-0.0014
724.0862	-0.0039
724.2652	-0.0042
724.4441	-0.0075
724.623	0.0039
724.8019	-0.0016
724.9808	-0.0053
725.1597	-0.0024
725.3385	0.0031
725.5174	0.0048
725.6962	-0.0054
725.875	0.0023
726.0538	0.0041
726.2325	-0.0035
726.4112	-0.0074
726.59	-0.0003
726.7687	-0.0006
726.9474	-0.0052
727.126	-0.007
727.3047	-0.003
727.4833	-0.0071
727.6619	-0.0073
727.8405	-0.0019
728.0191	-0.0001
728.1976	-0.008
728.3762	-0.0116
728.5547	-0.0066
728.7332	-0.0053
728.9116	-0.012
729.0901	-0.0095
729.2686	-0.0098
729.447	-0.007
729.6254	-0.0047
729.8038	-0.0124
729.9821	0.002
730.1605	-0.0023
730.3388	-0.0027
730.5171	-0.0023
730.6954	0.0009
730.8737	-0.0013
731.0519	0.002
731.2302	-0.0036
731.4084	0.0053
731.5866	0.0048
731.7648	0.0018
731.9429	0.0012
732.1211	0.0006
732.2992	0.0015
732.4773	0.0048
732.6554	-0.0072
732.8335	-0.0121
733.0115	-0.0052
733.1896	-0.0046
733.3676	-0.0052
733.5456	-0.0059
733.7235	-0.0034
733.9015	0.0014
734.0794	0.0004
734.2574	-0.0012
734.4353	-0.0013
734.6131	0.0008
734.791	-0.0022
734.9689	-0.0084
735.1467	0.0022
735.3245	0.0022
735.5023	-0.0021
735.68	-0.0037
735.8578	-0.0011
736.0355	0.0098
736.2132	-0.0027
736.3909	-0.0092
736.5686	-0.0035
736.7463	-0.0077
736.9239	-0.0068
737.1015	-0.0049
737.2791	-0.0045
737.4567	-0.0038
737.6343	-0.0098
737.8118	-0.0068
737.9894	0.0023
738.1669	-0.0072
738.3444	-0.0023
738.5218	0.0012
738.6993	0.0012
738.8767	-0.0014
739.0541	-0.0037
739.2315	-0.0069
739.4089	-0.0003
739.5863	-0.009
739.7636	-0.0042
739.9409	-0.0005
740.1182	0.0018
740.2955	-0.0047
740.4728	-0.003
740.65	0.0007
740.8272	0.0002
741.0044	-0.0064
741.1816	0.0034
741.3588	0.0072
741.5359	-0.0036
741.7131	0.0023
741.8902	0.0029
742.0673	0.0067
742.2444	-0.0024
742.4214	-0.0046
742.5985	-0.0087
742.7755	-0.0084
742.9525	-0.0027
743.1295	-0.0031
743.3064	-0.0048
743.4834	-0.0045
743.6603	-0.0125
743.8372	-0.0006
744.0141	-0.0073
744.191	0.0001
744.3678	-0.0079
744.5446	0.0021
744.7215	-0.0058
744.8982	-0.0037
745.075	0.0022
745.2518	-0.0013
745.4285	-0.0002
745.6052	-0.0028
745.7819	0.0003
745.9586	0.0017
746.1353	-0.0014
746.3119	0.0001
746.4885	-0.0052
746.6651	0.001
746.8417	-0.0085
747.0183	-0.0049
747.1948	-0.0075
747.3714	-0.0072
747.5479	-0.0014
747.7244	-0.0007
747.9008	0.0001
748.0773	0.0098
748.2537	0.0075
748.4301	0.0045
748.6065	-0.0042
748.7829	0.0044
748.9593	0.0035
749.1356	-0.0051
749.3119	0.0002
749.4882	0.0047
749.6645	-0.0007
749.8408	-0.0049
750.017	-0.0051
750.1933	-0.0017
750.3695	-0.0038
750.5457	-0.0077
750.7218	-0.0065
750.898	-0.0066
751.0741	-0.0095
751.2502	-0.0043
751.4263	-0.0047
751.6024	-0.0017
751.7784	-0.0002
751.9545	0.0005
752.1305	0.0023
752.3065	-0.0058
752.4825	-0.0021
752.6584	-0.0057
752.8344	-0.0049
753.0103	-0.006
753.1862	-0.0004
753.3621	-0.0054
753.5379	-0.0062
753.7138	-0.003
753.8896	-0.0136
754.0654	-0.0081
754.2412	-0.0132
754.417	-0.0044
754.5927	-0.0038
754.7685	-0.0126
754.9442	-0.0078
755.1199	-0.0102
755.2956	-0.0035
755.4712	-0.0034
755.6469	-0.0161
755.8225	-0.0065
755.9981	-0.0076
756.1736	0.0003
756.3492	-0.0074
756.5248	-0.0032
756.7003	-0.0099
756.8758	-0.0094
757.0513	-0.0086
757.2267	-0.0116
757.4022	-0.0089
757.5776	-0.0087
757.753	-0.0123
757.9284	-0.0059
758.1038	-0.0027
758.2791	-0.014
758.4545	-0.0096
758.6298	-0.0082
758.8051	-0.0113
758.9803	-0.0119
759.1556	-0.0101
759.3308	-0.0061
759.506	-0.0101
759.6812	-0.0122
759.8564	-0.0084
760.0316	-0.0077
760.2067	-0.0065
760.3819	-0.0013
760.557	-0.0106
760.732	-0.0087
760.9071	-0.0051
761.0821	-0.0116
761.2572	-0.0155
761.4322	-0.0089
761.6072	-0.01
761.7821	-0.0084
761.9571	-0.0112
762.132	-0.008
762.3069	-0.0003
762.4818	-0.002
762.6567	-0.0066
762.8316	-0.0067
763.0064	-0.0057
763.1812	-0.0023
763.356	0.0044
763.5308	0.0028
763.7055	0.0047
763.8803	0.0025
764.055	-0.0057
764.2297	-0.0014
764.4044	-0.0032
764.579	-0.0001
764.7537	-0.0066
764.9283	-0.0025
765.1029	0.0032
765.2775	-0.0009
765.4521	0.0085
765.6266	0.002
765.8011	0.0102
765.9756	0.0007
766.1501	0.0006
766.3246	-0.0053
766.4991	-0.0004
766.6735	-0.0049
766.8479	-0.0069
767.0223	0.0052
767.1967	0.0017
767.371	-0.0038
767.5454	-0.003
767.7197	-0.0005
767.894	-0.001
768.0683	-0.0044
768.2425	-0.0028
768.4168	-0.0081
768.591	0.0038
768.7652	-0.0028
768.9394	-0.0039
769.1135	0.0084
769.2877	0.0022
769.4618	0.0065
769.6359	0.007
769.81	0.0019
769.984	-0.0069
770.1581	-0.0007
770.3321	-0.0014
770.5061	-0.003
770.6801	0.0001
770.8541	-0.0019
771.028	0.0005
771.202	0.0023
771.3759	-0.0024
771.5498	0.0046
771.7236	0.0054
771.8975	-0.0029
772.0713	0.0095
772.2451	0.0017
772.4189	0.0043
772.5927	-0.0044
772.7665	-0.007
772.9402	-0.0033
773.1139	-0.0011
773.2876	0.0001
773.4613	-0.0012
773.635	0.0032
773.8086	-0.0003
773.9822	0.0059
774.1558	-0.0024
774.3294	0.0114
774.503	0.0004
774.6765	-0.0012
774.8501	0.0032
775.0236	-0.0092
775.1971	-0.0096
775.3705	0.0021
775.544	0.0022
775.7174	-0.0011
775.8908	-0.0009
776.0642	-0.0041
776.2376	-0.0097
776.4109	-0.0122
776.5843	0.0061
776.7576	0.0037
776.9309	0.0007
777.1041	0.0037
777.2774	0.0044
777.4506	-0.0022
777.6238	0.001
777.797	-0.006
777.9702	-0.003
778.1434	-0.0057
778.3165	-0.0032
778.4896	-0.0067
778.6627	-0.0062
778.8358	-0.0032
779.0089	-0.0009
779.1819	-0.001
779.3549	-0.0069
779.5279	0.0001
779.7009	-0.0053
779.8739	0.0013
780.0468	-0.017
780.2197	0.0031
780.3926	-0.0074
780.5655	-0.0013
780.7384	-0.0013
780.9112	-0.0003
781.0841	0.0009
781.2569	-0.0035
781.4297	-0.0058
781.6024	0.0022
781.7752	0
781.9479	-0.0041
782.1206	0.0047
782.2933	-0.0118
782.466	-0.0007
782.6386	-0.0018
782.8113	-0.0149
782.9839	-0.0087
783.1565	-0.0118
783.329	0.0003
783.5016	0.0049
783.6741	-0.0048
783.8466	-0.012
784.0191	-0.008
784.1916	-0.0036
784.3641	-0.0037
784.5365	-0.0028
784.7089	0.0035
784.8813	0.0077
785.0537	0.0157
785.2261	0.0003
785.3984	-0.004
785.5707	0.0008
785.743	0.0082
785.9153	0.0039
786.0876	-0.0037
786.2598	0.0101
786.432	0.0059
786.6042	0.0023
786.7764	0.0035
786.9486	0.0051
787.1207	0.0018
787.2928	0.0001
787.4649	-0.0016
787.637	-0.0086
787.8091	0.0056
787.9811	-0.0017
788.1532	-0.0028
788.3252	-0.0075
788.4972	-0.0018
788.6691	0.0057
788.8411	0.002
789.013	0.0044
789.1849	-0.0003
789.3568	-0.0057
789.5287	-0.0029
789.7005	-0.0032
789.8723	-0.0046
790.0442	-0.0063
790.2159	0.0015
790.3877	-0.0109
790.5595	-0.0053
790.7312	0.0046
790.9029	0.0015
791.0746	-0.0031
791.2463	0.0015
791.4179	-0.0081
791.5896	0.0024
791.7612	0.0015
791.9328	0.0029
792.1044	-0.01
792.2759	0.0024
792.4474	-0.006
792.619	-0.0096
792.7905	-0.002
792.9619	-0.0057
793.1334	-0.0056
793.3048	-0.003
793.4762	0.0032
793.6476	-0.0124
793.819	-0.0126
793.9904	-0.0076
794.1617	-0.0072
794.333	-0.0074
794.5043	-0.0029
794.6756	0.002
794.8469	0.0023
795.0181	-0.0069
795.1893	-0.0066
795.3605	-0.0049
795.5317	-0.0079
795.7029	-0.0115
795.874	-0.0072
796.0452	-0.0097
796.2163	-0.0056
796.3873	-0.0096
796.5584	-0.013
796.7294	-0.0071
796.9005	-0.0137
797.0715	-0.0181
797.2425	-0.0204
797.4134	-0.0155
797.5844	-0.0099
797.7553	-0.0049
797.9262	-0.0086
798.0971	-0.0059
798.2679	-0.0034
798.4388	-0.0147
798.6096	-0.0121
798.7804	-0.0151
798.9512	-0.0138
799.122	-0.0051
799.2927	-0.0241
799.4635	0.0001
799.6342	-0.0111
799.8049	-0.0169
799.9755	-0.0133
800.1462	-0.0156
800.3168	-0.0157
800.4874	0.0007
800.658	-0.0134
800.8286	-0.019
800.9991	-0.0156
801.1696	-0.0104
801.3402	-0.021
801.5106	-0.0179
801.6811	-0.0191
801.8516	-0.0061
802.022	-0.0228
802.1924	-0.03
802.3628	-0.0225
802.5332	-0.0162
802.7035	-0.0081
802.8739	-0.0134
803.0442	-0.0154
803.2145	-0.011
803.3847	-0.0217
803.555	-0.0166
803.7252	-0.0146
803.8954	-0.0186
804.0656	-0.0016
804.2358	-0.0188
804.4059	-0.0143
804.5761	-0.0097
804.7462	-0.0081
804.9163	-0.0161
805.0864	-0.0082
805.2564	-0.0147
805.4264	-0.0091
805.5965	-0.0125
805.7665	-0.0098
805.9364	-0.0086
806.1064	-0.0064
806.2763	-0.0133
806.4462	-0.0024
806.6161	-0.0106
806.786	0.0019
806.9559	-0.0089
807.1257	-0.0117
807.2955	-0.0077
807.4653	-0.0055
807.6351	-0.009
807.8048	-0.0006
807.9746	-0.0113
808.1443	-0.0014
808.314	0.0077
808.4837	0.0058
808.6533	0.0032
808.8229	0.0031
808.9926	0.0108
809.1622	-0.0015
809.3317	0.0147
809.5013	-0.0014
809.6708	-0.0074
809.8403	-0.0032
810.0098	0.006
810.1793	0.0086
810.3488	0.0102
810.5182	-0.002
810.6876	-0.0037
810.857	-0.0106
811.0264	-0.0179
811.1958	0.0068
811.3651	-0.0144
811.5344	-0.0021
811.7037	-0.006
811.873	-0.0121
812.0422	-0.0151
812.2115	-0.0035
812.3807	-0.0042
812.5499	-0.0064
812.7191	-0.0222
812.8882	0.0048
813.0574	-0.0102
813.2265	-0.0084
813.3956	-0.0026
813.5646	-0.013
813.7337	-0.0014
813.9027	-0.0006
814.0718	-0.004
814.2407	0.0098
814.4097	-0.0079
814.5787	0.0149
814.7476	-0.004
814.9165	0.0068
815.0854	0.0009
815.2543	-0.003
815.4232	-0.006
815.592	0.0084
815.7608	0.0015
815.9296	-0.0051
816.0984	0.0096
816.2671	-0.0013
816.4359	0.0006
816.6046	-0.0018
816.7733	-0.0026
816.942	-0.0006
817.1106	0.003
817.2793	0.01
817.4479	-0.0097
817.6165	-0.0079
817.785	-0.0091
817.9536	0.0046
818.1221	-0.0042
818.2906	-0.0122
818.4591	-0.014
818.6276	0.0096
818.7961	-0.0119
818.9645	-0.0054
819.1329	0.0001
819.3013	-0.0038
819.4697	-0.0163
819.638	-0.0064
819.8064	-0.0008
819.9747	0.0017
820.143	-0.0145
820.3113	-0.0079
820.4795	0.0147
820.6477	-0.0055
820.816	0.0001
820.9842	-0.0104
821.1523	-0.021
821.3205	0.0003
821.4886	-0.0091
821.6567	-0.0107
821.8248	-0.0194
821.9929	-0.0113
822.1609	0.0039
822.329	-0.007
822.497	-0.014
822.665	-0.0195
822.833	-0.0158
823.0009	0.001
823.1688	-0.0125
823.3367	-0.013
823.5046	-0.0056
823.6725	-0.0168
823.8404	0.003
824.0082	-0.0092
824.176	0.0076
824.3438	0.0052
824.5116	0.008
824.6793	-0.0045
824.847	-0.0063
825.0147	-0.0096
825.1824	-0.0223
825.3501	-0.002
825.5177	-0.0029
825.6854	0.006
825.853	0.006
826.0206	-0.0091
826.1881	-0.0016
826.3557	-0.0032
826.5232	-0.0029
826.6907	0.0035
826.8582	-0.0077
827.0257	0.0032
827.1931	0.0019
827.3605	0.0003
827.528	0.0071
827.6953	0.0162
827.8627	-0.0072
828.03	-0.0096
828.1974	0.009
828.3647	0.0048
828.532	-0.0122
828.6992	-0.0047
828.8665	-0.0254
829.0337	-0.0033
829.2009	-0.0084
829.3681	-0.0311
829.5352	-0.011
829.7024	-0.0125
829.8695	-0.0192
830.0366	-0.024
830.2037	-0.0195
830.3707	-0.007
830.5378	-0.0002
830.7048	-0.0076
830.8718	-0.001
831.0388	-0.0088
831.2057	-0.0124
831.3727	-0.0117
831.5396	-0.0077
831.7065	0.0067
831.8734	0.0023
832.0402	-0.0238
832.2071	0.0155
832.3739	-0.0019
832.5407	0.0042
832.7075	-0.0004
832.8742	0.0042
833.041	0.0063
833.2077	-0.0181
833.3744	0.0203
833.541	0.0025
833.7077	0.0097
833.8743	-0.0007
834.0409	0.0121
834.2075	0.0191
834.3741	0.0022
834.5407	0.0028
834.7072	0.0172
834.8737	0.0065
835.0402	-0.0352
835.2067	-0.0084
835.3731	-0.0012
835.5395	-0.0108
835.706	-0.0353
835.8723	-0.0092
836.0387	-0.0289
836.2051	-0.0153
836.3714	0.0246
836.5377	-0.0033
836.704	-0.0085
836.8703	-0.0264
837.0365	0.0108
837.2027	-0.0043
837.3689	-0.0018
837.5351	0.0043
837.7013	-0.0165
837.8674	0.0148
838.0335	0.0274
838.1997	-0.006
838.3657	0.0155
838.5318	-0.0121
838.6978	-0.0111
838.8639	0.0126
839.0299	-0.0081
839.1958	0.0123
839.3618	0.0034
839.5277	-0.0003
839.6937	0.0033
839.8596	-0.0006
840.0254	-0.0088
840.1913	0.0105
840.3571	0.008
840.523	0.002
840.6888	0.0032
840.8545	-0.0028
841.0203	-0.0166
841.186	0.011
841.3517	-0.0234
841.5174	-0.0167
841.6831	-0.0006
841.8488	0.0132
842.0144	0.0194
842.18	0.0065
842.3456	-0.0026
842.5112	-0.0022
842.6767	-0.0128
842.8422	0.0132
843.0077	0.0077
843.1732	-0.0104
843.3387	-0.0159
843.5042	0.0143
843.6696	0.0149
843.835	-0
844.0004	0.0288
844.1657	0.0024
844.3311	0.0081
844.4964	-0.0104
844.6617	0.0181
844.827	-0.0112
844.9923	0.0325
845.1575	0.0186
845.3227	-0.0176
845.4879	0.0011
845.6531	0.032
845.8183	-0.0017
845.9834	-0.007
846.1485	-0.0078
846.3136	-0.0497
846.4787	0.0118
846.6438	0.0062
846.8088	0.0048
846.9738	0.0071
847.1388	-0
847.3038	0.0098
847.4687	0.0077
847.6337	0.033
847.7986	0.0389
847.9635	-0.0048
848.1284	-0.0048
848.2932	0.0149
848.458	0.0354
848.6228	0.0116
848.7876	-0.024
848.9524	0.0446
849.1172	-0.0212
849.2819	0.0219
849.4466	-0.0111
849.6113	0.025
849.7759	-0.0159
849.9406	-0.0174
850.1052	0.0262
850.2698	0.0084
850.4344	0.0026
850.599	-0.0168
850.7635	0.0312
850.928	-0.0117
851.0925	0.034
851.257	-0.004
851.4215	0.0266
851.5859	0.0536
851.7503	0.0242
851.9147	0.0499
852.0791	0.0305
852.2434	-0.0027
852.4078	0.0169
852.5721	-0.0376
852.7364	-0.0723
852.9007	0.0383
853.0649	0.0061
853.2291	0.0122
853.3934	0.0034
853.5575	0.0087
853.7217	-0.0738
853.8859	0.0245
854.05	0.0313
854.2141	-0.0474
854.3782	0.0317
854.5423	-0.0084
854.7063	0.0413
854.8703	-0.0099
855.0343	0.0114
855.1983	0.0515
855.3623	0.0074
855.5262	0.0143
855.6901	0.0334
855.854	-0.0416
856.0179	0.0583
856.1818	-0.0065
856.3456	0.0108
856.5094	0.002
856.6732	-0.0223
856.837	-0.0223
857.0008	-0.0128
857.1645	0.0022
857.3282	-0.022
857.4919	-0.0299
857.6556	0.0541
857.8192	0.0176
857.9828	0.0345
858.1465	0.0222
858.31	0.0039
858.4736	-0.0059
858.6372	0.0033
858.8007	0.0076
858.9642	-0.0383
859.1277	0.0828
859.2911	0.0696
859.4546	0.0876
859.618	-0.003
859.7814	0.1197
859.9448	-0.0296
860.1081	-0.0907
860.2715	0.0914
860.4348	0.0013
860.5981	-0.0165
860.7614	-0.0391
860.9246	0.0232
861.0879	-0.0975
861.2511	0.088
861.4143	-0.0938
861.5774	0.0447
861.7406	-0.0407
861.9037	-0.0834
862.0668	-0.004
862.2299	0.0036
862.393	-0.0323
862.556	0.1262
862.7191	-0.0445
862.8821	-0.0579
863.0451	0.0391
863.208	-0.0817
863.371	0.1525
863.5339	-0.0416
863.6968	-0.0457
863.8597	-0.0204
864.0225	-0.1813
864.1854	-0.0094
864.3482	-0.1463
864.511	-0.0833
864.6737	-0.0128
864.8365	-0.0132
864.9992	-0.1063
865.1619	0.0923
865.3246	-0.0564
865.4873	0.2745
865.65	0.2178
865.8126	0.095
865.9752	-0.051
866.1378	-0.1348
866.3004	0.1583
866.4629	-0.1071
866.6254	0.2134
866.7879	-0.1954
866.9504	0.0347
867.1129	-0.1097
867.2753	0.0995
867.4377	0.0463
867.6001	-0.0627
867.7625	0.1016
867.9249	0.0327
868.0872	0.0259
868.2495	-0.0774
868.4118	-0.152
868.5741	-0.0174
868.7363	0.1416
868.8986	0.0388
869.0608	0.0439
869.223	0.133
869.3851	0.2581
869.5473	-0.2832
869.7094	-0.0265
869.8715	0.0703
870.0336	-0.1546
870.1957	-0.0243
870.3577	-0.0728
870.5197	-0.3765
870.6817	-0.2404
870.8437	0.1465
871.0057	-0.329
871.1676	-0.0219
871.3295	-0.2954
871.4914	0.011
871.6533	-0.1232
871.8151	-0.0166
871.977	0.2624
872.1388	-0.1198
872.3006	-0.015
872.4623	0.3052
872.6241	0.7786
872.7858	0.2487
872.9475	-0.1103
873.1092	-0.1822
873.2709	0.3951
873.4325	-0.1283
873.5941	-0.0174
873.7557	-0.0005
873.9173	-0.0552
874.0789	-0.2689
874.2404	0.2304
874.4019	-0.1728
874.5634	-0.0785
874.7249	0.2713
874.8863	-0.1076
875.0478	-0
875.2092	-0.2849
875.3706	0.1128
875.5319	0.0333
875.6933	-0.1298
875.8546	-0.2399
876.0159	-0.0496
876.1772	-0.3348
876.3385	-0
876.4997	-0.08
876.6609	0.4211
876.8221	0.0661
876.9833	-0.3551
877.1445	-0
877.3056	-0.0831
877.4667	-0.9704
877.6278	0.1756
877.7889	0.4944
877.9499	-0.6515
878.111	0.25
878.272	0.1239
878.433	0.1752
878.5939	0.0861
878.7549	-0.4556
878.9158	0.399
879.0767	0.1882
879.2376	0.1423
879.3984	-0.0887
879.5593	0.5128
879.7201	-0
879.8809	0.4461
880.0417	-0.0761
880.2024	-0.0006
880.3632	0.1364
880.5239	-0
880.6846	0.1731
880.8452	0.6818
881.0059	-0.1208
881.1665	-0
881.3271	0.0985
881.4877	0.0148
881.6483	-0
881.8088	0.5951
881.9693	-0.0004
882.1298	-0.0004
882.2903	-0.0004
