Data from MonoPyChalIsomerACN10uM450nmA_Absorbance_13-11-26-692.txt Node
Date: Tue Jul 09 13:11:26 BST 2024
User: LASERRRRR
Spectrometer: FLMT03099
Trigger mode: 0
Integration Time (sec): 2.000000E-1
Scans to average: 1
Electric dark correction enabled: true
Nonlinearity correction enabled: false
Boxcar width: 0
XAxis mode: Wavelengths
Number of Pixels in Spectrum: 3648
>>>>>Begin Spectral Data<<<<<
179.3399	0.0675
179.5586	0.0675
179.7771	0.0675
179.9957	-0.2489
180.2143	-0.3917
180.4329	-0.0609
180.6514	-0
180.8699	-0
181.0885	0.0026
181.307	1.1967
181.5255	0.5866
181.744	-0
181.9625	0.6658
182.181	-0.139
182.3994	0.2191
182.6179	-0.0544
182.8363	0.0193
183.0547	0.1432
183.2732	0.2528
183.4916	0.1346
183.71	0.1349
183.9284	0.0725
184.1467	0.0985
184.3651	0.0798
184.5835	0.0811
184.8018	0.0624
185.0201	0.1936
185.2385	0.0137
185.4568	-0.1244
185.6751	0.1504
185.8934	-0.0217
186.1117	0.0369
186.3299	-0.027
186.5482	-0.034
186.7664	-0.0168
186.9847	0.1358
187.2029	0.1397
187.4211	0.091
187.6393	-0.0823
187.8575	0.1577
188.0757	0.0712
188.2939	0.0619
188.512	0.0048
188.7302	0.0085
188.9483	0.1109
189.1665	0.0054
189.3846	0.3439
189.6027	0.0083
189.8208	0.0953
190.0389	0.2244
190.257	0.2685
190.475	0.2333
190.6931	0.2285
190.9111	0.2172
191.1292	0.3019
191.3472	0.2838
191.5652	0.3712
191.7832	0.2848
192.0012	0.4405
192.2192	0.4658
192.4371	0.4208
192.6551	0.5519
192.873	0.353
193.091	0.4728
193.3089	0.5042
193.5268	0.4898
193.7447	0.4188
193.9626	0.4967
194.1805	0.6098
194.3984	0.6465
194.6162	0.6472
194.8341	0.6108
195.0519	0.5147
195.2697	0.5088
195.4875	0.6889
195.7054	0.5509
195.9231	0.7288
196.1409	0.6388
196.3587	0.6414
196.5765	0.6493
196.7942	0.686
197.012	0.6169
197.2297	0.6735
197.4474	0.8264
197.6651	0.6391
197.8828	0.7873
198.1005	0.8189
198.3182	0.8549
198.5358	0.7192
198.7535	0.7735
198.9711	0.9717
199.1888	0.7446
199.4064	0.8203
199.624	0.7401
199.8416	0.8201
200.0592	0.804
200.2767	0.7831
200.4943	0.8967
200.7119	0.7966
200.9294	0.8627
201.1469	0.8839
201.3645	0.8673
201.582	0.9227
201.7995	0.7339
202.017	0.9008
202.2344	0.7762
202.4519	0.9007
202.6694	0.7628
202.8868	0.8599
203.1042	1.043
203.3217	0.9526
203.5391	0.9921
203.7565	0.8689
203.9739	0.908
204.1913	0.8094
204.4086	0.851
204.626	0.9266
204.8433	0.9245
205.0607	0.9705
205.278	0.9082
205.4953	0.9842
205.7126	0.9303
205.9299	1.0406
206.1472	0.9266
206.3644	0.9907
206.5817	1.0734
206.7989	1.1385
207.0162	1.0766
207.2334	0.914
207.4506	0.9474
207.6678	1.0796
207.885	1.1878
208.1022	1.0523
208.3194	1.0233
208.5365	1.0717
208.7537	0.9912
208.9708	1.0428
209.1879	1.0196
209.405	1.0368
209.6222	1.0719
209.8392	1.05
210.0563	0.9777
210.2734	1.0764
210.4905	1.0189
210.7075	1.0041
210.9245	0.9597
211.1416	1.0909
211.3586	1.0852
211.5756	1.0614
211.7926	1.08
212.0096	1.0678
212.2265	1.0388
212.4435	1.099
212.6604	1.0653
212.8774	1.0284
213.0943	0.9928
213.3112	1.0395
213.5281	1.0821
213.745	1.0169
213.9619	0.9908
214.1788	0.9605
214.3956	0.9606
214.6125	0.8891
214.8293	0.8393
215.0461	0.9228
215.2629	0.9217
215.4798	0.8546
215.6965	0.8099
215.9133	0.8601
216.1301	0.8258
216.3469	0.8039
216.5636	0.8123
216.7803	0.7341
216.9971	0.7631
217.2138	0.7877
217.4305	0.7054
217.6472	0.6625
217.8639	0.6713
218.0805	0.6158
218.2972	0.5657
218.5138	0.5595
218.7305	0.4932
218.9471	0.4926
219.1637	0.4246
219.3803	0.4232
219.5969	0.3916
219.8135	0.383
220.0301	0.3497
220.2466	0.3685
220.4632	0.3419
220.6797	0.3225
220.8962	0.3208
221.1127	0.3025
221.3292	0.307
221.5457	0.282
221.7622	0.2827
221.9787	0.283
222.1951	0.2793
222.4116	0.2735
222.628	0.2622
222.8444	0.2677
223.0608	0.2786
223.2772	0.2833
223.4936	0.268
223.71	0.2704
223.9264	0.2809
224.1427	0.2638
224.3591	0.2634
224.5754	0.2767
224.7917	0.2753
225.008	0.2673
225.2243	0.2683
225.4406	0.2799
225.6569	0.2761
225.8732	0.2789
226.0894	0.2811
226.3057	0.2886
226.5219	0.2883
226.7381	0.287
226.9543	0.2709
227.1705	0.2894
227.3867	0.2914
227.6029	0.2853
227.8191	0.3114
228.0352	0.3038
228.2513	0.3034
228.4675	0.3178
228.6836	0.3136
228.8997	0.3066
229.1158	0.3097
229.3319	0.3166
229.548	0.3269
229.764	0.3182
229.9801	0.3353
230.1961	0.3322
230.4121	0.331
230.6282	0.3421
230.8442	0.3375
231.0602	0.3377
231.2761	0.3414
231.4921	0.335
231.7081	0.3556
231.924	0.3576
232.14	0.3655
232.3559	0.3568
232.5718	0.3552
232.7877	0.3555
233.0036	0.3582
233.2195	0.3635
233.4353	0.3588
233.6512	0.3745
233.867	0.3757
234.0829	0.381
234.2987	0.3864
234.5145	0.3713
234.7303	0.3808
234.9461	0.3899
235.1619	0.3806
235.3776	0.3846
235.5934	0.4022
235.8091	0.3836
236.0249	0.3876
236.2406	0.3935
236.4563	0.3924
236.672	0.4027
236.8877	0.4018
237.1034	0.4008
237.319	0.4075
237.5347	0.4132
237.7503	0.4032
237.966	0.4126
238.1816	0.4138
238.3972	0.4072
238.6128	0.4085
238.8284	0.4124
239.0439	0.4139
239.2595	0.4287
239.475	0.4305
239.6906	0.4282
239.9061	0.4081
240.1216	0.4134
240.3371	0.4126
240.5526	0.4308
240.7681	0.4123
240.9836	0.4187
241.199	0.4139
241.4145	0.402
241.6299	0.4083
241.8453	0.3926
242.0607	0.3845
242.2761	0.3906
242.4915	0.3983
242.7069	0.3834
242.9223	0.3806
243.1376	0.3716
243.353	0.3625
243.5683	0.3665
243.7836	0.3354
243.9989	0.3426
244.2142	0.3355
244.4295	0.3251
244.6448	0.3289
244.86	0.3307
245.0753	0.3187
245.2905	0.2965
245.5057	0.296
245.721	0.3065
245.9362	0.2843
246.1514	0.2899
246.3665	0.2917
246.5817	0.2719
246.7969	0.2697
247.012	0.2724
247.2271	0.2693
247.4423	0.2657
247.6574	0.2667
247.8725	0.2536
248.0876	0.2607
248.3026	0.2522
248.5177	0.2466
248.7328	0.2417
248.9478	0.2441
249.1628	0.2405
249.3779	0.2303
249.5929	0.2293
249.8079	0.2298
250.0228	0.225
250.2378	0.2327
250.4528	0.2187
250.6677	0.2229
250.8827	0.2145
251.0976	0.216
251.3125	0.2231
251.5274	0.2098
251.7423	0.2104
251.9572	0.2148
252.172	0.2053
252.3869	0.2096
252.6017	0.205
252.8166	0.2055
253.0314	0.1977
253.2462	0.2149
253.461	0.2053
253.6758	0.2002
253.8906	0.2066
254.1053	0.2055
254.3201	0.2013
254.5348	0.1982
254.7496	0.2016
254.9643	0.203
255.179	0.2014
255.3937	0.1951
255.6083	0.2018
255.823	0.2
256.0377	0.1878
256.2523	0.1973
256.467	0.1943
256.6816	0.1852
256.8962	0.1964
257.1108	0.2069
257.3254	0.1877
257.54	0.1902
257.7545	0.1944
257.9691	0.1999
258.1836	0.1951
258.3981	0.194
258.6127	0.2009
258.8272	0.183
259.0417	0.2032
259.2561	0.1964
259.4706	0.1889
259.6851	0.1834
259.8995	0.1923
260.114	0.196
260.3284	0.2015
260.5428	0.1953
260.7572	0.2004
260.9716	0.198
261.186	0.2005
261.4003	0.2023
261.6147	0.1981
261.829	0.2023
262.0433	0.1974
262.2577	0.1967
262.472	0.2004
262.6863	0.1936
262.9005	0.1925
263.1148	0.1905
263.3291	0.1916
263.5433	0.197
263.7576	0.1863
263.9718	0.1897
264.186	0.1934
264.4002	0.1935
264.6144	0.1829
264.8286	0.1834
265.0427	0.18
265.2569	0.1893
265.471	0.1799
265.6851	0.1811
265.8993	0.1755
266.1134	0.1727
266.3275	0.1864
266.5415	0.1678
266.7556	0.1787
266.9697	0.1727
267.1837	0.1761
267.3978	0.1931
267.6118	0.1941
267.8258	0.1909
268.0398	0.1969
268.2538	0.195
268.4677	0.1884
268.6817	0.1882
268.8957	0.1912
269.1096	0.1942
269.3235	0.1839
269.5374	0.1799
269.7514	0.1664
269.9652	0.1713
270.1791	0.1553
270.393	0.1586
270.6068	0.1529
270.8207	0.1579
271.0345	0.1589
271.2483	0.1505
271.4622	0.1563
271.676	0.1477
271.8897	0.1489
272.1035	0.1454
272.3173	0.1535
272.531	0.1433
272.7448	0.1422
272.9585	0.1385
273.1722	0.1424
273.3859	0.139
273.5996	0.1311
273.8133	0.1425
274.0269	0.144
274.2406	0.1414
274.4542	0.1461
274.6679	0.1423
274.8815	0.1437
275.0951	0.1452
275.3087	0.1367
275.5223	0.1397
275.7358	0.1451
275.9494	0.1445
276.1629	0.1431
276.3765	0.1492
276.59	0.1434
276.8035	0.1498
277.017	0.1466
277.2305	0.1457
277.444	0.1496
277.6574	0.1521
277.8709	0.1523
278.0843	0.1622
278.2978	0.1546
278.5112	0.1503
278.7246	0.1468
278.938	0.1472
279.1513	0.158
279.3647	0.153
279.5781	0.1441
279.7914	0.1491
280.0047	0.1524
280.2181	0.1585
280.4314	0.1517
280.6447	0.1523
280.8579	0.1528
281.0712	0.1568
281.2845	0.1476
281.4977	0.1587
281.711	0.1551
281.9242	0.1474
282.1374	0.157
282.3506	0.1552
282.5638	0.1527
282.7769	0.161
282.9901	0.1503
283.2033	0.1604
283.4164	0.1546
283.6295	0.1563
283.8426	0.1553
284.0557	0.1562
284.2688	0.1586
284.4819	0.1522
284.695	0.1558
284.908	0.1569
285.1211	0.1631
285.3341	0.1558
285.5471	0.1559
285.7601	0.155
285.9731	0.1574
286.1861	0.1599
286.3991	0.1627
286.612	0.165
286.825	0.1628
287.0379	0.1586
287.2508	0.1519
287.4637	0.1603
287.6766	0.1552
287.8895	0.163
288.1024	0.1579
288.3152	0.1601
288.5281	0.1663
288.7409	0.1515
288.9538	0.1631
289.1666	0.1545
289.3794	0.1608
289.5922	0.1553
289.8049	0.1585
290.0177	0.1613
290.2304	0.1553
290.4432	0.156
290.6559	0.1529
290.8686	0.1531
291.0813	0.1647
291.294	0.1639
291.5067	0.1557
291.7194	0.1551
291.932	0.1586
292.1447	0.162
292.3573	0.161
292.5699	0.1653
292.7825	0.1597
292.9951	0.16
293.2077	0.1482
293.4203	0.1542
293.6328	0.1659
293.8454	0.1504
294.0579	0.1554
294.2704	0.1542
294.4829	0.1601
294.6954	0.1548
294.9079	0.155
295.1204	0.1568
295.3328	0.1644
295.5453	0.1594
295.7577	0.1511
295.9701	0.156
296.1825	0.1543
296.3949	0.1547
296.6073	0.1589
296.8197	0.1608
297.0321	0.1573
297.2444	0.1522
297.4567	0.1484
297.6691	0.159
297.8814	0.1556
298.0937	0.154
298.306	0.1554
298.5182	0.1478
298.7305	0.1565
298.9428	0.1512
299.155	0.1536
299.3672	0.163
299.5794	0.1533
299.7916	0.1568
300.0038	0.1524
300.216	0.1543
300.4282	0.1475
300.6403	0.1537
300.8525	0.16
301.0646	0.1493
301.2767	0.16
301.4888	0.1492
301.7009	0.153
301.913	0.1629
302.125	0.1573
302.3371	0.1581
302.5491	0.1516
302.7612	0.16
302.9732	0.1629
303.1852	0.1536
303.3972	0.1541
303.6092	0.1561
303.8211	0.1542
304.0331	0.1432
304.245	0.1474
304.457	0.1534
304.6689	0.1514
304.8808	0.1486
305.0927	0.1494
305.3046	0.1463
305.5164	0.1562
305.7283	0.1477
305.9401	0.1526
306.152	0.1488
306.3638	0.1482
306.5756	0.1452
306.7874	0.1444
306.9992	0.141
307.2109	0.133
307.4227	0.1403
307.6344	0.1352
307.8462	0.1269
308.0579	0.13
308.2696	0.1293
308.4813	0.1311
308.693	0.1289
308.9046	0.1223
309.1163	0.1201
309.328	0.1201
309.5396	0.1127
309.7512	0.1223
309.9628	0.1216
310.1744	0.1216
310.386	0.116
310.5976	0.1146
310.8091	0.1161
311.0207	0.1122
311.2322	0.1127
311.4437	0.1144
311.6552	0.1146
311.8667	0.1052
312.0782	0.1095
312.2897	0.1055
312.5012	0.1125
312.7126	0.0979
312.924	0.1015
313.1355	0.1052
313.3469	0.1033
313.5583	0.106
313.7696	0.1103
313.981	0.1014
314.1924	0.1001
314.4037	0.1051
314.6151	0.1009
314.8264	0.1065
315.0377	0.1049
315.249	0.1081
315.4603	0.1027
315.6716	0.1047
315.8828	0.096
316.0941	0.0984
316.3053	0.0893
316.5165	0.0884
316.7277	0.0922
316.9389	0.1009
317.1501	0.0941
317.3613	0.0955
317.5724	0.0919
317.7836	0.099
317.9947	0.1053
318.2058	0.0952
318.417	0.0933
318.6281	0.0974
318.8391	0.0946
319.0502	0.0891
319.2613	0.0927
319.4723	0.0988
319.6834	0.0928
319.8944	0.0958
320.1054	0.098
320.3164	0.1046
320.5274	0.1042
320.7383	0.087
320.9493	0.0967
321.1602	0.0961
321.3712	0.1043
321.5821	0.0947
321.793	0.0909
322.0039	0.0982
322.2148	0.0973
322.4257	0.0906
322.6365	0.0936
322.8474	0.1016
323.0582	0.1091
323.269	0.0945
323.4798	0.0977
323.6906	0.0993
323.9014	0.0953
324.1122	0.1034
324.3229	0.1002
324.5337	0.0933
324.7444	0.0967
324.9551	0.1063
325.1658	0.1042
325.3765	0.0949
325.5872	0.0994
325.7979	0.1126
326.0085	0.1072
326.2192	0.1074
326.4298	0.1095
326.6404	0.1088
326.851	0.1056
327.0616	0.1032
327.2722	0.1052
327.4828	0.1033
327.6933	0.1081
327.9039	0.1063
328.1144	0.1033
328.3249	0.0999
328.5354	0.1006
328.7459	0.1042
328.9564	0.1041
329.1669	0.1019
329.3773	0.1017
329.5878	0.1036
329.7982	0.1058
330.0086	0.1124
330.219	0.1065
330.4294	0.0992
330.6398	0.1104
330.8502	0.1065
331.0605	0.1031
331.2708	0.1038
331.4812	0.1074
331.6915	0.1069
331.9018	0.1021
332.1121	0.1111
332.3224	0.1056
332.5326	0.1
332.7429	0.1021
332.9531	0.1057
333.1633	0.1195
333.3735	0.1097
333.5837	0.1032
333.7939	0.1092
334.0041	0.1088
334.2143	0.1046
334.4244	0.1055
334.6346	0.1041
334.8447	0.1064
335.0548	0.1017
335.2649	0.0995
335.475	0.1103
335.685	0.1159
335.8951	0.1016
336.1051	0.1038
336.3152	0.1094
336.5252	0.1077
336.7352	0.1094
336.9452	0.103
337.1552	0.1106
337.3652	0.1129
337.5751	0.1188
337.7851	0.108
337.995	0.1175
338.2049	0.1072
338.4148	0.1138
338.6247	0.1063
338.8346	0.1045
339.0445	0.1089
339.2543	0.1121
339.4642	0.1215
339.674	0.1128
339.8838	0.1093
340.0936	0.1215
340.3034	0.1192
340.5132	0.1198
340.7229	0.117
340.9327	0.1207
341.1424	0.1164
341.3522	0.1201
341.5619	0.1277
341.7716	0.1221
341.9813	0.1254
342.1909	0.1217
342.4006	0.1161
342.6102	0.1157
342.8199	0.1264
343.0295	0.1198
343.2391	0.1357
343.4487	0.1276
343.6583	0.1231
343.8679	0.1187
344.0774	0.1217
344.287	0.132
344.4965	0.1184
344.706	0.1278
344.9155	0.1211
345.125	0.1268
345.3345	0.1306
345.544	0.127
345.7534	0.1317
345.9629	0.135
346.1723	0.1346
346.3817	0.1318
346.5911	0.1299
346.8005	0.1337
347.0099	0.1239
347.2193	0.1357
347.4286	0.1376
347.638	0.1328
347.8473	0.1381
348.0566	0.1382
348.2659	0.1328
348.4752	0.1354
348.6845	0.1405
348.8937	0.1343
349.103	0.1382
349.3122	0.1361
349.5214	0.1415
349.7306	0.1348
349.9398	0.1345
350.149	0.1395
350.3582	0.1315
350.5674	0.1333
350.7765	0.1359
350.9856	0.1296
351.1948	0.1444
351.4039	0.1359
351.613	0.1376
351.822	0.1435
352.0311	0.1389
352.2402	0.1406
352.4492	0.1418
352.6582	0.1395
352.8672	0.1373
353.0762	0.1515
353.2852	0.1531
353.4942	0.1528
353.7032	0.1478
353.9121	0.1547
354.1211	0.1469
354.33	0.14
354.5389	0.1461
354.7478	0.1522
354.9567	0.1484
355.1655	0.1481
355.3744	0.1552
355.5833	0.1448
355.7921	0.1475
356.0009	0.1515
356.2097	0.1493
356.4185	0.1551
356.6273	0.1597
356.8361	0.1497
357.0448	0.1576
357.2536	0.1523
357.4623	0.1446
357.671	0.1604
357.8797	0.165
358.0884	0.1622
358.2971	0.1675
358.5057	0.1594
358.7144	0.1622
358.923	0.1739
359.1316	0.1631
359.3402	0.1793
359.5488	0.1647
359.7574	0.17
359.966	0.172
360.1746	0.1732
360.3831	0.18
360.5916	0.184
360.8002	0.1736
361.0087	0.1652
361.2172	0.1791
361.4256	0.1747
361.6341	0.1767
361.8426	0.1769
362.051	0.1734
362.2594	0.1814
362.4678	0.1784
362.6762	0.1779
362.8846	0.1772
363.093	0.1809
363.3014	0.1857
363.5097	0.1847
363.718	0.1828
363.9264	0.1807
364.1347	0.192
364.343	0.1783
364.5513	0.1889
364.7595	0.1832
364.9678	0.1841
365.176	0.1922
365.3842	0.1804
365.5925	0.1886
365.8007	0.1912
366.0089	0.194
366.217	0.1949
366.4252	0.1933
366.6333	0.1911
366.8415	0.1884
367.0496	0.2005
367.2577	0.1974
367.4658	0.1927
367.6739	0.2052
367.882	0.193
368.09	0.1948
368.2981	0.2143
368.5061	0.196
368.7141	0.2057
368.9221	0.1912
369.1301	0.211
369.3381	0.2125
369.5461	0.2092
369.754	0.2103
369.962	0.2093
370.1699	0.2162
370.3778	0.2084
370.5857	0.2081
370.7936	0.2017
371.0015	0.2078
371.2093	0.2101
371.4172	0.2019
371.625	0.2155
371.8328	0.2236
372.0406	0.2169
372.2484	0.2104
372.4562	0.2089
372.664	0.2113
372.8717	0.211
373.0795	0.211
373.2872	0.219
373.4949	0.2065
373.7026	0.2166
373.9103	0.2199
374.118	0.2187
374.3256	0.226
374.5333	0.2091
374.7409	0.2141
374.9485	0.2218
375.1561	0.2126
375.3637	0.2104
375.5713	0.223
375.7789	0.2173
375.9864	0.2208
376.194	0.225
376.4015	0.2237
376.609	0.2225
376.8165	0.2144
377.024	0.216
377.2315	0.227
377.4389	0.2222
377.6464	0.2247
377.8538	0.2298
378.0612	0.2259
378.2686	0.2243
378.476	0.224
378.6834	0.2336
378.8908	0.2271
379.0981	0.2378
379.3055	0.2335
379.5128	0.2266
379.7201	0.2314
379.9274	0.2318
380.1347	0.2375
380.342	0.2282
380.5492	0.2384
380.7565	0.2407
380.9637	0.2394
381.1709	0.2343
381.3781	0.2285
381.5853	0.2444
381.7925	0.2356
381.9997	0.2319
382.2068	0.2433
382.4139	0.2381
382.6211	0.2401
382.8282	0.2411
383.0353	0.2296
383.2424	0.2361
383.4494	0.2458
383.6565	0.2405
383.8635	0.2453
384.0706	0.2404
384.2776	0.2371
384.4846	0.2491
384.6916	0.2383
384.8986	0.2414
385.1055	0.2457
385.3125	0.2463
385.5194	0.2492
385.7263	0.2437
385.9333	0.2471
386.1402	0.2404
386.347	0.2519
386.5539	0.2531
386.7608	0.2395
386.9676	0.2466
387.1744	0.2412
387.3813	0.2417
387.5881	0.2375
387.7948	0.2418
388.0016	0.2381
388.2084	0.2457
388.4151	0.2398
388.6219	0.2304
388.8286	0.2483
389.0353	0.2325
389.242	0.2442
389.4487	0.2246
389.6553	0.2414
389.862	0.2277
390.0686	0.2187
390.2753	0.2289
390.4819	0.2345
390.6885	0.2257
390.8951	0.2274
391.1016	0.2326
391.3082	0.2303
391.5147	0.2302
391.7213	0.2216
391.9278	0.2211
392.1343	0.2298
392.3408	0.2151
392.5473	0.221
392.7537	0.2243
392.9602	0.2177
393.1666	0.224
393.373	0.216
393.5794	0.2257
393.7858	0.2107
393.9922	0.2027
394.1986	0.2072
394.4049	0.2185
394.6113	0.2194
394.8176	0.2009
395.0239	0.2093
395.2302	0.2008
395.4365	0.1959
395.6428	0.2081
395.8491	0.2024
396.0553	0.2063
396.2615	0.2089
396.4678	0.2162
396.674	0.2125
396.8802	0.2014
397.0863	0.1975
397.2925	0.2031
397.4987	0.2076
397.7048	0.1989
397.9109	0.2056
398.117	0.2078
398.3231	0.2107
398.5292	0.1956
398.7353	0.1955
398.9413	0.2106
399.1474	0.2001
399.3534	0.2005
399.5594	0.1925
399.7654	0.1995
399.9714	0.2009
400.1774	0.2054
400.3833	0.2134
400.5893	0.1986
400.7952	0.2002
401.0011	0.202
401.207	0.1915
401.4129	0.19
401.6188	0.2017
401.8247	0.2004
402.0305	0.1975
402.2364	0.2087
402.4422	0.2007
402.648	0.2117
402.8538	0.2018
403.0596	0.1957
403.2654	0.2037
403.4711	0.1838
403.6768	0.2086
403.8826	0.1925
404.0883	0.1912
404.294	0.1989
404.4997	0.203
404.7054	0.1929
404.911	0.2037
405.1167	0.1984
405.3223	0.191
405.5279	0.2006
405.7335	0.2017
405.9391	0.197
406.1447	0.191
406.3502	0.1989
406.5558	0.198
406.7613	0.1951
406.9668	0.1892
407.1724	0.1925
407.3778	0.1964
407.5833	0.1974
407.7888	0.2027
407.9942	0.2001
408.1997	0.2124
408.4051	0.2119
408.6105	0.2012
408.8159	0.2088
409.0213	0.1976
409.2267	0.1963
409.432	0.1967
409.6374	0.2016
409.8427	0.2141
410.048	0.2023
410.2533	0.1929
410.4586	0.1999
410.6639	0.1913
410.8691	0.1898
411.0744	0.1933
411.2796	0.1983
411.4848	0.1976
411.69	0.196
411.8952	0.1817
412.1004	0.1996
412.3056	0.2087
412.5107	0.1929
412.7158	0.2057
412.921	0.198
413.1261	0.2039
413.3312	0.203
413.5362	0.1804
413.7413	0.1923
413.9464	0.2001
414.1514	0.1887
414.3564	0.1968
414.5614	0.1953
414.7664	0.1982
414.9714	0.1905
415.1764	0.194
415.3813	0.1913
415.5863	0.1842
415.7912	0.2007
415.9961	0.1923
416.201	0.1992
416.4059	0.1921
416.6108	0.186
416.8156	0.1926
417.0205	0.1879
417.2253	0.1867
417.4301	0.1845
417.6349	0.1838
417.8397	0.1945
418.0445	0.1858
418.2492	0.19
418.454	0.1818
418.6587	0.1852
418.8634	0.1915
419.0681	0.1878
419.2728	0.1859
419.4775	0.1797
419.6822	0.1848
419.8868	0.1854
420.0915	0.1789
420.2961	0.1845
420.5007	0.1831
420.7053	0.1841
420.9099	0.1696
421.1144	0.1832
421.319	0.1671
421.5235	0.1819
421.728	0.1722
421.9325	0.172
422.137	0.1571
422.3415	0.1798
422.546	0.1783
422.7504	0.1844
422.9549	0.1873
423.1593	0.1699
423.3637	0.1761
423.5681	0.1769
423.7725	0.1744
423.9769	0.1633
424.1812	0.1666
424.3856	0.1576
424.5899	0.1774
424.7942	0.1493
424.9985	0.1661
425.2028	0.1496
425.4071	0.1597
425.6113	0.165
425.8156	0.1601
426.0198	0.1635
426.224	0.1532
426.4282	0.149
426.6324	0.1598
426.8366	0.1597
427.0407	0.1489
427.2449	0.1614
427.449	0.1435
427.6531	0.1456
427.8572	0.1459
428.0613	0.147
428.2654	0.1504
428.4694	0.1468
428.6735	0.1642
428.8775	0.1459
429.0815	0.1426
429.2855	0.1549
429.4895	0.1357
429.6935	0.1358
429.8975	0.1363
430.1014	0.1373
430.3053	0.1389
430.5093	0.1368
430.7132	0.137
430.9171	0.1287
431.1209	0.1326
431.3248	0.1332
431.5286	0.1279
431.7325	0.1333
431.9363	0.1278
432.1401	0.1178
432.3439	0.122
432.5477	0.1252
432.7514	0.1249
432.9552	0.1142
433.1589	0.1191
433.3627	0.1186
433.5664	0.1214
433.7701	0.1177
433.9737	0.1082
434.1774	0.1168
434.3811	0.0984
434.5847	0.1095
434.7883	0.0956
434.9919	0.1002
435.1955	0.0985
435.3991	0.0955
435.6027	0.1032
435.8062	0.094
436.0098	0.0984
436.2133	0.09
436.4168	0.0999
436.6203	0.0964
436.8238	0.0868
437.0272	0.0884
437.2307	0.0889
437.4341	0.0834
437.6375	0.0973
437.841	0.0886
438.0443	0.0874
438.2477	0.0793
438.4511	0.0879
438.6545	0.0783
438.8578	0.0859
439.0611	0.0742
439.2644	0.0762
439.4677	0.0792
439.671	0.0785
439.8743	0.0734
440.0775	0.0637
440.2808	0.053
440.484	0.0731
440.6872	0.0609
440.8904	0.0604
441.0936	0.0649
441.2967	0.0585
441.4999	0.0529
441.703	0.0527
441.9062	0.0669
442.1093	0.064
442.3124	0.0531
442.5155	0.0482
442.7185	0.0474
442.9216	0.0646
443.1246	0.0561
443.3276	0.0538
443.5307	0.0554
443.7337	0.0582
443.9366	0.056
444.1396	0.0444
444.3426	0.0478
444.5455	0.036
444.7484	0.034
444.9513	0.0482
445.1542	0.0517
445.3571	0.0371
445.56	0.038
445.7628	0.0361
445.9657	0.048
446.1685	0.0361
446.3713	0.0332
446.5741	0.0392
446.7769	0.0447
446.9797	0.0301
447.1824	0.0341
447.3852	0.0321
447.5879	0.0357
447.7906	0.0322
447.9933	0.0265
448.196	0.0434
448.3986	0.021
448.6013	0.0297
448.8039	0.0261
449.0066	0.0278
449.2092	0.0222
449.4118	0.0275
449.6143	0.0296
449.8169	0.0112
450.0195	0.0139
450.222	0.0211
450.4245	0.0184
450.627	0.0196
450.8295	0.01
451.032	0.0222
451.2345	0.0106
451.4369	0.0241
451.6394	0.0155
451.8418	0.0106
452.0442	0.0127
452.2466	0.0217
452.449	0.0195
452.6513	0.0135
452.8537	0.0223
453.056	0.0163
453.2583	0.017
453.4607	0.0164
453.663	0.0231
453.8652	0.0118
454.0675	0.0136
454.2697	0.0189
454.472	0.017
454.6742	0.0138
454.8764	0.0145
455.0786	0.0209
455.2808	0.0072
455.4829	0.0079
455.6851	0.0047
455.8872	0.0058
456.0893	0.0022
456.2915	0.0093
456.4935	0.0099
456.6956	0.0068
456.8977	0.0103
457.0997	0.0055
457.3018	0.0135
457.5038	0.0114
457.7058	0.0064
457.9078	0.0041
458.1098	0.0092
458.3117	0.003
458.5137	0.0077
458.7156	0.0121
458.9175	0.0041
459.1194	0.0084
459.3213	0.003
459.5232	0.0067
459.725	0.0047
459.9269	-0.0008
460.1287	0.0035
460.3305	0.0026
460.5323	0.0096
460.7341	0.0031
460.9359	-0.0037
461.1376	-0.002
461.3394	0.0014
461.5411	0.0046
461.7428	-0.0114
461.9445	0.0032
462.1462	-0.0056
462.3479	-0.0002
462.5495	-0.0008
462.7512	-0.0012
462.9528	-0.0048
463.1544	0.0045
463.356	0.0058
463.5576	-0.0003
463.7592	-0.0038
463.9607	0.0013
464.1623	0.0042
464.3638	0.0016
464.5653	0.0093
464.7668	0.0096
464.9683	0.0015
465.1697	-0.0029
465.3712	0.0073
465.5726	-0.0031
465.7741	-0.0131
465.9755	0.001
466.1769	-0.0126
466.3782	-0.0017
466.5796	-0.0085
466.7809	-0.001
466.9823	-0.0067
467.1836	-0.0059
467.3849	-0.0047
467.5862	-0.0072
467.7875	-0.0092
467.9887	-0.0034
468.19	-0.0125
468.3912	-0.0043
468.5924	0.0007
468.7936	-0.0128
468.9948	0.0102
469.196	-0.0039
469.3972	-0.0027
469.5983	0.01
469.7994	-0.0128
470.0006	-0.008
470.2017	0.0059
470.4027	-0.0002
470.6038	-0.0022
470.8049	-0.0073
471.0059	-0.0045
471.2069	0.0095
471.408	-0.0043
471.6089	0.0012
471.8099	-0.0088
472.0109	-0.009
472.2119	-0.014
472.4128	0.0047
472.6137	-0.0089
472.8146	-0.0048
473.0155	-0.0101
473.2164	-0.0147
473.4173	-0.0044
473.6181	-0.0004
473.819	-0.0082
474.0198	0.0007
474.2206	-0.0115
474.4214	-0.001
474.6222	-0.0015
474.8229	-0.0082
475.0237	0.0013
475.2244	-0.0033
475.4251	-0.0111
475.6258	0.006
475.8265	-0.0025
476.0272	-0.0027
476.2278	0.0011
476.4285	-0.0044
476.6291	-0.0074
476.8297	-0.0102
477.0303	-0.0126
477.2309	0.0022
477.4315	0.0029
477.632	-0.01
477.8326	-0.0042
478.0331	-0.0087
478.2336	0.001
478.4341	-0.0072
478.6346	0.0013
478.8351	-0.0062
479.0355	-0.0048
479.236	-0.0018
479.4364	-0.0025
479.6368	-0.0001
479.8372	-0.0081
480.0376	-0.0027
480.2379	-0.0043
480.4383	-0.0047
480.6386	-0.012
480.8389	-0.0062
481.0392	-0.0125
481.2395	-0.0157
481.4398	-0.0005
481.6401	-0.0043
481.8403	-0.0058
482.0405	-0.0126
482.2408	0.0026
482.441	-0.0037
482.6411	0.0027
482.8413	-0.0025
483.0415	-0.0112
483.2416	-0.0057
483.4417	-0.0056
483.6419	-0.0023
483.8419	-0.0112
484.042	-0.0018
484.2421	-0.0067
484.4422	-0.0071
484.6422	-0.0112
484.8422	-0.0119
485.0422	-0.0077
485.2422	-0.0053
485.4422	-0.0019
485.6422	-0.0051
485.8421	-0.0032
486.042	0.001
486.242	-0.0062
486.4419	-0.0044
486.6417	-0.0094
486.8416	-0.002
487.0415	-0.0044
487.2413	-0.0062
487.4411	-0.0006
487.641	-0.0079
487.8408	-0.0072
488.0405	-0.0076
488.2403	-0.0012
488.4401	-0.0045
488.6398	-0.0057
488.8395	-0.0069
489.0392	-0.004
489.2389	-0.0099
489.4386	-0.0022
489.6383	-0.0026
489.8379	-0.0067
490.0376	-0.0016
490.2372	0.0006
490.4368	-0.0168
490.6364	0.0011
490.836	-0.0009
491.0355	-0.0042
491.2351	-0.0019
491.4346	-0.0157
491.6341	-0.0106
491.8336	-0.0072
492.0331	-0.006
492.2326	-0.0084
492.432	-0.0055
492.6315	-0.0059
492.8309	-0.0102
493.0303	-0.002
493.2297	-0.0064
493.4291	-0.0067
493.6284	0.0039
493.8278	-0.0053
494.0271	-0.0016
494.2264	-0.0028
494.4257	0.0048
494.625	-0.0042
494.8243	-0.002
495.0236	-0.0154
495.2228	-0.0084
495.422	-0.0074
495.6213	-0.0156
495.8205	0.0027
496.0196	-0.0048
496.2188	-0.0025
496.418	0.0011
496.6171	-0.004
496.8162	-0.0063
497.0153	0.0038
497.2144	-0.0005
497.4135	-0.0043
497.6126	-0.0067
497.8116	-0.0043
498.0107	-0.0071
498.2097	-0.0022
498.4087	-0.0064
498.6077	-0.0045
498.8067	-0.0051
499.0056	0.0008
499.2046	0.0012
499.4035	-0.0153
499.6024	-0.0075
499.8013	-0.0016
500.0002	-0.0048
500.199	-0.0022
500.3979	-0.0006
500.5967	-0.0081
500.7956	-0.0157
500.9944	-0.006
501.1932	-0.0055
501.3919	-0.0121
501.5907	-0.0059
501.7895	-0.0069
501.9882	-0.0083
502.1869	-0.0069
502.3856	-0.0021
502.5843	-0.0092
502.783	-0.003
502.9816	-0.0076
503.1803	-0.0088
503.3789	-0.0063
503.5775	-0.0072
503.7761	-0.0055
503.9747	-0.0057
504.1732	-0.0045
504.3718	-0.0005
504.5703	-0.0102
504.7689	-0.0121
504.9674	-0.004
505.1658	-0.0069
505.3643	-0.0009
505.5628	0.0007
505.7612	-0.012
505.9597	-0.0017
506.1581	-0
506.3565	-0.0116
506.5549	-0.0086
506.7532	-0.0169
506.9516	0.0024
507.1499	-0.0065
507.3482	-0.0062
507.5465	-0.0039
507.7448	-0.0042
507.9431	-0.0066
508.1414	-0.0047
508.3396	-0.0072
508.5379	0.0011
508.7361	-0.0015
508.9343	-0.0087
509.1325	-0.0055
509.3306	-0.0009
509.5288	-0.0021
509.7269	-0.0121
509.9251	-0.0071
510.1232	-0.0019
510.3213	-0.0141
510.5193	0.0027
510.7174	-0.0042
510.9154	-0.0043
511.1135	-0.0106
511.3115	-0.0089
511.5095	-0.0031
511.7075	-0.0025
511.9055	-0.0069
512.1034	-0.0088
512.3014	-0.009
512.4993	-0.0025
512.6972	-0.0093
512.8951	-0.0025
513.093	-0.0077
513.2908	0
513.4887	-0.0034
513.6865	-0.0051
513.8844	-0.003
514.0822	-0.002
514.2799	-0.0038
514.4777	-0.0021
514.6755	-0.0025
514.8732	-0.0107
515.0709	-0.0105
515.2687	-0.0078
515.4664	-0.0078
515.664	-0.0105
515.8617	-0.008
516.0594	-0.0066
516.257	-0.0046
516.4546	-0.0115
516.6522	-0.0029
516.8498	-0.0137
517.0474	-0.0031
517.2449	-0.0124
517.4425	-0.003
517.64	-0.0092
517.8375	-0.0053
518.035	-0.0001
518.2325	-0.0151
518.43	-0.0028
518.6274	-0.0082
518.8249	-0.0005
519.0223	-0.0085
519.2197	-0.0078
519.4171	-0.0088
519.6145	-0.0092
519.8118	-0.0105
520.0092	-0.0077
520.2065	-0.0113
520.4038	-0.0037
520.6011	-0.0061
520.7984	-0.0098
520.9956	-0.0097
521.1929	-0.005
521.3901	-0.0054
521.5874	-0.0093
521.7846	0.0038
521.9818	-0.0058
522.1789	-0.0034
522.3761	-0.0112
522.5732	-0.0028
522.7704	-0.0126
522.9675	-0.0051
523.1646	-0.0011
523.3617	-0.0024
523.5587	-0.0127
523.7558	0.0035
523.9528	-0.0084
524.1498	-0.0106
524.3468	-0.0011
524.5438	-0.0073
524.7408	-0.0096
524.9378	-0.0092
525.1347	-0.0056
525.3316	0.0024
525.5285	-0.0061
525.7254	-0.0156
525.9223	0.0008
526.1192	-0.0051
526.316	0.0025
526.5129	-0.0045
526.7097	-0.0073
526.9065	-0.004
527.1033	-0.0021
527.3	-0.0038
527.4968	-0.008
527.6935	-0.0008
527.8903	-0.0022
528.087	-0.0039
528.2837	-0.0029
528.4804	-0.0034
528.677	-0.0056
528.8737	-0.0129
529.0703	0.0018
529.2669	0.0053
529.4635	-0.0052
529.6601	-0.0059
529.8567	-0.0097
530.0532	-0.0064
530.2498	-0.0094
530.4463	-0.0076
530.6428	-0.0008
530.8393	-0.0008
531.0358	-0.0118
531.2322	-0.0057
531.4287	-0.0127
531.6251	-0.009
531.8215	-0.0039
532.0179	-0.0058
532.2143	-0.0048
532.4107	0.0007
532.607	-0.0055
532.8034	-0.0067
532.9997	-0.0057
533.196	-0.0046
533.3923	-0.0033
533.5886	-0.0024
533.7848	-0.004
533.9811	-0.004
534.1773	-0.0067
534.3735	-0.0049
534.5697	-0.011
534.7659	-0.0044
534.9621	-0.0052
535.1582	-0.0087
535.3544	-0.0103
535.5505	-0.0025
535.7466	-0.0015
535.9427	-0.0026
536.1387	0.0011
536.3348	0.0011
536.5308	-0.0026
536.7269	-0.0021
536.9229	-0.0029
537.1189	-0.009
537.3148	0.0016
537.5108	0.0011
537.7068	-0.0047
537.9027	-0.0106
538.0986	0.0017
538.2945	-0.0021
538.4904	-0.0079
538.6863	-0.0046
538.8821	-0.0027
539.078	-0.0131
539.2738	-0.0106
539.4696	-0.0137
539.6654	-0.0052
539.8611	-0.0114
540.0569	0.0005
540.2526	-0.0021
540.4484	0.0051
540.6441	-0.0002
540.8398	-0.0101
541.0355	-0.0071
541.2311	0.0033
541.4268	0.0063
541.6224	0.0046
541.818	-0.0055
542.0136	-0.0003
542.2092	-0.001
542.4048	-0.0047
542.6003	-0.005
542.7959	0.0045
542.9914	-0.0037
543.1869	-0.0047
543.3824	-0.006
543.5779	-0.0135
543.7734	-0.0059
543.9688	-0.0143
544.1642	-0.0113
544.3596	-0.0092
544.555	-0.0024
544.7504	-0.0035
544.9458	-0.0073
545.1411	0.0084
545.3365	-0.0015
545.5318	0.0051
545.7271	-0.0009
545.9224	-0.0036
546.1177	-0.0087
546.3129	-0.0025
546.5081	-0.0025
546.7034	-0.0107
546.8986	-0.0045
547.0938	-0.0003
547.289	-0.0038
547.4841	-0.0084
547.6793	-0.0075
547.8744	0.001
548.0695	-0.0034
548.2646	-0.0097
548.4597	-0.001
548.6548	-0.0043
548.8498	-0.0047
549.0448	0.0022
549.2399	-0.0038
549.4349	-0.0006
549.6298	-0.0031
549.8248	-0.0028
550.0198	-0.0016
550.2147	-0.0017
550.4096	-0.0068
550.6045	-0.0042
550.7994	-0.0029
550.9943	-0.0025
551.1892	-0.0033
551.384	-0.0136
551.5788	-0.0081
551.7737	-0.0017
551.9685	-0.0034
552.1632	-0.0041
552.358	-0.0119
552.5528	-0.0044
552.7475	-0.014
552.9422	-0.0081
553.1369	-0.0088
553.3316	-0.0041
553.5263	-0.0056
553.7209	-0.0024
553.9156	-0.0002
554.1102	-0.0066
554.3048	-0.0098
554.4994	-0.0066
554.694	0.0039
554.8885	-0.001
555.0831	-0.0038
555.2776	-0.0013
555.4721	-0.0049
555.6666	-0.0091
555.8611	-0.0095
556.0555	-0.01
556.25	-0.0037
556.4444	-0.0084
556.6388	-0.0085
556.8332	-0.0009
557.0276	-0.0052
557.222	-0.0043
557.4163	-0.0021
557.6107	-0.0084
557.805	-0.001
557.9993	-0.0037
558.1936	-0.0082
558.3879	0.0011
558.5821	-0.0062
558.7764	-0.0107
558.9706	0.0011
559.1648	-0.0063
559.359	-0.0163
559.5532	-0.0061
559.7473	-0.0079
559.9415	-0.0091
560.1356	-0.0082
560.3297	-0.0088
560.5238	-0.0083
560.7179	-0.0021
560.9119	-0.0046
561.106	-0.006
561.3	-0.001
561.494	-0.0006
561.688	-0.0087
561.882	-0.0078
562.076	-0.0064
562.2699	-0.0065
562.4639	-0.0097
562.6578	-0.0076
562.8517	-0.0047
563.0456	-0.0012
563.2395	0.0004
563.4333	-0.0007
563.6272	-0.0101
563.821	-0.0043
564.0148	-0.0002
564.2086	-0.0067
564.4024	-0.0042
564.5961	-0.0005
564.7899	0.0022
564.9836	-0.0034
565.1773	-0.0031
565.371	-0.0036
565.5647	-0.0026
565.7584	-0.0016
565.952	-0.0034
566.1456	-0.0026
566.3393	-0.0044
566.5329	-0.0031
566.7264	-0.0016
566.92	0.0039
567.1136	-0.0026
567.3071	0.0023
567.5006	-0.0009
567.6941	-0.0001
567.8876	-0.0008
568.0811	-0.0005
568.2745	-0.0071
568.468	-0.0066
568.6614	-0.0103
568.8548	-0.0116
569.0482	-0.0058
569.2416	-0.0072
569.4349	-0.0031
569.6283	-0.0036
569.8216	-0.0084
570.0149	-0.0087
570.2082	-0.0013
570.4015	-0.0001
570.5947	-0.0018
570.788	-0.0078
570.9812	-0.004
571.1744	-0.0079
571.3676	-0.0077
571.5608	-0.0012
571.754	-0.0048
571.9471	-0.005
572.1402	-0.0056
572.3333	-0.0027
572.5264	-0.004
572.7195	-0.002
572.9126	-0.0026
573.1057	-0.0077
573.2987	0.0008
573.4917	-0.0065
573.6847	-0.0057
573.8777	-0.0054
574.0707	-0.0045
574.2636	-0.0032
574.4566	-0.0017
574.6495	-0.0056
574.8424	-0.0034
575.0353	-0.0036
575.2281	0.0004
575.421	-0.0064
575.6138	-0.0038
575.8067	-0.0024
575.9995	-0.0006
576.1923	-0.0059
576.385	-0.0068
576.5778	-0.0002
576.7706	-0.0016
576.9633	-0.0053
577.156	-0.0013
577.3487	0.001
577.5414	0.0025
577.734	0.0038
577.9267	0.0027
578.1193	-0.0072
578.3119	0.0015
578.5045	-0.0043
578.6971	-0.0018
578.8897	-0.006
579.0822	-0.0015
579.2747	0.0022
579.4673	-0.0037
579.6598	-0.002
579.8522	0.0016
580.0447	-0.007
580.2372	0.0009
580.4296	0.0021
580.622	0.0017
580.8144	-0.0056
581.0068	-0.0013
581.1992	0.0038
581.3915	0.0004
581.5839	-0.0024
581.7762	-0.0043
581.9685	0.0008
582.1608	-0.0051
582.353	-0.0011
582.5453	-0.0052
582.7375	-0.0007
582.9298	0.0012
583.122	0.0012
583.3142	-0.0002
583.5063	-0.0044
583.6985	-0.0032
583.8906	-0.0065
584.0827	-0.0012
584.2749	-0.0039
584.4669	-0.0037
584.659	-0.0072
584.8511	-0.0042
585.0431	-0.0025
585.2352	-0.0045
585.4272	-0.0074
585.6192	-0.0056
585.8111	-0.0053
586.0031	-0.0027
586.195	-0.0079
586.387	-0.0057
586.5789	-0.0029
586.7708	-0.0084
586.9627	-0.0037
587.1545	-0.0058
587.3464	-0.0079
587.5382	-0.0053
587.73	-0.0061
587.9218	-0.0037
588.1136	-0.0004
588.3053	-0.0023
588.4971	-0.0067
588.6888	-0.0056
588.8805	-0.0071
589.0722	0.0005
589.2639	-0.0059
589.4556	-0.0064
589.6472	-0.0007
589.8389	-0.0002
590.0305	-0.0011
590.2221	-0.0037
590.4137	-0.0055
590.6052	-0.0008
590.7968	-0.0024
590.9883	-0.0002
591.1798	-0.0101
591.3713	0.0024
591.5628	-0.0046
591.7543	-0.0016
591.9458	-0.0015
592.1372	-0.0008
592.3286	-0.0014
592.52	-0.0016
592.7114	0.0051
592.9028	-0.0038
593.0941	0.0002
593.2855	-0.0002
593.4768	0.0009
593.6681	-0
593.8594	0.0035
594.0506	0.0032
594.2419	0.0089
594.4331	-0.0061
594.6244	0.0001
594.8156	-0.0045
595.0067	0.0005
595.1979	-0.006
595.3891	-0.0053
595.5802	-0.0069
595.7713	-0.0023
595.9624	-0.001
596.1535	0.0022
596.3446	-0.0019
596.5357	-0.0002
596.7267	-0.0013
596.9177	-0.0004
597.1087	-0.0012
597.2997	0.0034
597.4907	-0.0029
597.6817	-0.0042
597.8726	-0.006
598.0635	-0.0062
598.2544	-0.0027
598.4453	-0.0071
598.6362	-0.0064
598.827	-0.0076
599.0179	-0.001
599.2087	-0.0115
599.3995	-0.0092
599.5903	0.0001
599.7811	-0.0041
599.9718	-0.002
600.1626	0.003
600.3533	0.0015
600.544	-0.0018
600.7347	-0.0033
600.9254	-0.0002
601.116	-0.0065
601.3067	-0.0042
601.4973	-0.0065
601.6879	-0.0033
601.8785	-0.0035
602.0691	-0.0048
602.2596	-0.0056
602.4502	-0.0038
602.6407	0.0015
602.8312	-0.0031
603.0217	-0.0014
603.2122	-0.0003
603.4027	-0.0022
603.5931	-0.0048
603.7835	-0.0015
603.9739	-0.003
604.1643	-0.0061
604.3547	0.0024
604.5451	-0.0004
604.7354	-0.0035
604.9257	-0.0051
605.116	-0.0007
605.3063	0.0009
605.4966	-0.0016
605.6869	-0.0037
605.8771	-0.0004
606.0673	-0.0034
606.2575	-0.0064
606.4477	-0.0067
606.6379	-0.0088
606.8281	-0.0058
607.0182	-0.0082
607.2083	-0.0033
607.3985	-0.0052
607.5885	-0.0044
607.7786	-0.006
607.9687	0.0012
608.1587	-0.0057
608.3488	-0.0016
608.5388	0.0013
608.7288	-0.0026
608.9187	-0.0037
609.1087	-0.0051
609.2986	0.0012
609.4886	-0.002
609.6785	-0.0018
609.8684	-0.0061
610.0582	-0.0029
610.2481	-0.0022
610.4379	-0.0005
610.6278	-0.0009
610.8176	0.0021
611.0074	-0.0052
611.1971	-0
611.3869	-0.004
611.5766	-0.0008
611.7664	-0.0019
611.9561	-0.0014
612.1458	-0.0025
612.3354	-0.007
612.5251	-0.0106
612.7147	-0.0023
612.9044	-0.009
613.094	-0.0004
613.2836	-0.0034
613.4731	-0.007
613.6627	-0.0042
613.8522	-0.0032
614.0417	-0.0046
614.2313	-0.0041
614.4207	0.0004
614.6102	0.0016
614.7997	-0.0057
614.9891	0.0004
615.1785	-0.0061
615.3679	0.0003
615.5573	-0.0035
615.7467	-0.0047
615.9361	-0.0008
616.1254	-0.0082
616.3147	-0.0004
616.504	-0.0041
616.6933	-0.0061
616.8826	-0.0047
617.0718	-0.0043
617.2611	0.001
617.4503	0.0001
617.6395	-0.0067
617.8287	-0.0037
618.0179	0.0031
618.207	-0.0084
618.3961	-0.0049
618.5853	-0.0033
618.7744	-0.0009
618.9634	0.0046
619.1525	-0.0039
619.3416	-0.0087
619.5306	-0.0019
619.7196	-0.0018
619.9086	0.001
620.0976	-0.0015
620.2866	-0
620.4755	-0.0061
620.6645	-0.0025
620.8534	0.0003
621.0423	-0.0071
621.2312	-0.0061
621.42	-0.0007
621.6089	-0.0054
621.7977	-0.0054
621.9865	-0.0012
622.1753	0.0011
622.3641	-0.0003
622.5529	0.0023
622.7416	-0.0025
622.9303	0.0034
623.1191	-0.0046
623.3078	0.0021
623.4964	-0.0007
623.6851	-0.0003
623.8737	-0.0014
624.0624	0.0021
624.251	0.0022
624.4396	-0.0022
624.6282	-0.0042
624.8167	-0.0004
625.0053	-0.0028
625.1938	-0.0021
625.3823	0.0014
625.5708	0.0008
625.7593	-0.0026
625.9477	-0.0089
626.1362	-0.003
626.3246	-0.0017
626.513	-0.0037
626.7014	-0.0038
626.8898	-0.0029
627.0781	-0.0042
627.2665	-0.0028
627.4548	-0.0119
627.6431	-0.0053
627.8314	-0.004
628.0197	-0.0035
628.2079	-0.0007
628.3962	-0.0017
628.5844	0.0024
628.7726	0.0023
628.9608	-0.0033
629.1489	-0.0005
629.3371	0.0054
629.5252	0.0029
629.7134	-0.0059
629.9015	-0.0045
630.0895	0.0001
630.2776	-0.0027
630.4657	-0.0047
630.6537	0.0008
630.8417	-0.0019
631.0297	-0.0047
631.2177	0.0014
631.4057	0.0016
631.5936	0.0008
631.7815	-0.0036
631.9695	-0.0035
632.1574	-0.0093
632.3452	-0.0083
632.5331	-0.0063
632.7209	-0.0076
632.9088	-0.0096
633.0966	-0.0035
633.2844	-0.0082
633.4722	-0.0041
633.6599	0.0012
633.8477	-0.0014
634.0354	-0.0048
634.2231	-0.007
634.4108	-0.0003
634.5985	-0.0026
634.7861	-0.0022
634.9738	-0.006
635.1614	-0.0055
635.349	-0.0003
635.5366	-0.0036
635.7242	0.0003
635.9117	-0.002
636.0993	-0.0025
636.2868	-0.0019
636.4743	-0.0033
636.6618	-0.0043
636.8492	-0.0015
637.0367	-0.0021
637.2241	-0.0053
637.4115	-0.0057
637.5989	-0.0042
637.7863	-0.0008
637.9737	-0.0057
638.161	-0.002
638.3484	-0.0026
638.5357	-0.0001
638.723	-0.0064
638.9103	-0.0011
639.0975	0.0003
639.2848	-0.0023
639.472	0.0042
639.6592	0.0043
639.8464	-0.0055
640.0336	-0.0057
640.2208	0.0002
640.4079	-0.0033
640.595	0.0007
640.7821	-0.0006
640.9692	0.0003
641.1563	0.0039
641.3434	0.0021
641.5304	-0.0011
641.7174	0.0019
641.9044	0.0006
642.0914	0.0023
642.2784	0.002
642.4653	0.0015
642.6523	0.0002
642.8392	0.003
643.0261	0.0073
643.213	-0.0004
643.3999	-0.0004
643.5867	0.0003
643.7735	0.0006
643.9604	0.001
644.1472	-0.0032
644.3339	0.001
644.5207	-0.0078
644.7075	-0.0082
644.8942	-0.0029
645.0809	0.0003
645.2676	-0.0038
645.4543	0.0016
645.6409	-0.0014
645.8276	-0.0009
646.0142	-0.0061
646.2008	-0.0097
646.3874	-0.0028
646.574	-0.0022
646.7605	-0.0052
646.9471	-0.0098
647.1336	-0.0041
647.3201	-0.0047
647.5066	0.002
647.6931	0.0002
647.8795	-0.0061
648.0659	-0.0042
648.2524	-0.0073
648.4388	-0.0011
648.6252	-0.0051
648.8115	-0.0101
648.9979	-0.0022
649.1842	-0.008
649.3705	-0.0042
649.5568	-0.0024
649.7431	-0.0043
649.9294	-0.0003
650.1156	-0.007
650.3018	-0.0071
650.488	-0.0082
650.6742	-0.0072
650.8604	-0.0036
651.0466	-0.0026
651.2327	-0.0059
651.4188	-0.0008
651.6049	0.0017
651.791	0.0012
651.9771	0.0005
652.1632	0.0006
652.3492	0.0012
652.5352	-0.0055
652.7212	0.0012
652.9072	0.0043
653.0932	0.002
653.2791	0.0024
653.465	-0.0028
653.651	-0.0041
653.8369	-0.0037
654.0227	-0.0018
654.2086	0.0041
654.3944	-0.0106
654.5803	-0.008
654.7661	-0.0047
654.9519	-0.0036
655.1377	-0.004
655.3234	-0
655.5092	-0
655.6949	-0
655.8806	-0
656.0663	-0
656.2519	-0
656.4376	-0.0047
656.6232	-0.004
656.8088	-0.0036
656.9945	-0.0013
657.18	-0.0012
657.3656	-0.0029
657.5511	-0.0061
657.7367	-0.0015
657.9222	-0.0015
658.1077	0.0007
658.2932	-0.0035
658.4786	0.0016
658.6641	-0.0036
658.8495	-0.0046
659.0349	-0.0014
659.2203	-0.0069
659.4057	-0.0088
659.591	-0.0002
659.7764	-0.009
659.9617	-0.0065
660.147	-0.002
660.3323	-0.0017
660.5176	-0.0044
660.7028	-0.0077
660.888	-0.0031
661.0733	0.0001
661.2585	-0.0054
661.4436	-0.0046
661.6288	-0.0051
661.8139	-0.0022
661.9991	-0.001
662.1842	-0.0015
662.3693	-0.0034
662.5544	0.0033
662.7394	-0.0014
662.9245	0.0026
663.1095	0.0006
663.2945	-0.0014
663.4795	-0.0048
663.6644	-0.0079
663.8494	-0.0097
664.0343	-0.0052
664.2193	-0.0085
664.4042	-0.013
664.589	-0.0027
664.7739	-0.0056
664.9587	0.0008
665.1436	-0.0007
665.3284	-0.0043
665.5132	-0.0029
665.698	0.0025
665.8827	0.0048
666.0675	-0.0054
666.2522	-0.0089
666.4369	-0.0093
666.6216	-0.0101
666.8063	-0.0061
666.9909	-0.0125
667.1756	-0.0081
667.3602	-0.009
667.5448	-0.0077
667.7294	-0.0061
667.9139	-0.0058
668.0985	-0.0098
668.283	-0.0061
668.4675	-0.0145
668.652	-0.0121
668.8365	-0.0077
669.0209	-0.0082
669.2054	-0.005
669.3898	-0.0061
669.5742	-0.0084
669.7586	-0.006
669.943	-0.0043
670.1273	-0.0103
670.3117	-0.002
670.496	-0.0066
670.6803	-0.0006
670.8646	-0.0017
671.0488	-0.0023
671.2331	-0.0019
671.4173	-0.0033
671.6015	-0.0016
671.7857	-0.0049
671.9699	-0.0049
672.1541	-0.004
672.3382	-0.0065
672.5223	-0.0046
672.7064	-0.0103
672.8905	-0.0145
673.0746	-0.0091
673.2587	-0.0126
673.4427	-0.0145
673.6267	-0.013
673.8107	-0.0125
673.9947	-0.0117
674.1787	-0.0095
674.3626	-0.0127
674.5465	-0.0043
674.7304	0.0025
674.9143	-0.0062
675.0982	-0.0018
675.2821	-0.0051
675.4659	-0.0024
675.6497	-0.0036
675.8335	-0.0062
676.0173	-0.0103
676.2011	-0.0091
676.3849	-0.0059
676.5686	-0.0018
676.7523	-0.0024
676.936	0.0002
677.1197	-0.0035
677.3034	-0.006
677.487	-0.0082
677.6706	-0.0051
677.8542	-0.0073
678.0378	-0.0057
678.2214	-0.0074
678.405	0.0022
678.5885	-0.0078
678.772	-0.0061
678.9555	-0.0035
679.139	-0.0068
679.3225	-0.0083
679.5059	-0.0078
679.6894	0.0011
679.8728	-0.004
680.0562	-0.001
680.2395	-0.0062
680.4229	-0.0044
680.6062	0.0046
680.7896	0.0013
680.9729	-0.0024
681.1562	-0.0028
681.3394	-0.0002
681.5227	-0.0033
681.7059	-0.0062
681.8891	-0.0047
682.0723	-0.0057
682.2555	-0.0046
682.4387	0.0004
682.6218	-0.0087
682.805	-0.004
682.9881	-0.0023
683.1712	0.0037
683.3542	-0.0049
683.5373	-0.0032
683.7203	-0.0003
683.9034	-0.0041
684.0864	-0.007
684.2694	-0.0061
684.4523	-0.0029
684.6353	-0.0032
684.8182	-0.0004
685.0011	-0.0069
685.184	-0.004
685.3669	-0.0052
685.5498	-0.0011
685.7326	0.0014
685.9154	-0.0064
686.0982	-0.0056
686.281	-0.0085
686.4638	-0.0047
686.6465	-0.0048
686.8293	-0.0044
687.012	-0.0039
687.1947	-0.0072
687.3774	-0.0066
687.56	-0.0069
687.7427	-0.0019
687.9253	0.0007
688.1079	0.0026
688.2905	-0.0002
688.4731	-0.0072
688.6556	-0.0032
688.8382	-0.0005
689.0207	-0.0006
689.2032	0.0012
689.3857	0.0041
689.5681	0.0017
689.7506	-0.0019
689.933	-0.0019
690.1154	-0.0028
690.2978	-0.0033
690.4802	-0.0036
690.6626	0.006
690.8449	0.0002
691.0272	-0.0006
691.2095	0.0014
691.3918	-0.0051
691.5741	-0.0026
691.7563	0.0003
691.9386	-0.0043
692.1208	-0.008
692.303	-0.0057
692.4852	-0.0012
692.6673	0.0017
692.8495	-0.0034
693.0316	-0.0047
693.2137	-0.0052
693.3958	-0.0035
693.5778	-0.0018
693.7599	-0.0094
693.9419	-0.009
694.1239	-0.0009
694.3059	-0.0095
694.4879	-0.0033
694.6699	-0.0079
694.8518	-0.0041
695.0337	-0.006
695.2157	-0.0071
695.3975	-0.0062
695.5794	-0.008
695.7613	-0.0079
695.9431	-0.0081
696.1249	-0.0053
696.3067	-0.0098
696.4885	-0.0021
696.6703	-0.004
696.852	-0.0008
697.0337	0.0006
697.2154	-0.0031
697.3971	-0.0073
697.5788	-0.006
697.7605	-0.0035
697.9421	-0.0047
698.1237	-0.0077
698.3053	-0.0029
698.4869	-0.0032
698.6685	-0.0059
698.85	-0.0043
699.0315	-0.0052
699.213	0.0028
699.3945	-0.0014
699.576	0.0074
699.7575	-0.0028
699.9389	-0.0026
700.1203	-0.0058
700.3017	-0.0072
700.4831	-0.0063
700.6645	-0.0069
700.8458	-0.0076
701.0271	-0.0042
701.2084	-0.0102
701.3897	-0.0062
701.571	0.0002
701.7523	0.0011
701.9335	0.0056
702.1147	0.0027
702.2959	-0.0079
702.4771	-0.0007
702.6583	0.0043
702.8394	-0.0073
703.0205	-0.0009
703.2016	-0.0018
703.3827	0.0042
703.5638	-0.0074
703.7449	-0.0055
703.9259	-0.0069
704.1069	0.0008
704.2879	-0.0025
704.4689	-0.0061
704.6499	-0.0014
704.8308	-0.0032
705.0117	0.0001
705.1927	-0.0026
705.3735	-0.0015
705.5544	0.0033
705.7353	0.0025
705.9161	0.0014
706.0969	0.002
706.2777	-0.0044
706.4585	-0.0081
706.6393	-0.0036
706.82	-0.0055
707.0007	-0.0069
707.1815	-0.0015
707.3621	-0.0057
707.5428	-0.0014
707.7235	-0.0017
707.9041	-0.0001
708.0847	-0.0027
708.2653	-0.0003
708.4459	-0.0044
708.6265	-0.0047
708.807	0.005
708.9875	-0.0043
709.168	-0.0115
709.3485	-0.0012
709.529	-0.0061
709.7095	-0.0075
709.8899	-0.0106
710.0703	0.0014
710.2507	-0.0055
710.4311	-0.0044
710.6115	0.0029
710.7918	-0.004
710.9721	-0.005
711.1524	-0.0001
711.3327	0
711.513	-0.0055
711.6932	-0.0076
711.8735	0.0021
712.0537	-0.0025
712.2339	-0
712.4141	-0.0029
712.5942	0.0037
712.7744	0.0011
712.9545	-0.0017
713.1346	-0.0044
713.3147	0.0008
713.4947	0.0013
713.6748	-0.0018
713.8548	-0.0109
714.0348	0.0004
714.2148	-0.0035
714.3948	-0.008
714.5748	-0.0095
714.7547	-0.0016
714.9346	-0.0005
715.1145	-0.0053
715.2944	0.0006
715.4743	-0.0095
715.6541	-0.0039
715.834	-0.0047
716.0138	0.0004
716.1936	0.0034
716.3733	-0.008
716.5531	-0.0079
716.7328	-0.004
716.9126	-0.0027
717.0923	-0.0029
717.2719	-0.0119
717.4516	-0.0031
717.6312	0.0053
717.8109	-0.0025
717.9905	-0.0038
718.1701	-0.0042
718.3496	-0.0058
718.5292	-0.0008
718.7087	-0.0048
718.8882	-0.0044
719.0677	-0.005
719.2472	-0.0063
719.4267	-0.0144
719.6061	-0.0113
719.7856	-0.0037
719.965	-0.0055
720.1443	0.0001
720.3237	-0.008
720.5031	-0.0133
720.6824	-0.0031
720.8617	-0.0111
721.041	-0.002
721.2203	-0.0062
721.3995	-0.0061
721.5788	-0.0081
721.758	-0.0054
721.9372	-0.0068
722.1164	-0.0028
722.2956	-0.011
722.4747	-0.0079
722.6538	-0.0082
722.8329	-0.0033
723.012	-0.0055
723.1911	-0.0053
723.3702	-0.0018
723.5492	-0.0072
723.7282	-0.0053
723.9072	-0.0026
724.0862	0.0025
724.2652	-0.0078
724.4441	-0.007
724.623	-0.0006
724.8019	-0.0013
724.9808	-0.0033
725.1597	0.0025
725.3385	0.0011
725.5174	-0.0012
725.6962	-0.0085
725.875	0.0016
726.0538	0.0085
726.2325	-0.0067
726.4112	-0.0042
726.59	-0.0031
726.7687	-0.0011
726.9474	-0.0065
727.126	-0.0019
727.3047	-0.0078
727.4833	-0
727.6619	-0.0123
727.8405	-0.0025
728.0191	-0.0044
728.1976	-0.0081
728.3762	-0.0065
728.5547	-0.0104
728.7332	-0.0108
728.9116	-0.0096
729.0901	-0.0069
729.2686	-0.0127
729.447	-0.0043
729.6254	-0.0092
729.8038	-0.0062
729.9821	-0.0016
730.1605	0.0005
730.3388	-0.0004
730.5171	0.0019
730.6954	-0.0011
730.8737	-0.0009
731.0519	-0.0001
731.2302	0
731.4084	0.0081
731.5866	-0.0004
731.7648	0.0021
731.9429	0.0051
732.1211	0.0028
732.2992	0.0037
732.4773	-0.0029
732.6554	-0.0035
732.8335	-0.0113
733.0115	-0.0051
733.1896	-0.0109
733.3676	-0.0001
733.5456	-0.0038
733.7235	-0.0038
733.9015	0.0018
734.0794	-0.0022
734.2574	0.0002
734.4353	-0.0037
734.6131	0.0018
734.791	-0.004
734.9689	-0.0041
735.1467	-0.0008
735.3245	-0.0044
735.5023	-0.0054
735.68	-0.0066
735.8578	-0.0034
736.0355	0.0067
736.2132	-0.0029
736.3909	0.0008
736.5686	-0.0014
736.7463	-0.0057
736.9239	-0.009
737.1015	0.0019
737.2791	-0.0091
737.4567	-0.0027
737.6343	-0.0063
737.8118	-0.01
737.9894	0.0037
738.1669	-0.0003
738.3444	-0.0013
738.5218	-0.0016
738.6993	-0.0006
738.8767	-0.002
739.0541	-0.008
739.2315	-0.0022
739.4089	-0.0036
739.5863	-0.0105
739.7636	-0.0063
739.9409	-0.0018
740.1182	-0.002
740.2955	-0.0052
740.4728	-0.0036
740.65	0.0008
740.8272	0.0003
741.0044	-0.0051
741.1816	-0.0035
741.3588	0.0027
741.5359	-0.0029
741.7131	0.0037
741.8902	0.0021
742.0673	0.0036
742.2444	-0.0035
742.4214	-0.0071
742.5985	-0.0052
742.7755	-0.0038
742.9525	-0.0043
743.1295	-0.0058
743.3064	-0.0053
743.4834	0.0003
743.6603	-0.0075
743.8372	-0.0001
744.0141	-0.0001
744.191	-0.0053
744.3678	-0.0047
744.5446	0.002
744.7215	-0.0025
744.8982	0.0003
745.075	0.0001
745.2518	0.0007
745.4285	-0.0023
745.6052	0.002
745.7819	-0.0051
745.9586	0.0004
746.1353	-0.0062
746.3119	0.006
746.4885	-0.0061
746.6651	-0.0036
746.8417	-0.003
747.0183	-0.0036
747.1948	-0.0054
747.3714	-0.011
747.5479	-0.007
747.7244	0.0007
747.9008	-0.0018
748.0773	0.0077
748.2537	-0.0011
748.4301	0.0018
748.6065	-0.001
748.7829	0.0045
748.9593	0.0025
749.1356	-0.0106
749.3119	0.0001
749.4882	0.006
749.6645	-0.0059
749.8408	0.001
750.017	-0.0044
750.1933	-0.0053
750.3695	-0.0087
750.5457	-0.008
750.7218	-0.0083
750.898	-0.0055
751.0741	-0.0118
751.2502	0.0013
751.4263	-0.0071
751.6024	-0.0027
751.7784	0.0042
751.9545	-0.0018
752.1305	-0.0028
752.3065	-0.0073
752.4825	0.0013
752.6584	-0.004
752.8344	0.0037
753.0103	-0.0031
753.1862	0.0055
753.3621	-0.0063
753.5379	-0.0111
753.7138	0.0033
753.8896	-0.0154
754.0654	-0.0066
754.2412	-0.0118
754.417	-0.0105
754.5927	-0.0065
754.7685	-0.0122
754.9442	-0.0124
755.1199	-0.0089
755.2956	-0.0071
755.4712	-0.0047
755.6469	-0.0116
755.8225	-0.01
755.9981	-0.0062
756.1736	-0.0033
756.3492	-0.0063
756.5248	-0.0032
756.7003	-0.008
756.8758	-0.0097
757.0513	-0.0142
757.2267	-0.0107
757.4022	-0.0119
757.5776	-0.0092
757.753	-0.0094
757.9284	-0.0081
758.1038	-0.0016
758.2791	-0.0085
758.4545	-0.007
758.6298	-0.003
758.8051	-0.0099
758.9803	-0.0107
759.1556	-0.016
759.3308	-0.0017
759.506	-0.0104
759.6812	-0.0045
759.8564	-0.0081
760.0316	-0.0089
760.2067	-0.0063
760.3819	-0.0021
760.557	-0.0092
760.732	-0.0119
760.9071	-0.0198
761.0821	-0.0141
761.2572	-0.0126
761.4322	-0.0101
761.6072	-0.0096
761.7821	-0.0103
761.9571	-0.0076
762.132	-0.013
762.3069	0.0044
762.4818	-0.0027
762.6567	-0.0127
762.8316	-0.006
763.0064	-0.0034
763.1812	-0
763.356	-0.0023
763.5308	-0.0003
763.7055	-0.0017
763.8803	0.0011
764.055	0.0008
764.2297	-0.0013
764.4044	0.001
764.579	0.0038
764.7537	0.0023
764.9283	-0.0073
765.1029	-0.002
765.2775	0.0012
765.4521	0.0051
765.6266	-0.0008
765.8011	0.0033
765.9756	0.0032
766.1501	0.001
766.3246	0.0024
766.4991	0.0034
766.6735	-0.0077
766.8479	-0.0099
767.0223	0.0016
767.1967	-0.0049
767.371	-0.0007
767.5454	-0.0074
767.7197	-0.0027
767.894	-0.0031
768.0683	-0.0049
768.2425	0.0002
768.4168	-0.0094
768.591	-0.0001
768.7652	-0.0016
768.9394	0.0043
769.1135	0.0048
769.2877	0.0036
769.4618	0.0006
769.6359	0.0062
769.81	-0.001
769.984	-0.007
770.1581	0.0059
770.3321	0.0046
770.5061	-0.0005
770.6801	0.0023
770.8541	-0.0012
771.028	0.0038
771.202	0.0043
771.3759	-0.0031
771.5498	0.0011
771.7236	-0.0001
771.8975	0.0011
772.0713	0.0083
772.2451	0.0064
772.4189	-0.0009
772.5927	-0.0022
772.7665	-0.0027
772.9402	-0.0005
773.1139	0.0002
773.2876	-0.0008
773.4613	-0.0032
773.635	0.0012
773.8086	-0.0031
773.9822	0.0029
774.1558	-0.0044
774.3294	0.0057
774.503	0.0009
774.6765	-0.0076
774.8501	0.008
775.0236	-0.014
775.1971	-0.0099
775.3705	-0.0017
775.544	0.0035
775.7174	0.0016
775.8908	0.0012
776.0642	-0.0041
776.2376	-0.0041
776.4109	-0.0115
776.5843	0.0007
776.7576	-0.0036
776.9309	0.0019
777.1041	0.0022
777.2774	0.0008
777.4506	0.0018
777.6238	0.0006
777.797	-0.0024
777.9702	-0.008
778.1434	-0.0072
778.3165	-0.0025
778.4896	-0.0209
778.6627	-0.0029
778.8358	0.0009
779.0089	-0.0025
779.1819	0.0009
779.3549	-0.007
779.5279	0.0016
779.7009	-0.0027
779.8739	-0.0008
780.0468	-0.0057
780.2197	-0.0028
780.3926	-0.0049
780.5655	-0.0049
780.7384	-0.0078
780.9112	-0.0076
781.0841	-0.003
781.2569	0.002
781.4297	-0.0061
781.6024	-0.0022
781.7752	0.0003
781.9479	-0.0081
782.1206	-0.0051
782.2933	-0.0043
782.466	-0.0054
782.6386	-0.0084
782.8113	-0.0094
782.9839	-0.0032
783.1565	-0.0109
783.329	-0.0035
783.5016	-0.0021
783.6741	-0.0049
783.8466	-0.0101
784.0191	-0.0096
784.1916	0.0016
784.3641	-0.0031
784.5365	-0.0017
784.7089	0.002
784.8813	0.0083
785.0537	0.0082
785.2261	0.0013
785.3984	-0.0029
785.5707	0.0023
785.743	-0.0009
785.9153	0.0042
786.0876	0.001
786.2598	0.0042
786.432	0.0059
786.6042	0.0029
786.7764	0.0028
786.9486	0.0013
787.1207	-0.0005
787.2928	0.003
787.4649	-0.009
787.637	-0.0073
787.8091	0.0032
787.9811	0.0098
788.1532	0.0015
788.3252	-0.007
788.4972	-0.0042
788.6691	0.0011
788.8411	-0.0012
789.013	-0.0065
789.1849	-0.0002
789.3568	-0.005
789.5287	-0.0031
789.7005	0.0008
789.8723	-0.002
790.0442	-0.0117
790.2159	0.0001
790.3877	-0.0105
790.5595	-0.006
790.7312	-0.0029
790.9029	-0.0103
791.0746	-0.0057
791.2463	0.0025
791.4179	-0.0021
791.5896	0.0093
791.7612	0.0065
791.9328	0.003
792.1044	-0.0061
792.2759	-0.0019
792.4474	-0.0098
792.619	-0.0052
792.7905	-0.002
792.9619	-0.0017
793.1334	-0.005
793.3048	-0.0012
793.4762	-0.0049
793.6476	-0.0151
793.819	-0.0078
793.9904	-0.0114
794.1617	-0.0143
794.333	-0.0114
794.5043	-0.0041
794.6756	-0.0023
794.8469	0.0042
795.0181	-0.0061
795.1893	0.0028
795.3605	-0.0155
795.5317	-0.0109
795.7029	-0.0055
795.874	-0.0118
796.0452	-0.0113
796.2163	-0.0075
796.3873	-0.011
796.5584	-0.0105
796.7294	-0.0087
796.9005	-0.0161
797.0715	-0.0118
797.2425	-0.0106
797.4134	-0.016
797.5844	-0.0148
797.7553	-0.0141
797.9262	-0.0119
798.0971	-0.0123
798.2679	-0.0154
798.4388	-0.0178
798.6096	-0.0128
798.7804	-0.0085
798.9512	-0.0166
799.122	-0.0101
799.2927	-0.0117
799.4635	-0.0037
799.6342	-0.0162
799.8049	-0.0068
799.9755	-0.012
800.1462	-0.0143
800.3168	-0.0103
800.4874	-0.0166
800.658	-0.0163
800.8286	-0.0131
800.9991	-0.0143
801.1696	-0.0095
801.3402	-0.0124
801.5106	-0.023
801.6811	-0.0199
801.8516	-0.0145
802.022	-0.0223
802.1924	-0.0285
802.3628	-0.0148
802.5332	-0.0175
802.7035	-0.0174
802.8739	-0.0121
803.0442	-0.0188
803.2145	-0.0146
803.3847	-0.0271
803.555	-0.0184
803.7252	-0.0145
803.8954	-0.0158
804.0656	-0.0035
804.2358	-0.0178
804.4059	-0.0123
804.5761	-0.0033
804.7462	-0.0078
804.9163	-0.0163
805.0864	-0.0145
805.2564	-0.0109
805.4264	-0.0078
805.5965	-0.0167
805.7665	-0.0078
805.9364	-0.0128
806.1064	-0.0055
806.2763	-0.0074
806.4462	-0.0116
806.6161	-0.0077
806.786	-0.008
806.9559	-0.0093
807.1257	-0.003
807.2955	-0.0088
807.4653	-0.0087
807.6351	-0.0024
807.8048	0.0033
807.9746	-0.0068
808.1443	-0.003
808.314	0.0059
808.4837	0.0083
808.6533	-0.0027
808.8229	-0.0028
808.9926	0.0026
809.1622	0.0054
809.3317	0.0115
809.5013	0.0078
809.6708	0.004
809.8403	-0.0057
810.0098	0.0015
810.1793	-0.0149
810.3488	0.005
810.5182	0.0003
810.6876	-0.0063
810.857	-0.017
811.0264	-0.0147
811.1958	-0.0014
811.3651	-0.0095
811.5344	-0.0026
811.7037	-0.0174
811.873	-0.0063
812.0422	-0.0142
812.2115	-0.0122
812.3807	-0.0078
812.5499	0.0075
812.7191	-0.0182
812.8882	0.0013
813.0574	0.0046
813.2265	0.0001
813.3956	-0.0011
813.5646	-0.0073
813.7337	0.0047
813.9027	0.0114
814.0718	-0.0008
814.2407	0.0069
814.4097	-0.0048
814.5787	0.0064
814.7476	-0.0014
814.9165	-0.0008
815.0854	-0.0091
815.2543	0.0042
815.4232	-0.0071
815.592	-0.0065
815.7608	0.0017
815.9296	-0.0002
816.0984	-0.0001
816.2671	-0.0012
816.4359	0.0049
816.6046	0.0021
816.7733	-0.0018
816.942	-0.0044
817.1106	-0.0123
817.2793	-0.0044
817.4479	-0.0078
817.6165	-0.0095
817.785	-0.0161
817.9536	-0.0034
818.1221	-0.0142
818.2906	-0
818.4591	-0.0121
818.6276	-0.0096
818.7961	-0.0129
818.9645	-0.0069
819.1329	-0.0031
819.3013	-0.0129
819.4697	-0.0038
819.638	-0.0218
819.8064	-0.01
819.9747	0.0063
820.143	0.0003
820.3113	-0.0056
820.4795	0.0079
820.6477	-0.0108
820.816	-0.0021
820.9842	-0.0206
821.1523	-0.022
821.3205	0.0047
821.4886	-0.0001
821.6567	0.0086
821.8248	-0.0091
821.9929	-0.0122
822.1609	-0.0083
822.329	-0.0114
822.497	-0.0087
822.665	-0.0174
822.833	-0.0245
823.0009	-0.0219
823.1688	-0.0191
823.3367	-0.0117
823.5046	-0
823.6725	-0.014
823.8404	-0.0003
824.0082	-0.0139
824.176	0.0065
824.3438	-0.0047
824.5116	0.0032
824.6793	-0.004
824.847	-0.0105
825.0147	-0.0099
825.1824	-0.0244
825.3501	0.0001
825.5177	-0.0058
825.6854	0.0088
825.853	-0.0033
826.0206	0.002
826.1881	-0.0075
826.3557	0.0011
826.5232	-0.0076
826.6907	-0.0076
826.8582	-0.0002
827.0257	-0.0082
827.1931	0.0106
827.3605	0.0086
827.528	0.0136
827.6953	-0.0092
827.8627	0.008
828.03	-0.0081
828.1974	0.0075
828.3647	0.01
828.532	-0.0048
828.6992	-0.0024
828.8665	-0.0133
829.0337	-0.0023
829.2009	-0.0119
829.3681	-0.0187
829.5352	-0.0136
829.7024	-0.0046
829.8695	-0.0198
830.0366	-0.0203
830.2037	-0.0188
830.3707	-0.02
830.5378	-0.0118
830.7048	-0.0074
830.8718	0.0084
831.0388	-0.0126
831.2057	-0.0316
831.3727	0.0063
831.5396	-0.0004
831.7065	0.0055
831.8734	0.0004
832.0402	-0.0134
832.2071	0.0192
832.3739	0.0105
832.5407	-0.0019
832.7075	0.0019
832.8742	0.0168
833.041	0.0248
833.2077	-0.0285
833.3744	0.003
833.541	-0.0006
833.7077	-0.002
833.8743	-0.0004
834.0409	0.0208
834.2075	0.0241
834.3741	-0.002
834.5407	0.0135
834.7072	0.0006
834.8737	-0.0354
835.0402	-0.0298
835.2067	-0.0046
835.3731	0.0125
835.5395	-0.0141
835.706	-0.0207
835.8723	-0.023
836.0387	-0.0426
836.2051	-0.0173
836.3714	0.0038
836.5377	-0.027
836.704	-0.0123
836.8703	-0.0346
837.0365	0.0022
837.2027	-0.0063
837.3689	-0.0044
837.5351	-0.0008
837.7013	-0.0008
837.8674	-0.0023
838.0335	-0.0031
838.1997	0.0176
838.3657	0.0231
838.5318	0.0014
838.6978	-0.0157
838.8639	0.0074
839.0299	-0.0039
839.1958	-0
839.3618	0.0141
839.5277	-0.0113
839.6937	0.0073
839.8596	-0.0028
840.0254	-0.0063
840.1913	0.0116
840.3571	0.0106
840.523	-0.0096
840.6888	0.0074
840.8545	0.0034
841.0203	-0.0039
841.186	-0.0232
841.3517	-0.0149
841.5174	-0.0152
841.6831	0.0024
841.8488	0.0119
842.0144	0.0216
842.18	0.0222
842.3456	0.0163
842.5112	0.0126
842.6767	-0.0277
842.8422	-0.006
843.0077	0.0122
843.1732	-0.0137
843.3387	-0.0011
843.5042	0.0033
843.6696	0.0213
843.835	-0.0105
844.0004	0.0116
844.1657	0.0003
844.3311	0.016
844.4964	-0.0049
844.6617	0.0014
844.827	-0.0217
844.9923	0.0077
845.1575	0.019
845.3227	-0.0278
845.4879	-0.0031
845.6531	0.0035
845.8183	-0.0272
845.9834	-0.0066
846.1485	0.0142
846.3136	-0.0517
846.4787	0.0037
846.6438	0.0113
846.8088	0.0378
846.9738	-0.0013
847.1388	-0.0073
847.3038	0.0422
847.4687	0.0051
847.6337	0.0278
847.7986	0.0245
847.9635	0.0266
848.1284	-0.0104
848.2932	0.0057
848.458	0.0359
848.6228	-0.0005
848.7876	-0.0341
848.9524	0.032
849.1172	-0.0478
849.2819	0.0153
849.4466	-0.0111
849.6113	-0.0293
849.7759	-0.0251
849.9406	-0.008
850.1052	0.0219
850.2698	0.0042
850.4344	0.0218
850.599	-0.0408
850.7635	0.0136
850.928	-0.0151
851.0925	0.0258
851.257	0.0085
851.4215	-0.0217
851.5859	0.0383
851.7503	-0.0285
851.9147	-0.0093
852.0791	-0.0066
852.2434	-0.0431
852.4078	0.0065
852.5721	-0.025
852.7364	-0.0887
852.9007	-0.0001
853.0649	-0.0075
853.2291	-0.0552
853.3934	-0.0014
853.5575	-0.0375
853.7217	-0.0558
853.8859	0.0354
854.05	-0.0123
854.2141	0.0016
854.3782	0.0159
854.5423	-0.0042
854.7063	0.0114
854.8703	0.0265
855.0343	0.0032
855.1983	-0.015
855.3623	0.0306
855.5262	-0.0001
855.6901	-0.0586
855.854	0.0468
856.0179	0.0196
856.1818	0.0008
856.3456	-0.0628
856.5094	-0.0417
856.6732	-0.0212
856.837	-0.0284
857.0008	0.034
857.1645	-0.0593
857.3282	0.0731
857.4919	-0.0456
857.6556	0.053
857.8192	-0.0097
857.9828	0.0332
858.1465	0.0537
858.31	0.0289
858.4736	-0.1228
858.6372	0.0209
858.8007	-0.0379
858.9642	-0.0466
859.1277	0.058
859.2911	0.0504
859.4546	-0.0092
859.618	-0.0535
859.7814	-0.0076
859.9448	-0.0675
860.1081	-0.0404
860.2715	0.0639
860.4348	0.0098
860.5981	-0.0067
860.7614	-0.052
860.9246	0.0051
861.0879	0.018
861.2511	0.0427
861.4143	-0.0368
861.5774	-0.0607
861.7406	0.0549
861.9037	-0.0629
862.0668	-0.0491
862.2299	0.1043
862.393	-0.0381
862.556	0.0163
862.7191	-0.0809
862.8821	-0.023
863.0451	0.0715
863.208	-0.1014
863.371	0.1525
863.5339	-0.075
863.6968	-0.032
863.8597	-0.0333
864.0225	-0.1988
864.1854	-0.014
864.3482	-0.0417
864.511	0.0462
864.6737	-0.0541
864.8365	0.0767
864.9992	0.0381
865.1619	-0.0002
865.3246	-0.1606
865.4873	0.0598
865.65	-0.0186
865.8126	-0.024
865.9752	-0.155
866.1378	-0.0179
866.3004	-0.0504
866.4629	-0.2023
866.6254	0.1192
866.7879	-0.0509
866.9504	0.0226
867.1129	-0.0501
867.2753	-0.0206
867.4377	0.0986
867.6001	-0.0627
867.7625	-0.0003
867.9249	-0.1241
868.0872	-0.037
868.2495	-0.1066
868.4118	0.0946
868.5741	-0.0971
868.7363	0.2234
868.8986	0.0227
869.0608	-0.0738
869.223	0.021
869.3851	0.2408
869.5473	-0.1763
869.7094	0.066
869.8715	-0.1181
870.0336	0.0568
870.1957	0.0871
870.3577	0.0249
870.5197	-0.4332
870.6817	-0.0806
870.8437	-0.029
871.0057	-0.2277
871.1676	-0.1518
871.3295	-0.2954
871.4914	0.0034
871.6533	0.5081
871.8151	-0.057
871.977	0.3243
872.1388	0.1051
872.3006	-0.1216
872.4623	-0.1155
872.6241	-0.0715
872.7858	0.1619
872.9475	-0.2024
873.1092	0.1811
873.2709	0.0958
873.4325	-0.2654
873.5941	-0.2924
873.7557	-0.0304
873.9173	-0.0774
874.0789	-0.301
874.2404	-0.1506
874.4019	-0.112
874.5634	-0.0005
874.7249	-0.103
874.8863	-0.3304
875.0478	-0
875.2092	-0.2386
875.3706	-0.2479
875.5319	-0.1736
875.6933	-0.1419
875.8546	-0.3286
876.0159	-0.1422
876.1772	-0.4228
876.3385	-0.425
876.4997	0.2191
876.6609	-0.3812
876.8221	-0.1659
876.9833	-0.4951
877.1445	-0
877.3056	-0.0143
877.4667	-0.8414
877.6278	0.1138
877.7889	-0.0501
877.9499	-0.4514
878.111	-0.0093
878.272	-0.0078
878.433	0.2353
878.5939	0.2398
878.7549	-0.2885
878.9158	0.0124
879.0767	-0.0105
879.2376	0.3123
879.3984	0.2197
879.5593	-0.2555
879.7201	-0
879.8809	-0.216
880.0417	-0.0141
880.2024	-0.1181
880.3632	-0.2669
880.5239	-0
880.6846	-0.2112
880.8452	0.3682
881.0059	-0.6158
881.1665	-0
881.3271	0.1677
881.4877	-0.1253
881.6483	-0
881.8088	-0.3467
881.9693	0.0697
882.1298	0.0697
882.2903	0.0697
