Data from MonoPyChalIsomerACN10uM450nmA_Absorbance_13-11-22-491.txt Node
Date: Tue Jul 09 13:11:22 BST 2024
User: LASERRRRR
Spectrometer: FLMT03099
Trigger mode: 0
Integration Time (sec): 2.000000E-1
Scans to average: 1
Electric dark correction enabled: true
Nonlinearity correction enabled: false
Boxcar width: 0
XAxis mode: Wavelengths
Number of Pixels in Spectrum: 3648
>>>>>Begin Spectral Data<<<<<
179.3399	0.0822
179.5586	0.0822
179.7771	0.0822
179.9957	-0.0361
180.2143	-0
180.4329	-0.0282
180.6514	0.4754
180.8699	-0
181.0885	-0
181.307	0.7544
181.5255	-0
181.744	-0
181.9625	0.6577
182.181	0.1513
182.3994	-0
182.6179	-0.1552
182.8363	0.2825
183.0547	0.3074
183.2732	0.0879
183.4916	-0.0082
183.71	0.0176
183.9284	-0.0274
184.1467	0.0267
184.3651	-0.0656
184.5835	0.0627
184.8018	-0.0584
185.0201	0.0656
185.2385	-0.0154
185.4568	-0.1463
185.6751	0.0752
185.8934	0.0114
186.1117	-0.0069
186.3299	-0.0187
186.5482	-0.0073
186.7664	-0.0436
186.9847	0.0757
187.2029	0.0219
187.4211	0.0071
187.6393	-0.0801
187.8575	0.1239
188.0757	0.0086
188.2939	0.072
188.512	-0.0238
188.7302	0.1273
188.9483	0.031
189.1665	0.1167
189.3846	0.1546
189.6027	0.0987
189.8208	0.1726
190.0389	0.1466
190.257	0.1771
190.475	0.2116
190.6931	0.1952
190.9111	0.3195
191.1292	0.1718
191.3472	0.2522
191.5652	0.2846
191.7832	0.3268
192.0012	0.2614
192.2192	0.3926
192.4371	0.4539
192.6551	0.4183
192.873	0.4266
193.091	0.4434
193.3089	0.4355
193.5268	0.5093
193.7447	0.4496
193.9626	0.483
194.1805	0.5053
194.3984	0.5534
194.6162	0.5632
194.8341	0.5032
195.0519	0.5242
195.2697	0.6011
195.4875	0.5334
195.7054	0.5475
195.9231	0.6573
196.1409	0.6391
196.3587	0.6598
196.5765	0.6788
196.7942	0.666
197.012	0.6297
197.2297	0.6739
197.4474	0.7612
197.6651	0.66
197.8828	0.7049
198.1005	0.8221
198.3182	0.6775
198.5358	0.614
198.7535	0.7115
198.9711	0.8575
199.1888	0.698
199.4064	0.7427
199.624	0.7457
199.8416	0.781
200.0592	0.7602
200.2767	0.7199
200.4943	0.7882
200.7119	0.8394
200.9294	0.8062
201.1469	0.8084
201.3645	0.8567
201.582	0.866
201.7995	0.8381
202.017	0.9145
202.2344	0.8264
202.4519	0.9095
202.6694	0.8197
202.8868	0.9416
203.1042	0.9796
203.3217	0.944
203.5391	0.8823
203.7565	1.0307
203.9739	0.8554
204.1913	0.8381
204.4086	0.8751
204.626	0.9347
204.8433	0.8776
205.0607	0.8613
205.278	0.9388
205.4953	1.0125
205.7126	0.9409
205.9299	1.0547
206.1472	0.912
206.3644	0.9345
206.5817	1.0481
206.7989	1.0919
207.0162	1.0288
207.2334	0.9022
207.4506	1.0037
207.6678	0.9609
207.885	1.2077
208.1022	1.0648
208.3194	1.0745
208.5365	1.0248
208.7537	0.9375
208.9708	0.9972
209.1879	1.0907
209.405	1.0165
209.6222	1.0832
209.8392	1.1105
210.0563	1.0003
210.2734	1.0158
210.4905	1.1084
210.7075	1.0488
210.9245	1.0575
211.1416	1.0472
211.3586	1.1012
211.5756	1.052
211.7926	1.0754
212.0096	0.9941
212.2265	0.9749
212.4435	1.0027
212.6604	1.0367
212.8774	1.0149
213.0943	0.9981
213.3112	0.9792
213.5281	1.0455
213.745	0.9841
213.9619	0.964
214.1788	0.9607
214.3956	0.9474
214.6125	0.8684
214.8293	0.8881
215.0461	0.8834
215.2629	0.8773
215.4798	0.8762
215.6965	0.8108
215.9133	0.828
216.1301	0.8088
216.3469	0.8068
216.5636	0.7811
216.7803	0.7446
216.9971	0.7424
217.2138	0.7264
217.4305	0.6831
217.6472	0.664
217.8639	0.6321
218.0805	0.5997
218.2972	0.5774
218.5138	0.5246
218.7305	0.4938
218.9471	0.4837
219.1637	0.44
219.3803	0.4283
219.5969	0.3799
219.8135	0.3717
220.0301	0.3436
220.2466	0.3634
220.4632	0.3303
220.6797	0.3243
220.8962	0.3057
221.1127	0.3041
221.3292	0.3068
221.5457	0.281
221.7622	0.2785
221.9787	0.2832
222.1951	0.2642
222.4116	0.2789
222.628	0.2758
222.8444	0.2773
223.0608	0.2697
223.2772	0.2759
223.4936	0.2614
223.71	0.2835
223.9264	0.2831
224.1427	0.2591
224.3591	0.2581
224.5754	0.2646
224.7917	0.2766
225.008	0.2645
225.2243	0.2708
225.4406	0.2724
225.6569	0.2826
225.8732	0.2989
226.0894	0.2667
226.3057	0.2929
226.5219	0.2853
226.7381	0.2877
226.9543	0.2904
227.1705	0.2987
227.3867	0.3023
227.6029	0.2826
227.8191	0.2924
228.0352	0.2871
228.2513	0.2997
228.4675	0.3018
228.6836	0.3085
228.8997	0.3066
229.1158	0.3206
229.3319	0.3142
229.548	0.3211
229.764	0.3156
229.9801	0.3304
230.1961	0.333
230.4121	0.3309
230.6282	0.3432
230.8442	0.3418
231.0602	0.3495
231.2761	0.3358
231.4921	0.3562
231.7081	0.3586
231.924	0.3539
232.14	0.3576
232.3559	0.3712
232.5718	0.367
232.7877	0.3595
233.0036	0.351
233.2195	0.35
233.4353	0.3686
233.6512	0.3773
233.867	0.383
234.0829	0.383
234.2987	0.3705
234.5145	0.3762
234.7303	0.3878
234.9461	0.3932
235.1619	0.3913
235.3776	0.3819
235.5934	0.3895
235.8091	0.379
236.0249	0.4068
236.2406	0.3985
236.4563	0.3831
236.672	0.3958
236.8877	0.4099
237.1034	0.41
237.319	0.4086
237.5347	0.4029
237.7503	0.4006
237.966	0.4167
238.1816	0.4137
238.3972	0.4109
238.6128	0.4095
238.8284	0.4194
239.0439	0.4072
239.2595	0.4343
239.475	0.413
239.6906	0.4266
239.9061	0.4144
240.1216	0.4232
240.3371	0.412
240.5526	0.4231
240.7681	0.4016
240.9836	0.4188
241.199	0.4057
241.4145	0.3974
241.6299	0.3972
241.8453	0.4032
242.0607	0.4042
242.2761	0.3973
242.4915	0.3825
242.7069	0.3773
242.9223	0.3717
243.1376	0.3724
243.353	0.3603
243.5683	0.3554
243.7836	0.3378
243.9989	0.3352
244.2142	0.3329
244.4295	0.3389
244.6448	0.3264
244.86	0.3258
245.0753	0.3029
245.2905	0.2967
245.5057	0.296
245.721	0.2992
245.9362	0.2886
246.1514	0.2865
246.3665	0.2878
246.5817	0.2627
246.7969	0.2789
247.012	0.2682
247.2271	0.258
247.4423	0.2655
247.6574	0.2582
247.8725	0.2569
248.0876	0.2468
248.3026	0.257
248.5177	0.2505
248.7328	0.2441
248.9478	0.2438
249.1628	0.229
249.3779	0.2314
249.5929	0.2326
249.8079	0.2287
250.0228	0.2282
250.2378	0.2364
250.4528	0.2181
250.6677	0.2202
250.8827	0.2152
251.0976	0.212
251.3125	0.2219
251.5274	0.2084
251.7423	0.2117
251.9572	0.2012
252.172	0.2111
252.3869	0.2038
252.6017	0.2081
252.8166	0.2118
253.0314	0.2057
253.2462	0.2041
253.461	0.2011
253.6758	0.1955
253.8906	0.2063
254.1053	0.2012
254.3201	0.2017
254.5348	0.2019
254.7496	0.206
254.9643	0.1972
255.179	0.1971
255.3937	0.1918
255.6083	0.2052
255.823	0.2003
256.0377	0.1918
256.2523	0.1932
256.467	0.2087
256.6816	0.1941
256.8962	0.1923
257.1108	0.1959
257.3254	0.1946
257.54	0.1917
257.7545	0.1897
257.9691	0.2019
258.1836	0.1906
258.3981	0.1955
258.6127	0.194
258.8272	0.1977
259.0417	0.1961
259.2561	0.2039
259.4706	0.1913
259.6851	0.1883
259.8995	0.1941
260.114	0.1976
260.3284	0.2013
260.5428	0.1973
260.7572	0.1961
260.9716	0.1983
261.186	0.2054
261.4003	0.2016
261.6147	0.1989
261.829	0.2035
262.0433	0.1979
262.2577	0.2069
262.472	0.1924
262.6863	0.1885
262.9005	0.1929
263.1148	0.1919
263.3291	0.1933
263.5433	0.1936
263.7576	0.1831
263.9718	0.1864
264.186	0.188
264.4002	0.1831
264.6144	0.1822
264.8286	0.1823
265.0427	0.1786
265.2569	0.1839
265.471	0.1764
265.6851	0.1824
265.8993	0.1808
266.1134	0.1713
266.3275	0.1768
266.5415	0.1704
266.7556	0.1779
266.9697	0.1783
267.1837	0.1734
267.3978	0.1909
267.6118	0.1896
267.8258	0.1923
268.0398	0.1909
268.2538	0.1954
268.4677	0.1938
268.6817	0.1879
268.8957	0.1927
269.1096	0.1874
269.3235	0.1897
269.5374	0.1702
269.7514	0.1677
269.9652	0.1624
270.1791	0.1562
270.393	0.1578
270.6068	0.1549
270.8207	0.1537
271.0345	0.1551
271.2483	0.1542
271.4622	0.15
271.676	0.1425
271.8897	0.1379
272.1035	0.1454
272.3173	0.147
272.531	0.142
272.7448	0.1446
272.9585	0.1426
273.1722	0.133
273.3859	0.1394
273.5996	0.1374
273.8133	0.1401
274.0269	0.14
274.2406	0.1439
274.4542	0.1358
274.6679	0.14
274.8815	0.1396
275.0951	0.1431
275.3087	0.1415
275.5223	0.1342
275.7358	0.1382
275.9494	0.1478
276.1629	0.1344
276.3765	0.1372
276.59	0.1425
276.8035	0.1429
277.017	0.145
277.2305	0.144
277.444	0.1437
277.6574	0.1388
277.8709	0.1466
278.0843	0.1521
278.2978	0.1383
278.5112	0.1496
278.7246	0.1356
278.938	0.1482
279.1513	0.1456
279.3647	0.147
279.5781	0.143
279.7914	0.1583
280.0047	0.1409
280.2181	0.1496
280.4314	0.1492
280.6447	0.1466
280.8579	0.149
281.0712	0.15
281.2845	0.1473
281.4977	0.1581
281.711	0.1478
281.9242	0.1511
282.1374	0.1534
282.3506	0.1413
282.5638	0.1529
282.7769	0.1491
282.9901	0.1551
283.2033	0.164
283.4164	0.1526
283.6295	0.1603
283.8426	0.1565
284.0557	0.1534
284.2688	0.1504
284.4819	0.1519
284.695	0.1505
284.908	0.154
285.1211	0.1613
285.3341	0.1531
285.5471	0.1596
285.7601	0.1529
285.9731	0.1522
286.1861	0.1635
286.3991	0.1593
286.612	0.1614
286.825	0.1625
287.0379	0.1589
287.2508	0.1621
287.4637	0.1621
287.6766	0.1498
287.8895	0.1629
288.1024	0.1508
288.3152	0.1564
288.5281	0.1538
288.7409	0.1591
288.9538	0.1656
289.1666	0.1669
289.3794	0.1589
289.5922	0.1612
289.8049	0.1561
290.0177	0.1638
290.2304	0.1609
290.4432	0.1565
290.6559	0.1578
290.8686	0.1568
291.0813	0.1636
291.294	0.1625
291.5067	0.1558
291.7194	0.1612
291.932	0.1603
292.1447	0.1636
292.3573	0.1572
292.5699	0.1713
292.7825	0.1613
292.9951	0.1645
293.2077	0.1579
293.4203	0.1605
293.6328	0.1679
293.8454	0.155
294.0579	0.159
294.2704	0.1595
294.4829	0.1705
294.6954	0.1666
294.9079	0.1607
295.1204	0.1534
295.3328	0.1609
295.5453	0.1595
295.7577	0.1567
295.9701	0.1539
296.1825	0.1634
296.3949	0.1505
296.6073	0.1647
296.8197	0.1675
297.0321	0.1659
297.2444	0.1611
297.4567	0.1442
297.6691	0.1524
297.8814	0.1592
298.0937	0.1571
298.306	0.1608
298.5182	0.1503
298.7305	0.1481
298.9428	0.1484
299.155	0.1597
299.3672	0.1576
299.5794	0.1603
299.7916	0.1582
300.0038	0.1567
300.216	0.1597
300.4282	0.1551
300.6403	0.1586
300.8525	0.1527
301.0646	0.1526
301.2767	0.1577
301.4888	0.1491
301.7009	0.165
301.913	0.1631
302.125	0.1541
302.3371	0.1633
302.5491	0.1553
302.7612	0.16
302.9732	0.1638
303.1852	0.1472
303.3972	0.1612
303.6092	0.1526
303.8211	0.1567
304.0331	0.1503
304.245	0.1536
304.457	0.1581
304.6689	0.1544
304.8808	0.1476
305.0927	0.1453
305.3046	0.149
305.5164	0.1522
305.7283	0.1514
305.9401	0.1496
306.152	0.1475
306.3638	0.1499
306.5756	0.1416
306.7874	0.1387
306.9992	0.1416
307.2109	0.1346
307.4227	0.1343
307.6344	0.1302
307.8462	0.1304
308.0579	0.1338
308.2696	0.127
308.4813	0.1254
308.693	0.1285
308.9046	0.1238
309.1163	0.1223
309.328	0.1189
309.5396	0.1165
309.7512	0.1276
309.9628	0.1226
310.1744	0.1205
310.386	0.1094
310.5976	0.1137
310.8091	0.1155
311.0207	0.1177
311.2322	0.1088
311.4437	0.1166
311.6552	0.1165
311.8667	0.1123
312.0782	0.1065
312.2897	0.1011
312.5012	0.1098
312.7126	0.0991
312.924	0.0996
313.1355	0.1042
313.3469	0.1035
313.5583	0.1035
313.7696	0.1022
313.981	0.0997
314.1924	0.0946
314.4037	0.1013
314.6151	0.0905
314.8264	0.1006
315.0377	0.0972
315.249	0.1018
315.4603	0.0967
315.6716	0.0979
315.8828	0.0954
316.0941	0.0995
316.3053	0.0893
316.5165	0.0884
316.7277	0.0883
316.9389	0.094
317.1501	0.0926
317.3613	0.0922
317.5724	0.0908
317.7836	0.0913
317.9947	0.0977
318.2058	0.0887
318.417	0.0877
318.6281	0.0973
318.8391	0.0896
319.0502	0.0886
319.2613	0.0921
319.4723	0.0957
319.6834	0.0882
319.8944	0.0993
320.1054	0.0875
320.3164	0.1019
320.5274	0.1039
320.7383	0.0948
320.9493	0.0943
321.1602	0.0976
321.3712	0.1008
321.5821	0.0984
321.793	0.0908
322.0039	0.0937
322.2148	0.0941
322.4257	0.0932
322.6365	0.0999
322.8474	0.0979
323.0582	0.0994
323.269	0.0998
323.4798	0.1001
323.6906	0.098
323.9014	0.0995
324.1122	0.1006
324.3229	0.1081
324.5337	0.0922
324.7444	0.0937
324.9551	0.1061
325.1658	0.0939
325.3765	0.0907
325.5872	0.1028
325.7979	0.0976
326.0085	0.1025
326.2192	0.0999
326.4298	0.1112
326.6404	0.0993
326.851	0.0938
327.0616	0.1015
327.2722	0.1053
327.4828	0.0994
327.6933	0.1002
327.9039	0.1006
328.1144	0.0989
328.3249	0.0954
328.5354	0.1021
328.7459	0.1038
328.9564	0.1029
329.1669	0.0987
329.3773	0.1022
329.5878	0.108
329.7982	0.1064
330.0086	0.0963
330.219	0.1001
330.4294	0.104
330.6398	0.1078
330.8502	0.1116
331.0605	0.1056
331.2708	0.1012
331.4812	0.1012
331.6915	0.1075
331.9018	0.0943
332.1121	0.1018
332.3224	0.0984
332.5326	0.1034
332.7429	0.1053
332.9531	0.1019
333.1633	0.1124
333.3735	0.1049
333.5837	0.1059
333.7939	0.11
334.0041	0.0988
334.2143	0.1041
334.4244	0.0981
334.6346	0.1008
334.8447	0.1104
335.0548	0.1064
335.2649	0.0925
335.475	0.1005
335.685	0.1126
335.8951	0.1078
336.1051	0.1002
336.3152	0.1034
336.5252	0.1022
336.7352	0.1145
336.9452	0.1064
337.1552	0.1097
337.3652	0.1111
337.5751	0.1122
337.7851	0.1059
337.995	0.1124
338.2049	0.1016
338.4148	0.1096
338.6247	0.1077
338.8346	0.1089
339.0445	0.1094
339.2543	0.1023
339.4642	0.1154
339.674	0.1053
339.8838	0.111
340.0936	0.1107
340.3034	0.1234
340.5132	0.1144
340.7229	0.1183
340.9327	0.1131
341.1424	0.1175
341.3522	0.1187
341.5619	0.1155
341.7716	0.1222
341.9813	0.1219
342.1909	0.1209
342.4006	0.1131
342.6102	0.1203
342.8199	0.1135
343.0295	0.1125
343.2391	0.1288
343.4487	0.1238
343.6583	0.1205
343.8679	0.1174
344.0774	0.1278
344.287	0.1187
344.4965	0.1145
344.706	0.1237
344.9155	0.1288
345.125	0.127
345.3345	0.1296
345.544	0.1207
345.7534	0.1122
345.9629	0.1212
346.1723	0.1285
346.3817	0.1325
346.5911	0.1349
346.8005	0.1262
347.0099	0.1224
347.2193	0.1268
347.4286	0.126
347.638	0.1393
347.8473	0.134
348.0566	0.1372
348.2659	0.128
348.4752	0.1324
348.6845	0.1339
348.8937	0.1419
349.103	0.1332
349.3122	0.1291
349.5214	0.1373
349.7306	0.1313
349.9398	0.1327
350.149	0.1368
350.3582	0.1285
350.5674	0.1437
350.7765	0.133
350.9856	0.1329
351.1948	0.1455
351.4039	0.1365
351.613	0.1368
351.822	0.1467
352.0311	0.1436
352.2402	0.141
352.4492	0.1328
352.6582	0.1424
352.8672	0.1405
353.0762	0.1485
353.2852	0.1493
353.4942	0.1447
353.7032	0.1415
353.9121	0.148
354.1211	0.1395
354.33	0.1465
354.5389	0.1406
354.7478	0.1473
354.9567	0.1477
355.1655	0.1509
355.3744	0.1495
355.5833	0.1566
355.7921	0.1491
356.0009	0.1514
356.2097	0.1534
356.4185	0.1518
356.6273	0.1526
356.8361	0.1487
357.0448	0.1593
357.2536	0.1423
357.4623	0.1556
357.671	0.1691
357.8797	0.1626
358.0884	0.1594
358.2971	0.155
358.5057	0.159
358.7144	0.1658
358.923	0.1662
359.1316	0.1635
359.3402	0.1784
359.5488	0.1678
359.7574	0.1699
359.966	0.1706
360.1746	0.1673
360.3831	0.171
360.5916	0.179
360.8002	0.1798
361.0087	0.1708
361.2172	0.1799
361.4256	0.1703
361.6341	0.177
361.8426	0.1755
362.051	0.1686
362.2594	0.1825
362.4678	0.1735
362.6762	0.1829
362.8846	0.1862
363.093	0.1866
363.3014	0.1825
363.5097	0.179
363.718	0.1909
363.9264	0.1829
364.1347	0.1936
364.343	0.1846
364.5513	0.1858
364.7595	0.1871
364.9678	0.1958
365.176	0.193
365.3842	0.1827
365.5925	0.1978
365.8007	0.1943
366.0089	0.1951
366.217	0.1945
366.4252	0.2057
366.6333	0.1929
366.8415	0.198
367.0496	0.1997
367.2577	0.1981
367.4658	0.2084
367.6739	0.2114
367.882	0.2016
368.09	0.205
368.2981	0.2086
368.5061	0.2085
368.7141	0.209
368.9221	0.1991
369.1301	0.2074
369.3381	0.209
369.5461	0.2184
369.754	0.21
369.962	0.2061
370.1699	0.2169
370.3778	0.2121
370.5857	0.2098
370.7936	0.2101
371.0015	0.2076
371.2093	0.1988
371.4172	0.2199
371.625	0.2136
371.8328	0.2245
372.0406	0.2203
372.2484	0.2166
372.4562	0.2166
372.664	0.2175
372.8717	0.2145
373.0795	0.2255
373.2872	0.2103
373.4949	0.216
373.7026	0.2148
373.9103	0.2312
374.118	0.2215
374.3256	0.2167
374.5333	0.2289
374.7409	0.2184
374.9485	0.2198
375.1561	0.2286
375.3637	0.2269
375.5713	0.227
375.7789	0.2179
375.9864	0.2205
376.194	0.2271
376.4015	0.2321
376.609	0.2354
376.8165	0.2185
377.024	0.2176
377.2315	0.228
377.4389	0.2235
377.6464	0.2252
377.8538	0.2324
378.0612	0.2311
378.2686	0.227
378.476	0.2357
378.6834	0.254
378.8908	0.2503
379.0981	0.2358
379.3055	0.2375
379.5128	0.2284
379.7201	0.2397
379.9274	0.23
380.1347	0.2484
380.342	0.2486
380.5492	0.2411
380.7565	0.2446
380.9637	0.2521
381.1709	0.2493
381.3781	0.2456
381.5853	0.2571
381.7925	0.236
381.9997	0.2578
382.2068	0.2563
382.4139	0.248
382.6211	0.2451
382.8282	0.2463
383.0353	0.2528
383.2424	0.25
383.4494	0.2452
383.6565	0.2428
383.8635	0.2587
384.0706	0.2427
384.2776	0.2494
384.4846	0.2501
384.6916	0.2418
384.8986	0.2494
385.1055	0.2543
385.3125	0.2592
385.5194	0.253
385.7263	0.2476
385.9333	0.2614
386.1402	0.249
386.347	0.261
386.5539	0.2519
386.7608	0.2523
386.9676	0.2489
387.1744	0.2491
387.3813	0.2573
387.5881	0.2529
387.7948	0.2602
388.0016	0.2496
388.2084	0.2552
388.4151	0.2419
388.6219	0.2519
388.8286	0.2555
389.0353	0.2451
389.242	0.2406
389.4487	0.2341
389.6553	0.2388
389.862	0.2466
390.0686	0.2376
390.2753	0.2398
390.4819	0.2387
390.6885	0.2366
390.8951	0.2352
391.1016	0.2389
391.3082	0.2369
391.5147	0.2316
391.7213	0.2351
391.9278	0.2308
392.1343	0.2331
392.3408	0.2296
392.5473	0.2377
392.7537	0.24
392.9602	0.216
393.1666	0.2325
393.373	0.2211
393.5794	0.2308
393.7858	0.2134
393.9922	0.2196
394.1986	0.22
394.4049	0.2333
394.6113	0.2381
394.8176	0.2168
395.0239	0.2142
395.2302	0.2149
395.4365	0.2211
395.6428	0.2015
395.8491	0.2143
396.0553	0.2169
396.2615	0.2202
396.4678	0.2205
396.674	0.2222
396.8802	0.2214
397.0863	0.2144
397.2925	0.216
397.4987	0.2052
397.7048	0.2162
397.9109	0.21
398.117	0.209
398.3231	0.2121
398.5292	0.2067
398.7353	0.2057
398.9413	0.2158
399.1474	0.2031
399.3534	0.2027
399.5594	0.2039
399.7654	0.2117
399.9714	0.2127
400.1774	0.2181
400.3833	0.2148
400.5893	0.209
400.7952	0.1955
401.0011	0.2023
401.207	0.2075
401.4129	0.1915
401.6188	0.1988
401.8247	0.2012
402.0305	0.1985
402.2364	0.217
402.4422	0.2093
402.648	0.2173
402.8538	0.2089
403.0596	0.1924
403.2654	0.1962
403.4711	0.1895
403.6768	0.2149
403.8826	0.214
404.0883	0.2042
404.294	0.2102
404.4997	0.2059
404.7054	0.1965
404.911	0.2094
405.1167	0.2106
405.3223	0.201
405.5279	0.2052
405.7335	0.2017
405.9391	0.2055
406.1447	0.2029
406.3502	0.208
406.5558	0.2071
406.7613	0.1958
406.9668	0.2
407.1724	0.2099
407.3778	0.2184
407.5833	0.2059
407.7888	0.2258
407.9942	0.211
408.1997	0.2127
408.4051	0.2024
408.6105	0.2116
408.8159	0.2172
409.0213	0.1984
409.2267	0.2054
409.432	0.2168
409.6374	0.1984
409.8427	0.2189
410.048	0.2058
410.2533	0.2028
410.4586	0.217
410.6639	0.2026
410.8691	0.203
411.0744	0.2006
411.2796	0.2048
411.4848	0.1952
411.69	0.2062
411.8952	0.1949
412.1004	0.2001
412.3056	0.219
412.5107	0.2169
412.7158	0.2016
412.921	0.2015
413.1261	0.1932
413.3312	0.2165
413.5362	0.204
413.7413	0.1939
413.9464	0.2149
414.1514	0.1921
414.3564	0.2079
414.5614	0.2038
414.7664	0.1965
414.9714	0.1992
415.1764	0.2008
415.3813	0.2063
415.5863	0.2029
415.7912	0.2028
415.9961	0.2103
416.201	0.2126
416.4059	0.1936
416.6108	0.1973
416.8156	0.1977
417.0205	0.2083
417.2253	0.1926
417.4301	0.2025
417.6349	0.2042
417.8397	0.1874
418.0445	0.2128
418.2492	0.1954
418.454	0.1956
418.6587	0.1854
418.8634	0.1946
419.0681	0.1864
419.2728	0.1911
419.4775	0.1871
419.6822	0.194
419.8868	0.1844
420.0915	0.1931
420.2961	0.1877
420.5007	0.1917
420.7053	0.1893
420.9099	0.1748
421.1144	0.1892
421.319	0.1749
421.5235	0.1938
421.728	0.1818
421.9325	0.1763
422.137	0.184
422.3415	0.1894
422.546	0.1865
422.7504	0.1851
422.9549	0.1833
423.1593	0.1873
423.3637	0.1757
423.5681	0.1851
423.7725	0.1791
423.9769	0.163
424.1812	0.1716
424.3856	0.1734
424.5899	0.1772
424.7942	0.1667
424.9985	0.1775
425.2028	0.1784
425.4071	0.167
425.6113	0.1682
425.8156	0.16
426.0198	0.1704
426.224	0.1574
426.4282	0.1637
426.6324	0.1703
426.8366	0.1724
427.0407	0.1661
427.2449	0.1731
427.449	0.1539
427.6531	0.1617
427.8572	0.1558
428.0613	0.1539
428.2654	0.1637
428.4694	0.1593
428.6735	0.1522
428.8775	0.1568
429.0815	0.1573
429.2855	0.1598
429.4895	0.1375
429.6935	0.1492
429.8975	0.144
430.1014	0.1503
430.3053	0.1395
430.5093	0.1464
430.7132	0.1416
430.9171	0.1397
431.1209	0.1369
431.3248	0.1355
431.5286	0.1414
431.7325	0.1342
431.9363	0.1353
432.1401	0.131
432.3439	0.1173
432.5477	0.1276
432.7514	0.1281
432.9552	0.1196
433.1589	0.1123
433.3627	0.1184
433.5664	0.1239
433.7701	0.1118
433.9737	0.1051
434.1774	0.1124
434.3811	0.1064
434.5847	0.1261
434.7883	0.1141
434.9919	0.1112
435.1955	0.0871
435.3991	0.1057
435.6027	0.1058
435.8062	0.1003
436.0098	0.1149
436.2133	0.098
436.4168	0.1108
436.6203	0.1077
436.8238	0.0899
437.0272	0.0967
437.2307	0.0898
437.4341	0.0947
437.6375	0.1004
437.841	0.0812
438.0443	0.0921
438.2477	0.0806
438.4511	0.0852
438.6545	0.0793
438.8578	0.0777
439.0611	0.0793
439.2644	0.0876
439.4677	0.085
439.671	0.0726
439.8743	0.0747
440.0775	0.0647
440.2808	0.0595
440.484	0.0764
440.6872	0.0651
440.8904	0.0682
441.0936	0.0627
441.2967	0.069
441.4999	0.0536
441.703	0.0545
441.9062	0.0608
442.1093	0.0523
442.3124	0.0556
442.5155	0.0632
442.7185	0.0555
442.9216	0.0577
443.1246	0.0608
443.3276	0.0548
443.5307	0.0447
443.7337	0.0571
443.9366	0.0475
444.1396	0.0457
444.3426	0.0485
444.5455	0.0465
444.7484	0.0382
444.9513	0.0452
445.1542	0.0459
445.3571	0.0422
445.56	0.0393
445.7628	0.0426
445.9657	0.05
446.1685	0.0422
446.3713	0.0459
446.5741	0.0439
446.7769	0.0445
446.9797	0.0356
447.1824	0.036
447.3852	0.04
447.5879	0.0316
447.7906	0.0343
447.9933	0.0292
448.196	0.0449
448.3986	0.0201
448.6013	0.0279
448.8039	0.0409
449.0066	0.0295
449.2092	0.0299
449.4118	0.0255
449.6143	0.0256
449.8169	0.0205
450.0195	0.0171
450.222	0.0078
450.4245	0.0191
450.627	0.0187
450.8295	0.0089
451.032	0.0232
451.2345	0.0262
451.4369	0.0238
451.6394	0.0179
451.8418	0.0134
452.0442	0.018
452.2466	0.0203
452.449	0.018
452.6513	0.0164
452.8537	0.0102
453.056	0.0161
453.2583	0.0114
453.4607	0.0191
453.663	0.0179
453.8652	0.0115
454.0675	0.0085
454.2697	0.0159
454.472	0.0202
454.6742	0.0137
454.8764	0.0058
455.0786	0.0174
455.2808	0.0136
455.4829	-0.0002
455.6851	0.0064
455.8872	0.0095
456.0893	0.0105
456.2915	0.0005
456.4935	0.0072
456.6956	0.0118
456.8977	0.0136
457.0997	0.006
457.3018	0.0156
457.5038	0.0044
457.7058	0.0002
457.9078	0.0014
458.1098	0.0042
458.3117	0.0016
458.5137	0.0119
458.7156	0.0129
458.9175	-0.0017
459.1194	0.0142
459.3213	0.0046
459.5232	-0.0091
459.725	0.0002
459.9269	0.0018
460.1287	0.0037
460.3305	0.0039
460.5323	0.0104
460.7341	0.002
460.9359	0.0077
461.1376	-0.0042
461.3394	-0.0034
461.5411	0.0033
461.7428	-0.0111
461.9445	0.0015
462.1462	-0.0006
462.3479	0.0068
462.5495	0.0091
462.7512	-0.0065
462.9528	0.0067
463.1544	0.0007
463.356	0.0063
463.5576	0.0012
463.7592	0.0009
463.9607	-0.0069
464.1623	-0.0043
464.3638	-0.0037
464.5653	0.0096
464.7668	-0.0099
464.9683	0.0056
465.1697	0
465.3712	-0.0052
465.5726	-0.0096
465.7741	0.0018
465.9755	0.0045
466.1769	-0.0098
466.3782	-0.0043
466.5796	-0.0062
466.7809	0.0002
466.9823	-0.0072
467.1836	-0.0004
467.3849	0.0002
467.5862	-0.0103
467.7875	-0.0048
467.9887	0.0053
468.19	-0.0087
468.3912	-0.0033
468.5924	-0.0109
468.7936	0.0024
468.9948	0.0192
469.196	-0.0019
469.3972	-0.0016
469.5983	0.0072
469.7994	-0.0015
470.0006	-0.0017
470.2017	-0.0016
470.4027	-0.0016
470.6038	-0.0009
470.8049	-0.0052
471.0059	-0.0003
471.2069	0.0074
471.408	-0.008
471.6089	-0.015
471.8099	-0.0114
472.0109	-0.0023
472.2119	-0.0212
472.4128	-0.0056
472.6137	-0.0108
472.8146	-0.0044
473.0155	-0.0116
473.2164	-0.0206
473.4173	-0.004
473.6181	0.0011
473.819	-0.0094
474.0198	-0.0093
474.2206	-0.0065
474.4214	-0.0047
474.6222	0.0018
474.8229	-0.0151
475.0237	-0.0038
475.2244	-0.0054
475.4251	-0.0014
475.6258	-0.0009
475.8265	-0.0016
476.0272	-0.0072
476.2278	-0.001
476.4285	-0.0027
476.6291	-0.0128
476.8297	-0.014
477.0303	-0.0058
477.2309	0.0027
477.4315	0.0005
477.632	-0.0124
477.8326	-0.0042
478.0331	-0.0028
478.2336	-0.0019
478.4341	-0.0131
478.6346	0.0036
478.8351	-0.0032
479.0355	-0.0013
479.236	-0.0147
479.4364	-0.0011
479.6368	0.0082
479.8372	-0.0047
480.0376	-0.0037
480.2379	-0.0087
480.4383	-0.0004
480.6386	-0.0093
480.8389	-0.0143
481.0392	-0.0101
481.2395	-0.0087
481.4398	-0.0012
481.6401	-0.0116
481.8403	-0.006
482.0405	-0.0115
482.2408	0.0029
482.441	0.0015
482.6411	0.0011
482.8413	-0.0063
483.0415	-0.0126
483.2416	-0.0081
483.4417	-0.0065
483.6419	-0.0014
483.8419	-0.0139
484.042	-0.0023
484.2421	-0.0108
484.4422	-0.0078
484.6422	-0.0115
484.8422	-0.011
485.0422	-0.0013
485.2422	-0.0078
485.4422	-0.0086
485.6422	-0.0093
485.8421	-0.0054
486.042	0.0003
486.242	-0.006
486.4419	-0.0022
486.6417	-0.0064
486.8416	-0.0006
487.0415	-0.0055
487.2413	-0.0054
487.4411	-0.0054
487.641	-0.0029
487.8408	-0.0081
488.0405	-0.0083
488.2403	-0.0035
488.4401	-0.009
488.6398	-0.0068
488.8395	-0.013
489.0392	-0.0022
489.2389	-0.0094
489.4386	-0.0043
489.6383	-0.0047
489.8379	-0.0106
490.0376	-0.0103
490.2372	-0.0061
490.4368	-0.0107
490.6364	-0.0045
490.836	-0.014
491.0355	0.0015
491.2351	-0.0086
491.4346	-0.0085
491.6341	-0.0113
491.8336	-0.012
492.0331	-0.0085
492.2326	-0.0075
492.432	-0.0008
492.6315	-0.0032
492.8309	-0.0072
493.0303	-0.0094
493.2297	-0.004
493.4291	-0.0074
493.6284	-0.0019
493.8278	-0.0054
494.0271	-0.0011
494.2264	-0.0073
494.4257	-0.0005
494.625	-0.0008
494.8243	-0.0072
495.0236	-0.0172
495.2228	-0.0026
495.422	-0.0092
495.6213	-0.0102
495.8205	-0.0001
496.0196	-0.0031
496.2188	-0.0062
496.418	-0.0063
496.6171	0.0009
496.8162	-0.0077
497.0153	0.0076
497.2144	-0.0064
497.4135	0.0002
497.6126	-0.0039
497.8116	-0.0082
498.0107	-0.0038
498.2097	-0.0069
498.4087	-0.0111
498.6077	-0.0026
498.8067	-0.0121
499.0056	-0.0091
499.2046	-0.0039
499.4035	-0.0143
499.6024	-0.0057
499.8013	-0.0031
500.0002	-0.0107
500.199	-0.0073
500.3979	-0.004
500.5967	-0.0081
500.7956	-0.0177
500.9944	-0.0077
501.1932	-0.0057
501.3919	-0.017
501.5907	-0.0065
501.7895	0.0004
501.9882	-0.01
502.1869	-0.0011
502.3856	-0.0095
502.5843	-0.0134
502.783	-0.0103
502.9816	-0.0094
503.1803	-0.0087
503.3789	-0.005
503.5775	-0.0049
503.7761	-0.0076
503.9747	-0.0012
504.1732	-0.0059
504.3718	-0.0023
504.5703	-0.0035
504.7689	-0.0046
504.9674	-0.0039
505.1658	-0.0082
505.3643	-0.0006
505.5628	0.0021
505.7612	-0.0061
505.9597	-0.0081
506.1581	-0.0048
506.3565	-0.0045
506.5549	-0.0031
506.7532	-0.0099
506.9516	0.0006
507.1499	-0.0048
507.3482	-0.0032
507.5465	-0.005
507.7448	-0.0048
507.9431	-0.0024
508.1414	-0.0086
508.3396	0.0001
508.5379	-0.0098
508.7361	0.0028
508.9343	-0.0086
509.1325	-0.0058
509.3306	-0.0039
509.5288	-0.002
509.7269	-0.0099
509.9251	-0.0085
510.1232	-0.0039
510.3213	-0.0089
510.5193	-0.0052
510.7174	-0.0015
510.9154	-0.0065
511.1135	-0.0016
511.3115	-0.01
511.5095	-0.0108
511.7075	-0.0064
511.9055	-0.0153
512.1034	-0.0077
512.3014	-0.0083
512.4993	-0.0059
512.6972	-0.0108
512.8951	-0.0019
513.093	-0.0119
513.2908	-0.0018
513.4887	-0.0046
513.6865	-0.0092
513.8844	-0.0015
514.0822	-0.0012
514.2799	-0.0167
514.4777	-0.0034
514.6755	-0.0061
514.8732	-0.007
515.0709	-0.0112
515.2687	-0.0058
515.4664	-0.0113
515.664	-0.0038
515.8617	-0.0074
516.0594	-0.0088
516.257	-0.0043
516.4546	-0.014
516.6522	-0.0064
516.8498	-0.0108
517.0474	-0.0014
517.2449	-0.0102
517.4425	-0.0043
517.64	-0.0087
517.8375	-0.0075
518.035	-0.0051
518.2325	-0.0066
518.43	-0.0031
518.6274	-0.0124
518.8249	-0.0051
519.0223	-0.0119
519.2197	-0.0073
519.4171	-0.0094
519.6145	-0.0075
519.8118	-0.0078
520.0092	-0.0021
520.2065	-0.017
520.4038	-0.0059
520.6011	-0.0087
520.7984	-0.0054
520.9956	-0.0067
521.1929	-0.0088
521.3901	-0.0062
521.5874	-0.0068
521.7846	0.0002
521.9818	-0.0042
522.1789	-0.0046
522.3761	-0.0076
522.5732	-0.0021
522.7704	-0.0071
522.9675	-0.0038
523.1646	-0.0025
523.3617	-0.0028
523.5587	-0.0146
523.7558	-0.0066
523.9528	-0.0012
524.1498	-0.0079
524.3468	0.0015
524.5438	-0.0001
524.7408	-0.0109
524.9378	-0.0063
525.1347	-0.0071
525.3316	-0.0026
525.5285	-0.003
525.7254	-0.0084
525.9223	0.0017
526.1192	-0.0017
526.316	-0.0063
526.5129	-0.0042
526.7097	-0.0074
526.9065	-0.002
527.1033	-0.0003
527.3	-0.0043
527.4968	-0.0161
527.6935	-0.0047
527.8903	-0.0036
528.087	-0.0168
528.2837	-0.0001
528.4804	-0.0055
528.677	-0.006
528.8737	-0.0062
529.0703	-0.0011
529.2669	0.0008
529.4635	-0.0052
529.6601	-0.0065
529.8567	-0.0039
530.0532	-0.0042
530.2498	-0.0051
530.4463	-0.0055
530.6428	0.0015
530.8393	-0.0037
531.0358	-0.0166
531.2322	-0.0046
531.4287	-0.0145
531.6251	-0.009
531.8215	0.0028
532.0179	-0.0066
532.2143	-0.0035
532.4107	-0.002
532.607	-0.01
532.8034	-0.0074
532.9997	-0.0032
533.196	-0.0121
533.3923	-0.0008
533.5886	-0.0035
533.7848	-0.009
533.9811	-0.0047
534.1773	-0.0124
534.3735	-0.0056
534.5697	-0.0067
534.7659	-0.0038
534.9621	0
535.1582	-0.0034
535.3544	-0.0074
535.5505	-0.0049
535.7466	-0.0123
535.9427	0
536.1387	-0.004
536.3348	0.0001
536.5308	-0.005
536.7269	-0.0059
536.9229	-0.0037
537.1189	-0.0149
537.3148	-0.0036
537.5108	-0.0001
537.7068	-0.0091
537.9027	-0.0057
538.0986	0.0012
538.2945	-0.0067
538.4904	-0.0057
538.6863	-0.0087
538.8821	-0.0066
539.078	-0.0093
539.2738	-0.0078
539.4696	-0.0068
539.6654	-0.004
539.8611	-0.0064
540.0569	-0.0076
540.2526	-0.0072
540.4484	0.0034
540.6441	-0.0046
540.8398	-0.0101
541.0355	-0.0063
541.2311	-0.0016
541.4268	-0.0016
541.6224	-0.0024
541.818	-0.0012
542.0136	-0.0077
542.2092	-0.006
542.4048	-0.0094
542.6003	-0.0008
542.7959	0.0004
542.9914	-0.0065
543.1869	-0.0048
543.3824	-0.0105
543.5779	-0.0061
543.7734	-0.0097
543.9688	-0.0108
544.1642	-0.0097
544.3596	-0.0069
544.555	-0.0039
544.7504	-0.0056
544.9458	-0.0048
545.1411	0.0048
545.3365	-0.0055
545.5318	0.0041
545.7271	0.0021
545.9224	-0.0026
546.1177	-0.0077
546.3129	-0.003
546.5081	-0.0014
546.7034	-0.0082
546.8986	-0.0107
547.0938	-0.0083
547.289	-0.0034
547.4841	-0.0084
547.6793	-0.0016
547.8744	0.0022
548.0695	-0.007
548.2646	-0.0113
548.4597	0.0024
548.6548	-0.0074
548.8498	-0.005
549.0448	-0
549.2399	0.0004
549.4349	-0.0021
549.6298	-0.0067
549.8248	-0.0014
550.0198	-0.0042
550.2147	-0.003
550.4096	-0.0073
550.6045	-0.0091
550.7994	-0.0042
550.9943	-0.0021
551.1892	-0.0092
551.384	-0.0144
551.5788	-0.0053
551.7737	-0.0052
551.9685	-0.0084
552.1632	-0.0053
552.358	-0.0108
552.5528	-0.008
552.7475	-0.0055
552.9422	-0.0045
553.1369	-0.0086
553.3316	-0.0038
553.5263	-0.0013
553.7209	-0.0086
553.9156	-0.0038
554.1102	-0.0051
554.3048	-0.004
554.4994	-0.0087
554.694	-0.005
554.8885	-0.0028
555.0831	-0.0065
555.2776	0.0017
555.4721	-0.0053
555.6666	-0.0085
555.8611	-0.0056
556.0555	-0.0082
556.25	-0.0044
556.4444	-0.0029
556.6388	-0.0105
556.8332	-0.0056
557.0276	-0.0064
557.222	-0.0076
557.4163	0.0002
557.6107	-0.0083
557.805	-0.0081
557.9993	-0.0028
558.1936	-0.0107
558.3879	-0.0011
558.5821	-0.0023
558.7764	-0.0084
558.9706	-0.006
559.1648	-0.004
559.359	-0.0113
559.5532	-0.0056
559.7473	-0.0099
559.9415	-0.0086
560.1356	-0.0053
560.3297	-0.0117
560.5238	-0.0123
560.7179	-0.0108
560.9119	0.0007
561.106	0.0001
561.3	0.0011
561.494	-0.0105
561.688	-0.0022
561.882	-0.0034
562.076	-0.0042
562.2699	-0.0065
562.4639	-0.0073
562.6578	-0.008
562.8517	-0.0043
563.0456	0.0009
563.2395	-0.009
563.4333	-0.0046
563.6272	-0.0041
563.821	-0.0046
564.0148	0.0006
564.2086	-0.0088
564.4024	-0.004
564.5961	-0.0007
564.7899	0.001
564.9836	0.003
565.1773	-0.0083
565.371	-0.0009
565.5647	0.0007
565.7584	-0.0012
565.952	-0.0003
566.1456	-0.0003
566.3393	0.0014
566.5329	-0.003
566.7264	-0.0023
566.92	0.0001
567.1136	-0.001
567.3071	0.0006
567.5006	-0.001
567.6941	0.0012
567.8876	-0.001
568.0811	0.0007
568.2745	-0.0067
568.468	-0.0071
568.6614	-0.0038
568.8548	-0.0088
569.0482	-0.0085
569.2416	0.0011
569.4349	-0.0017
569.6283	-0.0085
569.8216	-0.0026
570.0149	-0.0089
570.2082	-0.0042
570.4015	-0.0007
570.5947	-0.003
570.788	-0.0058
570.9812	-0.0096
571.1744	-0.0108
571.3676	-0.0094
571.5608	0.0002
571.754	-0.0076
571.9471	-0.0032
572.1402	-0.0034
572.3333	-0.0002
572.5264	-0.0012
572.7195	-0.0033
572.9126	-0.0028
573.1057	-0.0026
573.2987	0.0004
573.4917	-0.0076
573.6847	-0.0063
573.8777	-0.0065
574.0707	0.0007
574.2636	-0.0073
574.4566	-0.006
574.6495	-0.0061
574.8424	0.0035
575.0353	-0.0033
575.2281	-0.0006
575.421	-0.0096
575.6138	-0.0054
575.8067	-0.0015
575.9995	0.0011
576.1923	-0.0045
576.385	-0.0037
576.5778	-0.0024
576.7706	-0.0013
576.9633	-0.0024
577.156	0.0019
577.3487	-0.0028
577.5414	0.0024
577.734	0.004
577.9267	0.0039
578.1193	-0.0027
578.3119	-0.0022
578.5045	-0.0042
578.6971	-0.0035
578.8897	-0.0067
579.0822	-0.0042
579.2747	0.004
579.4673	-0.0041
579.6598	-0.0034
579.8522	-0.001
580.0447	-0.007
580.2372	0.0005
580.4296	0.006
580.622	0.0005
580.8144	-0.0037
581.0068	-0.0003
581.1992	0.0016
581.3915	-0.003
581.5839	-0.0052
581.7762	-0.005
581.9685	-0.0029
582.1608	-0.0068
582.353	-0.0013
582.5453	-0.0061
582.7375	0.0007
582.9298	-0.0067
583.122	0.0007
583.3142	-0.0025
583.5063	-0.0022
583.6985	-0.003
583.8906	-0.0039
584.0827	-0.0052
584.2749	-0.0104
584.4669	-0.0061
584.659	-0.0073
584.8511	-0.0038
585.0431	-0.0035
585.2352	-0.0063
585.4272	-0.0068
585.6192	-0.0058
585.8111	-0.0051
586.0031	-0.0013
586.195	-0.0059
586.387	-0.0028
586.5789	-0.0033
586.7708	-0.0104
586.9627	-0.0045
587.1545	-0.0054
587.3464	-0.0056
587.5382	-0.0067
587.73	-0.007
587.9218	-0.0045
588.1136	-0.005
588.3053	-0.0021
588.4971	-0.0098
588.6888	-0.0026
588.8805	-0.0024
589.0722	-0.003
589.2639	-0.0006
589.4556	-0.0053
589.6472	-0.0023
589.8389	-0.0041
590.0305	-0.0058
590.2221	-0.0046
590.4137	-0.0023
590.6052	-0.0019
590.7968	-0.0039
590.9883	-0.0019
591.1798	-0.0053
591.3713	-0.0024
591.5628	-0.0079
591.7543	-0.0007
591.9458	-0.0015
592.1372	-0.0056
592.3286	-0.0009
592.52	-0.0047
592.7114	0.0026
592.9028	-0.0031
593.0941	-0.0032
593.2855	-0.003
593.4768	0.0002
593.6681	-0.0033
593.8594	0.0021
594.0506	0.0008
594.2419	0.0027
594.4331	-0.0036
594.6244	0.0003
594.8156	-0.0054
595.0067	-0.0018
595.1979	-0.0043
595.3891	-0.0043
595.5802	-0.0041
595.7713	-0.0048
595.9624	0.0004
596.1535	0.0003
596.3446	-0.0011
596.5357	-0.0012
596.7267	-0.0023
596.9177	-0.0011
597.1087	-0.0011
597.2997	-0.0027
597.4907	-0.001
597.6817	-0.0017
597.8726	-0.0047
598.0635	-0.005
598.2544	-0.0057
598.4453	-0.005
598.6362	-0.0079
598.827	-0.0045
599.0179	-0.0039
599.2087	-0.0097
599.3995	-0.0101
599.5903	-0.0003
599.7811	-0.0035
599.9718	0.0003
600.1626	-0.0009
600.3533	-0.0017
600.544	-0.0039
600.7347	0.0017
600.9254	-0.0016
601.116	-0.006
601.3067	-0.0031
601.4973	-0.0049
601.6879	-0.0026
601.8785	-0.0054
602.0691	-0.0025
602.2596	-0.0056
602.4502	-0.0065
602.6407	-0.0013
602.8312	-0.0022
603.0217	-0.0049
603.2122	-0.0027
603.4027	-0.005
603.5931	-0.0048
603.7835	-0.005
603.9739	-0.002
604.1643	0.0004
604.3547	-0.0024
604.5451	-0.0049
604.7354	-0.0043
604.9257	-0.0059
605.116	0.0008
605.3063	-0.0047
605.4966	-0.0001
605.6869	-0.0065
605.8771	-0.0017
606.0673	-0.0038
606.2575	-0.0052
606.4477	-0.0068
606.6379	-0.01
606.8281	-0.0053
607.0182	-0.0102
607.2083	-0.007
607.3985	-0.0076
607.5885	-0.0044
607.7786	-0.0044
607.9687	-0.0063
608.1587	-0.0066
608.3488	-0.0077
608.5388	-0.0007
608.7288	-0.004
608.9187	-0.0011
609.1087	-0.003
609.2986	-0.0026
609.4886	-0.0033
609.6785	-0.0011
609.8684	-0.0045
610.0582	-0.0023
610.2481	-0.0008
610.4379	-0.0021
610.6278	0.0004
610.8176	-0.0003
611.0074	-0.0011
611.1971	0.0029
611.3869	-0.0038
611.5766	-0.0008
611.7664	-0.0005
611.9561	-0.0014
612.1458	0.0046
612.3354	-0.0074
612.5251	-0.0047
612.7147	-0.0033
612.9044	-0.0061
613.094	-0.0037
613.2836	-0.0051
613.4731	-0.0095
613.6627	-0.0084
613.8522	-0.001
614.0417	-0.005
614.2313	-0.0046
614.4207	-0.0072
614.6102	-0.0003
614.7997	-0.0058
614.9891	-0.0022
615.1785	-0.0063
615.3679	0.0023
615.5573	-0.0001
615.7467	-0.0051
615.9361	-0.0035
616.1254	-0.0056
616.3147	0.0007
616.504	-0.0018
616.6933	-0.0005
616.8826	-0.0085
617.0718	-0.0043
617.2611	0.0008
617.4503	0.0006
617.6395	-0.0023
617.8287	-0.0004
618.0179	0.0038
618.207	-0.0044
618.3961	-0.0066
618.5853	-0.0069
618.7744	-0.0039
618.9634	0.0062
619.1525	-0.006
619.3416	-0.0069
619.5306	-0.0012
619.7196	-0.0011
619.9086	-0.0013
620.0976	-0.0021
620.2866	0.0007
620.4755	-0.0041
620.6645	0.0007
620.8534	0.0027
621.0423	-0.0054
621.2312	-0.0069
621.42	-0.0011
621.6089	-0.0016
621.7977	-0.0037
621.9865	-0.0044
622.1753	0.0003
622.3641	-0.0021
622.5529	0.0014
622.7416	-0.0024
622.9303	0.0009
623.1191	-0.0004
623.3078	-0.0006
623.4964	-0.0001
623.6851	-0.0004
623.8737	-0.0007
624.0624	0.0005
624.251	0.0008
624.4396	0.0002
624.6282	0.0029
624.8167	0.003
625.0053	-0.0022
625.1938	-0.0001
625.3823	-0.005
625.5708	-0.0006
625.7593	-0.0014
625.9477	-0.0058
626.1362	-0.0034
626.3246	-0.0041
626.513	-0.0034
626.7014	-0.0026
626.8898	-0.0052
627.0781	0.0003
627.2665	-0.001
627.4548	-0.0092
627.6431	-0.0066
627.8314	-0.003
628.0197	-0.0014
628.2079	-0.0026
628.3962	-0.0011
628.5844	0.0019
628.7726	-0.0019
628.9608	-0.0041
629.1489	0.0038
629.3371	-0.0019
629.5252	0.0022
629.7134	0.0011
629.9015	0.0016
630.0895	-0.0011
630.2776	0.0024
630.4657	-0.0011
630.6537	-0.0017
630.8417	-0.0026
631.0297	-0.0011
631.2177	0.0048
631.4057	0.0027
631.5936	0.004
631.7815	-0.0022
631.9695	-0.0004
632.1574	-0.0046
632.3452	-0.0075
632.5331	-0.003
632.7209	-0.0089
632.9088	-0.0067
633.0966	-0.0081
633.2844	-0.002
633.4722	-0.0052
633.6599	-0.0051
633.8477	-0.0014
634.0354	-0.0051
634.2231	-0.0076
634.4108	-0.0029
634.5985	-0.0042
634.7861	-0.0064
634.9738	-0.0037
635.1614	-0.0068
635.349	-0.0017
635.5366	-0.0028
635.7242	0.0005
635.9117	-0.0032
636.0993	-0.0018
636.2868	-0.0057
636.4743	-0.0022
636.6618	-0.0054
636.8492	-0.0022
637.0367	-0.0024
637.2241	-0.0018
637.4115	-0.0048
637.5989	-0.0029
637.7863	-0.0016
637.9737	-0.0053
638.161	-0.0016
638.3484	-0.0038
638.5357	-0.0015
638.723	0.0018
638.9103	0.0025
639.0975	0.0019
639.2848	-0.0063
639.472	0.0023
639.6592	0.0068
639.8464	-0.0036
640.0336	-0.0014
640.2208	0.0045
640.4079	-0.0035
640.595	0.0012
640.7821	0.0003
640.9692	0.0003
641.1563	0.0061
641.3434	0.002
641.5304	0.0012
641.7174	0.0038
641.9044	0.0062
642.0914	-0.0039
642.2784	0.0026
642.4653	0.0058
642.6523	-0.0035
642.8392	0.0054
643.0261	0.0062
643.213	-0.0022
643.3999	-0.0046
643.5867	-0.0043
643.7735	-0.0006
643.9604	-0.0003
644.1472	0.0023
644.3339	0.0012
644.5207	-0.0005
644.7075	-0.0042
644.8942	-0.0023
645.0809	-0.0014
645.2676	-0.004
645.4543	0.002
645.6409	-0.0004
645.8276	-0.0007
646.0142	-0.0026
646.2008	-0.0059
646.3874	-0.0085
646.574	-0.008
646.7605	-0.0031
646.9471	-0.0068
647.1336	0.0002
647.3201	-0.0028
647.5066	-0.002
647.6931	0.0003
647.8795	-0.0066
648.0659	-0.0031
648.2524	-0.0041
648.4388	-0.0045
648.6252	-0.0054
648.8115	-0.0143
648.9979	-0.0065
649.1842	-0.0081
649.3705	-0.0058
649.5568	-0.0028
649.7431	-0.0028
649.9294	-0.0003
650.1156	-0.0058
650.3018	-0.0061
650.488	-0.0085
650.6742	-0.0054
650.8604	0.0021
651.0466	-0.0009
651.2327	-0.0023
651.4188	-0.002
651.6049	0.0037
651.791	-0.0023
651.9771	0
652.1632	0.0013
652.3492	0.0045
652.5352	-0.0042
652.7212	0
652.9072	0.0062
653.0932	0.0012
653.2791	-0.0009
653.465	-0
653.651	-0.0022
653.8369	-0.0024
654.0227	0.0023
654.2086	-0.0002
654.3944	-0.0106
654.5803	-0.011
654.7661	-0.0085
654.9519	0.0011
655.1377	-0.0023
655.3234	-0.0002
655.5092	-0.0002
655.6949	-0.0002
655.8806	-0.0002
656.0663	-0.0002
656.2519	-0.0002
656.4376	-0.0048
656.6232	-0.0047
656.8088	-0.0058
656.9945	-0.0039
657.18	-0.0019
657.3656	-0.0015
657.5511	-0.0074
657.7367	-0.0046
657.9222	-0.0014
658.1077	-0.0013
658.2932	-0.0037
658.4786	0.0009
658.6641	-0.0012
658.8495	-0.0035
659.0349	-0.002
659.2203	-0.0098
659.4057	-0.0069
659.591	0.0012
659.7764	-0.003
659.9617	-0.0062
660.147	-0.0047
660.3323	-0.0076
660.5176	-0.0073
660.7028	-0.0066
660.888	-0.0036
661.0733	-0.0017
661.2585	-0.0098
661.4436	-0.0025
661.6288	-0.0061
661.8139	0.0007
661.9991	0.0012
662.1842	-0.0008
662.3693	-0.0035
662.5544	-0.0016
662.7394	-0.0007
662.9245	0.001
663.1095	0.003
663.2945	-0.0038
663.4795	-0.0045
663.6644	-0.0053
663.8494	-0.0089
664.0343	-0.0037
664.2193	-0.0047
664.4042	-0.0079
664.589	-0.0057
664.7739	-0.0061
664.9587	-0.0002
665.1436	0.0007
665.3284	-0.0025
665.5132	-0.0045
665.698	0.0047
665.8827	0.0016
666.0675	-0.0092
666.2522	-0.0089
666.4369	-0.011
666.6216	-0.0113
666.8063	-0.0099
666.9909	-0.0116
667.1756	-0.0032
667.3602	-0.0089
667.5448	-0.0075
667.7294	-0.0069
667.9139	-0.008
668.0985	-0.0086
668.283	-0.0089
668.4675	-0.0129
668.652	-0.0104
668.8365	-0.0091
669.0209	-0.0097
669.2054	-0.0057
669.3898	-0.0075
669.5742	-0.009
669.7586	-0.0038
669.943	-0.0064
670.1273	-0.0103
670.3117	-0.0056
670.496	-0.0057
670.6803	-0.0024
670.8646	-0.0063
671.0488	-0.0004
671.2331	-0.0059
671.4173	0.0001
671.6015	-0.0059
671.7857	-0.0079
671.9699	-0.0076
672.1541	-0.0045
672.3382	-0.0058
672.5223	-0.0044
672.7064	-0.0121
672.8905	-0.011
673.0746	-0.0082
673.2587	-0.0162
673.4427	-0.0117
673.6267	-0.01
673.8107	-0.0113
673.9947	-0.0104
674.1787	-0.0112
674.3626	-0.0075
674.5465	-0.0038
674.7304	0.0008
674.9143	-0.0039
675.0982	-0.0005
675.2821	-0.0017
675.4659	-0.0041
675.6497	0.0007
675.8335	-0.0026
676.0173	-0.0083
676.2011	-0.0074
676.3849	-0.0059
676.5686	-0.0035
676.7523	-0.0048
676.936	-0.0039
677.1197	-0.0007
677.3034	-0.0062
677.487	-0.0039
677.6706	-0.0042
677.8542	-0.0018
678.0378	-0.0025
678.2214	-0.0106
678.405	-0.0016
678.5885	-0.0072
678.772	-0.0028
678.9555	0.0007
679.139	-0.0079
679.3225	-0.0094
679.5059	-0.0061
679.6894	-0.005
679.8728	-0.0018
680.0562	-0.0001
680.2395	-0.003
680.4229	0.0009
680.6062	0.001
680.7896	0.0018
680.9729	-0.0025
681.1562	0.0019
681.3394	0.0027
681.5227	-0.0042
681.7059	-0.002
681.8891	-0.0017
682.0723	-0.0088
682.2555	-0.0055
682.4387	-0.0047
682.6218	-0.0069
682.805	-0.0055
682.9881	-0.0046
683.1712	0.0018
683.3542	-0.0039
683.5373	-0.0067
683.7203	0.0007
683.9034	-0.0029
684.0864	-0.0062
684.2694	-0.0048
684.4523	-0.0017
684.6353	-0.0014
684.8182	-0.0032
685.0011	-0.0063
685.184	-0.0023
685.3669	-0.0069
685.5498	-0.0014
685.7326	-0.0042
685.9154	-0.0053
686.0982	-0.005
686.281	-0.0082
686.4638	-0.0088
686.6465	-0.0062
686.8293	-0.0059
687.012	-0.0044
687.1947	-0.0096
687.3774	-0.0046
687.56	-0.0036
687.7427	-0.0008
687.9253	-0.0045
688.1079	0.0035
688.2905	-0.0029
688.4731	0.0004
688.6556	-0.0041
688.8382	-0.0014
689.0207	0.0049
689.2032	0.0026
689.3857	-0.0038
689.5681	0.0007
689.7506	-0.0001
689.933	0.0025
690.1154	-0.0028
690.2978	0.0013
690.4802	-0.0038
690.6626	0.0065
690.8449	0.0012
691.0272	0.0057
691.2095	0.0008
691.3918	-0.007
691.5741	-0.0019
691.7563	0.0014
691.9386	-0.0086
692.1208	-0.0061
692.303	0.0011
692.4852	-0.0038
692.6673	-0.0034
692.8495	-0.0066
693.0316	-0.007
693.2137	-0.0065
693.3958	-0.0002
693.5778	-0.001
693.7599	-0.0086
693.9419	-0.0107
694.1239	-0.006
694.3059	-0.0061
694.4879	-0.0099
694.6699	-0.0088
694.8518	-0.0065
695.0337	-0.007
695.2157	-0.0083
695.3975	-0.0088
695.5794	-0.0084
695.7613	-0.0049
695.9431	-0.0017
696.1249	-0.0058
696.3067	-0.0085
696.4885	0.0022
696.6703	-0.0053
696.852	-0.0038
697.0337	-0.001
697.2154	-0.001
697.3971	-0.0029
697.5788	-0.0037
697.7605	-0.002
697.9421	-0.0043
698.1237	-0.0067
698.3053	-0.002
698.4869	0.0026
698.6685	-0.0067
698.85	-0.0102
699.0315	-0.0007
699.213	-0.0015
699.3945	0.0013
699.576	0.0073
699.7575	0.0014
699.9389	-0.0037
700.1203	-0.0021
700.3017	-0.007
700.4831	-0.0015
700.6645	-0.0047
700.8458	-0.0096
701.0271	-0.0061
701.2084	-0.0118
701.3897	-0.0031
701.571	-0.0011
701.7523	-0.0021
701.9335	0.0036
702.1147	0.0015
702.2959	-0.0066
702.4771	-0.0019
702.6583	-0.0026
702.8394	-0.0008
703.0205	-0.0021
703.2016	-0.0012
703.3827	0.0006
703.5638	-0.0066
703.7449	-0.0029
703.9259	-0.0027
704.1069	0.0013
704.2879	-0.0008
704.4689	-0.0077
704.6499	-0.0029
704.8308	-0.0055
705.0117	-0.0019
705.1927	-0.0034
705.3735	0.0018
705.5544	-0.0008
705.7353	-0.0031
705.9161	0.0024
706.0969	0.0036
706.2777	-0.006
706.4585	-0.0041
706.6393	-0.0064
706.82	-0.0025
707.0007	-0.0072
707.1815	-0.0001
707.3621	-0.0056
707.5428	-0.0064
707.7235	-0.0041
707.9041	-0.0051
708.0847	-0.0018
708.2653	-0.005
708.4459	-0.0035
708.6265	-0.0086
708.807	-0.0017
708.9875	-0.0048
709.168	-0.0056
709.3485	-0.0039
709.529	-0.0082
709.7095	-0.0041
709.8899	-0.0115
710.0703	0.0007
710.2507	-0.0069
710.4311	0.0006
710.6115	0.0054
710.7918	-0.0009
710.9721	0.001
711.1524	0.0016
711.3327	0.0035
711.513	-0.0031
711.6932	-0.0006
711.8735	0.0031
712.0537	-0.003
712.2339	-0.0011
712.4141	-0.001
712.5942	0.0055
712.7744	-0.001
712.9545	0.0005
713.1346	0.0015
713.3147	0.0062
713.4947	0.0039
713.6748	-0.0042
713.8548	-0.0057
714.0348	-0.0016
714.2148	-0.0053
714.3948	-0.0028
714.5748	-0.0086
714.7547	-0.01
714.9346	-0.0024
715.1145	-0.0066
715.2944	0.0001
715.4743	-0.0077
715.6541	-0.0034
715.834	0
716.0138	0.0018
716.1936	-0.0014
716.3733	-0.0066
716.5531	-0.0045
716.7328	-0.0028
716.9126	-0.0017
717.0923	0.0004
717.2719	-0.0095
717.4516	-0.0095
717.6312	-0.0007
717.8109	-0.0034
717.9905	-0.0027
718.1701	-0.0076
718.3496	-0.0046
718.5292	-0.0007
718.7087	-0.0015
718.8882	-0.0058
719.0677	-0.0019
719.2472	-0.0027
719.4267	-0.0122
719.6061	-0.0119
719.7856	0.0037
719.965	-0.0049
720.1443	-0.0019
720.3237	-0.0017
720.5031	-0.0083
720.6824	-0.0051
720.8617	-0.013
721.041	-0.0023
721.2203	-0.0073
721.3995	0.0001
721.5788	-0.0088
721.758	-0.0045
721.9372	-0.0053
722.1164	-0.0102
722.2956	-0.0104
722.4747	-0.0031
722.6538	-0.0098
722.8329	-0.0041
723.012	-0.0032
723.1911	-0.0032
723.3702	-0.0019
723.5492	-0.0001
723.7282	0.0004
723.9072	-0.0017
724.0862	0.0008
724.2652	0.0001
724.4441	-0.0106
724.623	0.0033
724.8019	-0.0049
724.9808	-0.0062
725.1597	0.0048
725.3385	-0.0015
725.5174	-0.0018
725.6962	-0.0054
725.875	0.0037
726.0538	0.0005
726.2325	-0.0004
726.4112	-0.0061
726.59	0.0001
726.7687	-0.0051
726.9474	-0.0034
727.126	-0.0053
727.3047	-0.0033
727.4833	0.0004
727.6619	-0.0102
727.8405	-0.0005
728.0191	0.0017
728.1976	-0.0065
728.3762	-0.0062
728.5547	-0.0039
728.7332	-0.0039
728.9116	-0.0158
729.0901	-0.0101
729.2686	-0.0121
729.447	-0.006
729.6254	-0.0059
729.8038	-0.0133
729.9821	-0.0024
730.1605	-0.0007
730.3388	-0.001
730.5171	-0.0013
730.6954	-0.0015
730.8737	-0.0029
731.0519	0.0004
731.2302	0.0018
731.4084	0.0027
731.5866	-0.0001
731.7648	-0.0003
731.9429	0.0016
732.1211	0.0038
732.2992	0.002
732.4773	0.0044
732.6554	-0.0045
732.8335	-0.0068
733.0115	-0.0075
733.1896	-0.0125
733.3676	-0.0041
733.5456	-0.0028
733.7235	-0.0037
733.9015	0.0032
734.0794	0.0001
734.2574	-0.0008
734.4353	-0.0078
734.6131	0.0048
734.791	-0.0062
734.9689	-0.0003
735.1467	0.0057
735.3245	0.0007
735.5023	-0.0016
735.68	-0.0043
735.8578	-0.0018
736.0355	0.0081
736.2132	-0.0021
736.3909	-0.0002
736.5686	-0.0046
736.7463	-0.0069
736.9239	-0.0059
737.1015	-0.0014
737.2791	-0.0105
737.4567	-0.0097
737.6343	-0.0045
737.8118	-0.0083
737.9894	0.0023
738.1669	-0.0073
738.3444	-0.0037
738.5218	0.0024
738.6993	0.0006
738.8767	-0.0034
739.0541	-0.0049
739.2315	-0.0047
739.4089	-0.0021
739.5863	-0.0075
739.7636	-0.0053
739.9409	-0.0053
740.1182	-0.002
740.2955	-0
740.4728	-0.002
740.65	0.0003
740.8272	-0.0002
741.0044	-0.0023
741.1816	-0.0003
741.3588	0.0049
741.5359	0.0029
741.7131	0.0066
741.8902	0.0019
742.0673	0.0008
742.2444	-0.0074
742.4214	-0.0026
742.5985	-0.0081
742.7755	-0.009
742.9525	-0.004
743.1295	-0.004
743.3064	-0.0056
743.4834	-0.0016
743.6603	-0.0058
743.8372	0.0005
744.0141	-0.0104
744.191	-0.0042
744.3678	-0.0024
744.5446	0.0044
744.7215	-0.01
744.8982	0.0032
745.075	-0.0022
745.2518	-0.0008
745.4285	-0.0016
745.6052	0.006
745.7819	-0.0045
745.9586	0.0005
746.1353	0.0008
746.3119	0.004
746.4885	-0.0041
746.6651	-0.0079
746.8417	-0.0017
747.0183	-0.0031
747.1948	-0.0087
747.3714	-0.0065
747.5479	-0.003
747.7244	-0.0019
747.9008	-0.0007
748.0773	0.0058
748.2537	0.0012
748.4301	0.0015
748.6065	-0.003
748.7829	0.0032
748.9593	0.0018
749.1356	-0.008
749.3119	0.0036
749.4882	0.0022
749.6645	-0.0016
749.8408	-0.0007
750.017	-0.0067
750.1933	-0.0076
750.3695	-0.0098
750.5457	-0.0114
750.7218	-0.0128
750.898	-0.0084
751.0741	-0.0056
751.2502	-0.0077
751.4263	-0.0049
751.6024	-0.0113
751.7784	0.005
751.9545	-0.0014
752.1305	-0.0035
752.3065	-0.0075
752.4825	-0.0035
752.6584	-0.0002
752.8344	-0.0056
753.0103	-0.0077
753.1862	0.0034
753.3621	-0.0068
753.5379	-0.007
753.7138	0.0011
753.8896	-0.0083
754.0654	-0.006
754.2412	-0.0125
754.417	-0.0051
754.5927	-0.0071
754.7685	-0.0163
754.9442	-0.0131
755.1199	-0.0112
755.2956	-0.0046
755.4712	-0.0109
755.6469	-0.0078
755.8225	-0.0119
755.9981	-0.0078
756.1736	-0.0092
756.3492	-0.0077
756.5248	-0.0004
756.7003	-0.0101
756.8758	-0.0069
757.0513	-0.0083
757.2267	-0.0071
757.4022	-0.0072
757.5776	-0.0102
757.753	-0.0105
757.9284	-0.0082
758.1038	-0.0032
758.2791	-0.0088
758.4545	-0.0126
758.6298	-0.0076
758.8051	-0.0098
758.9803	-0.0039
759.1556	-0.0063
759.3308	-0.0052
759.506	-0.0116
759.6812	-0.0092
759.8564	-0.0065
760.0316	-0.0105
760.2067	-0.0082
760.3819	-0.0052
760.557	-0.0104
760.732	-0.008
760.9071	-0.0122
761.0821	-0.0134
761.2572	-0.0164
761.4322	-0.0128
761.6072	-0.007
761.7821	-0.0093
761.9571	-0.0147
762.132	-0.009
762.3069	-0.0049
762.4818	-0.0038
762.6567	-0.0122
762.8316	-0.0049
763.0064	-0.0075
763.1812	0.001
763.356	-0.0024
763.5308	-0.0042
763.7055	-0.001
763.8803	-0.0054
764.055	-0.0047
764.2297	-0.0007
764.4044	-0.0005
764.579	0.001
764.7537	-0.0005
764.9283	-0.0018
765.1029	0.0031
765.2775	0.0024
765.4521	0.004
765.6266	0.0048
765.8011	0.0112
765.9756	0.0075
766.1501	0.0075
766.3246	-0.001
766.4991	-0.0012
766.6735	-0.0009
766.8479	-0.0115
767.0223	0.0039
767.1967	-0.004
767.371	-0.0006
767.5454	-0.0057
767.7197	-0.0017
767.894	-0.0023
768.0683	-0.0056
768.2425	-0.0052
768.4168	-0.006
768.591	0.0031
768.7652	0.0013
768.9394	-0.0004
769.1135	0
769.2877	-0.0047
769.4618	0.0008
769.6359	0.0044
769.81	0.0006
769.984	-0.0069
770.1581	-0.0011
770.3321	-0.0013
770.5061	-0.0063
770.6801	0.0017
770.8541	0.0034
771.028	0.0003
771.202	0.0058
771.3759	-0.0016
771.5498	0.0039
771.7236	0.0006
771.8975	-0.0054
772.0713	-0.0019
772.2451	0.0093
772.4189	-0.0063
772.5927	-0.0061
772.7665	-0.0038
772.9402	0.0048
773.1139	0.0016
773.2876	-0.003
773.4613	-0.0075
773.635	0.0001
773.8086	0.0028
773.9822	0.0024
774.1558	-0.0039
774.3294	0.0023
774.503	-0.0009
774.6765	-0.0052
774.8501	0.0063
775.0236	-0.0113
775.1971	-0.0094
775.3705	0.0002
775.544	-0.0052
775.7174	-0.0038
775.8908	-0.0061
776.0642	-0.0022
776.2376	-0.0011
776.4109	-0.0086
776.5843	0.0055
776.7576	-0.0004
776.9309	-0.0027
777.1041	-0.0033
777.2774	0.0058
777.4506	0.0017
777.6238	-0.0021
777.797	-0.0021
777.9702	-0.0101
778.1434	-0.0072
778.3165	0.0036
778.4896	-0.0148
778.6627	-0.0096
778.8358	-0.0102
779.0089	-0.0025
779.1819	-0.0062
779.3549	-0.0062
779.5279	-0.0015
779.7009	-0.0047
779.8739	-0.0033
780.0468	-0.0111
780.2197	-0.0049
780.3926	-0.0019
780.5655	0.0003
780.7384	-0.0025
780.9112	-0.012
781.0841	-0.0029
781.2569	0.0039
781.4297	-0.0061
781.6024	-0.0043
781.7752	-0.0007
781.9479	-0.01
782.1206	0.0024
782.2933	-0.0034
782.466	-0.0023
782.6386	-0.0043
782.8113	-0.0115
782.9839	-0.0077
783.1565	-0.0143
783.329	-0.0042
783.5016	-0.0008
783.6741	-0.0096
783.8466	-0.0147
784.0191	-0.0018
784.1916	-0.0054
784.3641	0.0016
784.5365	0.0088
784.7089	-0.0017
784.8813	0.006
785.0537	0.0068
785.2261	-0.0014
785.3984	0.0005
785.5707	-0.005
785.743	0.0081
785.9153	0.006
786.0876	-0.0047
786.2598	0.0077
786.432	0.0004
786.6042	0.0056
786.7764	0.0009
786.9486	-0.0023
787.1207	-0.0132
787.2928	0.0017
787.4649	-0.0063
787.637	-0.0087
787.8091	0.0006
787.9811	0.0049
788.1532	-0.0023
788.3252	-0.007
788.4972	-0.0005
788.6691	-0.0036
788.8411	-0.0023
789.013	-0.0077
789.1849	0.0065
789.3568	-0.0117
789.5287	-0.0077
789.7005	0.0042
789.8723	0.0022
790.0442	-0.0094
790.2159	-0.0053
790.3877	-0.0142
790.5595	-0.0038
790.7312	0.0034
790.9029	-0.0022
791.0746	-0.0082
791.2463	-0.002
791.4179	-0.004
791.5896	-0.0025
791.7612	-0.0012
791.9328	0.0039
792.1044	-0.0079
792.2759	0.0009
792.4474	-0.0039
792.619	-0.0014
792.7905	-0.0082
792.9619	-0.0006
793.1334	-0.0061
793.3048	-0.005
793.4762	-0.0077
793.6476	-0.0164
793.819	-0.0091
793.9904	-0.016
794.1617	-0.0167
794.333	-0.0096
794.5043	-0.0007
794.6756	0.0039
794.8469	-0.0015
795.0181	-0.0099
795.1893	-0.0093
795.3605	-0.0122
795.5317	-0.002
795.7029	-0.0052
795.874	-0.016
796.0452	-0.007
796.2163	-0.0085
796.3873	-0.0091
796.5584	-0.0114
796.7294	-0.007
796.9005	-0.0109
797.0715	-0.0175
797.2425	-0.0145
797.4134	-0.0206
797.5844	-0.0152
797.7553	-0.0048
797.9262	-0.014
798.0971	-0.0203
798.2679	-0.0055
798.4388	-0.0103
798.6096	-0.012
798.7804	-0.0231
798.9512	-0.0162
799.122	-0.0081
799.2927	-0.0074
799.4635	-0.0032
799.6342	-0.007
799.8049	-0.0127
799.9755	-0.0133
800.1462	-0.0172
800.3168	-0.0029
800.4874	-0.0161
800.658	-0.0283
800.8286	-0.0197
800.9991	-0.0158
801.1696	-0.0141
801.3402	-0.0184
801.5106	-0.0217
801.6811	-0.0167
801.8516	-0.0076
802.022	-0.0259
802.1924	-0.0188
802.3628	-0.0247
802.5332	-0.0169
802.7035	-0.0112
802.8739	-0.0051
803.0442	-0.0118
803.2145	-0.0148
803.3847	-0.0231
803.555	-0.0219
803.7252	-0.0093
803.8954	-0.0043
804.0656	0.0018
804.2358	-0.0138
804.4059	-0.0051
804.5761	-0.0153
804.7462	-0.007
804.9163	-0.0069
805.0864	-0.0151
805.2564	-0.0167
805.4264	-0.0158
805.5965	-0.0118
805.7665	-0.0103
805.9364	-0.0041
806.1064	-0.0146
806.2763	-0.0079
806.4462	-0.0035
806.6161	-0.0082
806.786	-0.0122
806.9559	-0.005
807.1257	-0.0153
807.2955	-0.0075
807.4653	-0.0141
807.6351	-0.012
807.8048	0.0018
807.9746	-0.0048
808.1443	-0.001
808.314	-0.0039
808.4837	0.0045
808.6533	-0.0051
808.8229	0.0021
808.9926	0.0062
809.1622	0.0032
809.3317	0.0078
809.5013	-0.0059
809.6708	0.0017
809.8403	-0.0009
810.0098	0.0102
810.1793	-0.006
810.3488	0.0041
810.5182	-0.0102
810.6876	-0.0023
810.857	-0.0079
811.0264	-0.0095
811.1958	-0.0032
811.3651	-0.0064
811.5344	-0.0028
811.7037	-0.0087
811.873	-0.0036
812.0422	-0.0174
812.2115	-0.0117
812.3807	-0.0095
812.5499	-0.0036
812.7191	-0.0162
812.8882	-0.006
813.0574	-0.0028
813.2265	0.0073
813.3956	-0.0118
813.5646	-0.0099
813.7337	-0.0044
813.9027	0.002
814.0718	-0.008
814.2407	0.0079
814.4097	-0.0058
814.5787	-0.0039
814.7476	-0.0119
814.9165	0.005
815.0854	-0.0104
815.2543	-0.0007
815.4232	-0.0086
815.592	-0.0003
815.7608	-0.0059
815.9296	-0.0082
816.0984	0.0019
816.2671	0.0008
816.4359	-0.0034
816.6046	0.0011
816.7733	-0.0053
816.942	0.0055
817.1106	-0.0054
817.2793	-0.0115
817.4479	-0.0066
817.6165	-0.0124
817.785	-0.0089
817.9536	-0.0108
818.1221	-0.0109
818.2906	-0.0111
818.4591	-0.0225
818.6276	-0.0039
818.7961	-0.009
818.9645	-0.0114
819.1329	-0.0109
819.3013	0.0017
819.4697	0.0119
819.638	-0.0139
819.8064	-0.0034
819.9747	0.0136
820.143	-0.0079
820.3113	-0.0032
820.4795	0.0076
820.6477	-0.0057
820.816	-0.0092
820.9842	-0.0093
821.1523	-0.0281
821.3205	-0.0041
821.4886	-0.0052
821.6567	-0.0065
821.8248	-0.0103
821.9929	-0.0136
822.1609	-0.0172
822.329	-0.0093
822.497	-0.0121
822.665	-0.0152
822.833	-0.0189
823.0009	-0.0067
823.1688	-0.0117
823.3367	-0.0111
823.5046	-0.0012
823.6725	-0.0269
823.8404	-0.0108
824.0082	-0.0066
824.176	-0.012
824.3438	-0.0104
824.5116	0.0014
824.6793	0
824.847	-0.0081
825.0147	-0.0099
825.1824	-0.031
825.3501	0.0014
825.5177	-0.0234
825.6854	0.0044
825.853	0.0014
826.0206	-0.0058
826.1881	-0.0102
826.3557	-0.0009
826.5232	-0.0034
826.6907	-0.0027
826.8582	-0.008
827.0257	-0.0143
827.1931	-0.0036
827.3605	-0.0045
827.528	0.0039
827.6953	0.0094
827.8627	0
828.03	-0.0172
828.1974	-0.0077
828.3647	0.0077
828.532	-0.0045
828.6992	-0.0123
828.8665	-0.0141
829.0337	0.0033
829.2009	-0.0071
829.3681	-0.0192
829.5352	-0.0076
829.7024	-0.0062
829.8695	-0.0201
830.0366	-0.0182
830.2037	-0.0101
830.3707	-0.019
830.5378	-0.0002
830.7048	-0.0145
830.8718	-0.0109
831.0388	-0.0041
831.2057	-0.0114
831.3727	-0.0175
831.5396	-0.0127
831.7065	-0.012
831.8734	0.0083
832.0402	-0.0226
832.2071	0.0034
832.3739	0.0013
832.5407	-0.0055
832.7075	-0.0161
832.8742	0.0024
833.041	-0.0006
833.2077	-0.0314
833.3744	-0.0034
833.541	-0.0124
833.7077	-0.0112
833.8743	-0.0066
834.0409	0.0042
834.2075	0.0017
834.3741	0.0057
834.5407	0.0067
834.7072	-0.0006
834.8737	-0.0044
835.0402	-0.0286
835.2067	-0.0115
835.3731	-0.0318
835.5395	-0.0071
835.706	-0.0059
835.8723	-0.0263
836.0387	-0.0075
836.2051	-0.0161
836.3714	0.0202
836.5377	-0.0083
836.704	-0.0072
836.8703	-0.0307
837.0365	0.0246
837.2027	-0.012
837.3689	-0.0273
837.5351	-0.0189
837.7013	-0.0142
837.8674	-0.0072
838.0335	-0.0067
838.1997	0.0074
838.3657	0.0089
838.5318	-0.0052
838.6978	-0.0254
838.8639	0.0208
839.0299	0.0009
839.1958	0.0096
839.3618	0.0103
839.5277	-0.0065
839.6937	-0.003
839.8596	0.0017
840.0254	-0.0141
840.1913	0.0091
840.3571	0.0037
840.523	0.0102
840.6888	-0.0131
840.8545	-0.0262
841.0203	-0.0035
841.186	-0.0063
841.3517	-0.0193
841.5174	-0.0102
841.6831	0.0022
841.8488	0.005
842.0144	0.0246
842.18	-0.0024
842.3456	0.0043
842.5112	0.0019
842.6767	0.0076
842.8422	0.0232
843.0077	-0.0069
843.1732	-0.0003
843.3387	-0.0168
843.5042	0.0068
843.6696	0.0055
843.835	-0.0187
844.0004	-0.0113
844.1657	-0.0082
844.3311	-0.0007
844.4964	-0.0243
844.6617	-0.0079
844.827	0.0065
844.9923	0.0037
845.1575	0.0115
845.3227	-0.009
845.4879	-0.0156
845.6531	-0.0027
845.8183	-0.0284
845.9834	-0.0359
846.1485	0.0204
846.3136	-0.0544
846.4787	-0.0167
846.6438	0.0034
846.8088	0.0102
846.9738	-0.018
847.1388	0.0114
847.3038	0.0308
847.4687	0.0091
847.6337	0.0213
847.7986	0.0625
847.9635	-0.0136
848.1284	-0.0313
848.2932	0.0034
848.458	0.0224
848.6228	-0.0137
848.7876	-0.0428
848.9524	0.0064
849.1172	-0.0346
849.2819	-0.0024
849.4466	-0.007
849.6113	-0.0068
849.7759	0.0017
849.9406	0.0049
850.1052	0.0219
850.2698	-0.0062
850.4344	-0.0278
850.599	-0.0243
850.7635	0.0071
850.928	-0.0393
851.0925	-0.0213
851.257	-0.0155
851.4215	0.0037
851.5859	0.0146
851.7503	-0.0038
851.9147	-0.0276
852.0791	-0.0167
852.2434	-0.0033
852.4078	0.0233
852.5721	-0.0262
852.7364	-0.0588
852.9007	0.0262
853.0649	-0.004
853.2291	-0.0126
853.3934	-0.0127
853.5575	-0.0266
853.7217	-0.018
853.8859	0.003
854.05	0.0408
854.2141	-0.0215
854.3782	0.0373
854.5423	-0.0314
854.7063	0.0157
854.8703	-0.0016
855.0343	-0.0227
855.1983	-0.006
855.3623	0.0109
855.5262	0.0647
855.6901	-0.0054
855.854	0.0115
856.0179	0.0547
856.1818	-0.0362
856.3456	-0.071
856.5094	-0.0152
856.6732	-0.0289
856.837	0.0144
857.0008	-0.0117
857.1645	0.0058
857.3282	0.0164
857.4919	-0.0695
857.6556	0.0554
857.8192	-0.0074
857.9828	0.0511
858.1465	0.0432
858.31	-0.0321
858.4736	-0.1281
858.6372	-0.0056
858.8007	-0.005
858.9642	-0.0295
859.1277	-0.0087
859.2911	-0.0163
859.4546	-0.0178
859.618	-0.0584
859.7814	-0.0172
859.9448	-0.051
860.1081	-0.1262
860.2715	0.0533
860.4348	-0.0257
860.5981	-0.0381
860.7614	-0.1028
860.9246	-0.084
861.0879	0.0497
861.2511	-0.0473
861.4143	-0.0886
861.5774	-0.0684
861.7406	0.068
861.9037	-0.2178
862.0668	0.0218
862.2299	0.0117
862.393	-0.004
862.556	0.0698
862.7191	-0.0525
862.8821	0.0131
863.0451	0.0278
863.208	-0.028
863.371	0.1244
863.5339	-0.0074
863.6968	-0.0764
863.8597	0.0238
864.0225	-0.1323
864.1854	0.085
864.3482	-0.1364
864.511	-0.0657
864.6737	-0.0206
864.8365	-0.0192
864.9992	-0.1435
865.1619	-0.0972
865.3246	-0.083
865.4873	0.1262
865.65	0.1025
865.8126	0.1232
865.9752	-0.1574
866.1378	0.0378
866.3004	-0.0525
866.4629	-0.3131
866.6254	-0.0503
866.7879	-0.0642
866.9504	-0.0475
867.1129	-0.0725
867.2753	0.0093
867.4377	-0.1387
867.6001	-0.2076
867.7625	0.0281
867.9249	-0.1744
868.0872	-0.1494
868.2495	-0.0933
868.4118	-0.167
868.5741	-0.0965
868.7363	0.1764
868.8986	0.0395
869.0608	-0.1008
869.223	0.0387
869.3851	-0.1675
869.5473	-0.2323
869.7094	-0.0251
869.8715	-0.1955
870.0336	-0.1932
870.1957	-0.1735
870.3577	-0.1233
870.5197	-0.6303
870.6817	-0.0471
870.8437	-0.3004
871.0057	-0.2268
871.1676	-0.1148
871.3295	0.0009
871.4914	0.0154
871.6533	-0.0686
871.8151	-0.0562
871.977	0.1386
872.1388	-0.2383
872.3006	-0.137
872.4623	0.1128
872.6241	0.1004
872.7858	0.1632
872.9475	-0.0978
873.1092	-0.1318
873.2709	-0.1516
873.4325	-0.1182
873.5941	-0.161
873.7557	-0.0409
873.9173	0.0632
874.0789	-0.2451
874.2404	-0.2694
874.4019	-0.4432
874.5634	-0.055
874.7249	-0.199
874.8863	-0.3089
875.0478	-0
875.2092	-0.4157
875.3706	-0.2375
875.5319	-0.1443
875.6933	-0.3318
875.8546	-0.2644
876.0159	-0.1814
876.1772	-0.4351
876.3385	-0
876.4997	0.1773
876.6609	-0.2261
876.8221	-0.1597
876.9833	-0.5291
877.1445	-0.2541
877.3056	-0.0064
877.4667	-0.7408
877.6278	0.0062
877.7889	-0
877.9499	-0.486
878.111	0.0185
878.272	0.3016
878.433	0.0829
878.5939	0.1954
878.7549	-0.1792
878.9158	0.289
879.0767	-0.1309
879.2376	0.0852
879.3984	-0.3366
879.5593	-0.6266
879.7201	-0
879.8809	-0.0605
880.0417	-0.1495
880.2024	-0.1586
880.3632	-0.2797
880.5239	-0
880.6846	-0.6226
880.8452	0.6569
881.0059	-0.4413
881.1665	-0
881.3271	-0.2736
881.4877	-0.183
881.6483	-0
881.8088	1.0802
881.9693	-0.1208
882.1298	-0.1208
882.2903	-0.1208
