Data from MonoPyChalIsomerACN10uM450nmA_Absorbance_13-11-28-291.txt Node
Date: Tue Jul 09 13:11:28 BST 2024
User: LASERRRRR
Spectrometer: FLMT03099
Trigger mode: 0
Integration Time (sec): 2.000000E-1
Scans to average: 1
Electric dark correction enabled: true
Nonlinearity correction enabled: false
Boxcar width: 0
XAxis mode: Wavelengths
Number of Pixels in Spectrum: 3648
>>>>>Begin Spectral Data<<<<<
179.3399	-0
179.5586	-0
179.7771	-0
179.9957	0.2301
180.2143	-0
180.4329	0.0709
180.6514	-0
180.8699	-0
181.0885	-0
181.307	-0
181.5255	0.1272
181.744	0.2512
181.9625	-0
182.181	-0
182.3994	-0
182.6179	-0.5059
182.8363	-0.6717
183.0547	0.2775
183.2732	0.2089
183.4916	-0.0477
183.71	0.1967
183.9284	-0.076
184.1467	0.019
184.3651	0.0172
184.5835	0.148
184.8018	0.0067
185.0201	0.2087
185.2385	0.0094
185.4568	-0.024
185.6751	0.1721
185.8934	-0.0636
186.1117	0.0246
186.3299	-0.0394
186.5482	0.0651
186.7664	-0.0774
186.9847	0.2065
187.2029	0.1143
187.4211	0.0971
187.6393	-0.0687
187.8575	0.1431
188.0757	0.142
188.2939	0.0997
188.512	-0.0806
188.7302	0.0505
188.9483	0.0367
189.1665	0.3724
189.3846	0.0955
189.6027	0.1013
189.8208	0.0545
190.0389	0.1234
190.257	0.1696
190.475	0.2786
190.6931	0.0271
190.9111	0.3799
191.1292	0.2165
191.3472	0.2798
191.5652	0.3285
191.7832	0.4101
192.0012	0.4304
192.2192	0.4963
192.4371	0.6366
192.6551	0.3878
192.873	0.3029
193.091	0.4569
193.3089	0.6021
193.5268	0.5475
193.7447	0.5567
193.9626	0.5286
194.1805	0.5053
194.3984	0.6883
194.6162	0.6419
194.8341	0.6339
195.0519	0.6561
195.2697	0.6011
195.4875	0.5964
195.7054	0.6412
195.9231	0.6056
196.1409	0.5898
196.3587	0.6186
196.5765	0.7386
196.7942	0.6552
197.012	0.6207
197.2297	0.7289
197.4474	0.7612
197.6651	0.6639
197.8828	0.8023
198.1005	0.8111
198.3182	0.8024
198.5358	0.7113
198.7535	0.776
198.9711	1.0109
199.1888	0.85
199.4064	0.7895
199.624	0.8273
199.8416	0.8417
200.0592	0.7884
200.2767	0.7462
200.4943	0.9594
200.7119	0.8888
200.9294	0.8433
201.1469	0.9599
201.3645	0.8632
201.582	0.8554
201.7995	0.8097
202.017	0.9236
202.2344	0.8079
202.4519	0.8648
202.6694	0.8379
202.8868	0.8811
203.1042	0.961
203.3217	1.0697
203.5391	0.9759
203.7565	0.9648
203.9739	0.9206
204.1913	0.7829
204.4086	0.9059
204.626	0.9525
204.8433	0.8922
205.0607	0.9774
205.278	0.9351
205.4953	1.1088
205.7126	0.9322
205.9299	0.9841
206.1472	1.0288
206.3644	0.9279
206.5817	1.0436
206.7989	1.0691
207.0162	1.1367
207.2334	0.933
207.4506	1.0132
207.6678	1.1297
207.885	1.1323
208.1022	0.9967
208.3194	1.1128
208.5365	1.0084
208.7537	1.0458
208.9708	1.0621
209.1879	1.0987
209.405	1.0371
209.6222	1.1023
209.8392	1.2669
210.0563	0.9942
210.2734	0.9625
210.4905	1.043
210.7075	1.1226
210.9245	1.0397
211.1416	1.1131
211.3586	1.112
211.5756	1.1671
211.7926	0.9595
212.0096	0.9983
212.2265	1.0375
212.4435	1.0652
212.6604	1.0456
212.8774	1.0693
213.0943	1.0218
213.3112	0.9479
213.5281	0.993
213.745	1.0041
213.9619	0.9506
214.1788	0.9402
214.3956	0.9529
214.6125	0.9351
214.8293	0.8593
215.0461	0.9199
215.2629	0.9248
215.4798	0.8183
215.6965	0.7985
215.9133	0.8324
216.1301	0.8238
216.3469	0.7928
216.5636	0.8009
216.7803	0.7663
216.9971	0.7782
217.2138	0.7304
217.4305	0.6952
217.6472	0.688
217.8639	0.6479
218.0805	0.6225
218.2972	0.555
218.5138	0.5276
218.7305	0.5092
218.9471	0.4846
219.1637	0.4525
219.3803	0.4043
219.5969	0.3954
219.8135	0.3832
220.0301	0.3645
220.2466	0.3468
220.4632	0.3149
220.6797	0.3317
220.8962	0.3062
221.1127	0.289
221.3292	0.3147
221.5457	0.2971
221.7622	0.2957
221.9787	0.2819
222.1951	0.2782
222.4116	0.2683
222.628	0.2661
222.8444	0.2605
223.0608	0.2755
223.2772	0.2658
223.4936	0.2616
223.71	0.2551
223.9264	0.271
224.1427	0.2742
224.3591	0.2659
224.5754	0.2767
224.7917	0.2763
225.008	0.2659
225.2243	0.2712
225.4406	0.2875
225.6569	0.2641
225.8732	0.2951
226.0894	0.2745
226.3057	0.2905
226.5219	0.2865
226.7381	0.2786
226.9543	0.2759
227.1705	0.288
227.3867	0.2953
227.6029	0.2908
227.8191	0.2966
228.0352	0.2962
228.2513	0.3101
228.4675	0.3009
228.6836	0.3131
228.8997	0.3149
229.1158	0.3096
229.3319	0.3205
229.548	0.3222
229.764	0.3297
229.9801	0.3278
230.1961	0.3282
230.4121	0.3266
230.6282	0.3513
230.8442	0.3433
231.0602	0.3401
231.2761	0.3468
231.4921	0.3473
231.7081	0.3562
231.924	0.3603
232.14	0.3673
232.3559	0.36
232.5718	0.37
232.7877	0.3569
233.0036	0.3635
233.2195	0.3724
233.4353	0.365
233.6512	0.3658
233.867	0.3725
234.0829	0.379
234.2987	0.3836
234.5145	0.3852
234.7303	0.3802
234.9461	0.4011
235.1619	0.3882
235.3776	0.3833
235.5934	0.4041
235.8091	0.3873
236.0249	0.3944
236.2406	0.4
236.4563	0.3948
236.672	0.4017
236.8877	0.4061
237.1034	0.4004
237.319	0.4054
237.5347	0.3981
237.7503	0.3969
237.966	0.4191
238.1816	0.4104
238.3972	0.4106
238.6128	0.414
238.8284	0.405
239.0439	0.4127
239.2595	0.4391
239.475	0.4188
239.6906	0.4257
239.9061	0.4121
240.1216	0.4244
240.3371	0.4174
240.5526	0.4221
240.7681	0.41
240.9836	0.4233
241.199	0.4166
241.4145	0.4045
241.6299	0.4059
241.8453	0.3996
242.0607	0.3847
242.2761	0.3946
242.4915	0.385
242.7069	0.3901
242.9223	0.3785
243.1376	0.3818
243.353	0.364
243.5683	0.3619
243.7836	0.3495
243.9989	0.3482
244.2142	0.3386
244.4295	0.3366
244.6448	0.3301
244.86	0.3298
245.0753	0.3051
245.2905	0.3025
245.5057	0.3003
245.721	0.3028
245.9362	0.2896
246.1514	0.2839
246.3665	0.2885
246.5817	0.2786
246.7969	0.2738
247.012	0.2622
247.2271	0.2656
247.4423	0.2603
247.6574	0.2663
247.8725	0.2675
248.0876	0.2546
248.3026	0.2472
248.5177	0.2562
248.7328	0.2441
248.9478	0.2446
249.1628	0.2326
249.3779	0.2311
249.5929	0.2331
249.8079	0.2269
250.0228	0.2347
250.2378	0.2374
250.4528	0.2242
250.6677	0.2218
250.8827	0.2126
251.0976	0.213
251.3125	0.2209
251.5274	0.2047
251.7423	0.2071
251.9572	0.2136
252.172	0.2081
252.3869	0.2153
252.6017	0.2136
252.8166	0.2067
253.0314	0.1983
253.2462	0.2134
253.461	0.2041
253.6758	0.199
253.8906	0.2061
254.1053	0.2041
254.3201	0.2093
254.5348	0.198
254.7496	0.2033
254.9643	0.2063
255.179	0.1948
255.3937	0.1947
255.6083	0.2065
255.823	0.1891
256.0377	0.1965
256.2523	0.1948
256.467	0.2012
256.6816	0.1899
256.8962	0.1999
257.1108	0.2047
257.3254	0.1954
257.54	0.2019
257.7545	0.189
257.9691	0.2053
258.1836	0.1986
258.3981	0.196
258.6127	0.1926
258.8272	0.1891
259.0417	0.1941
259.2561	0.1987
259.4706	0.1916
259.6851	0.1878
259.8995	0.187
260.114	0.1962
260.3284	0.2012
260.5428	0.2006
260.7572	0.2084
260.9716	0.1961
261.186	0.2045
261.4003	0.2048
261.6147	0.1955
261.829	0.2003
262.0433	0.2029
262.2577	0.2002
262.472	0.1972
262.6863	0.1902
262.9005	0.1954
263.1148	0.1912
263.3291	0.1882
263.5433	0.1838
263.7576	0.1862
263.9718	0.1862
264.186	0.193
264.4002	0.1829
264.6144	0.1827
264.8286	0.1826
265.0427	0.1823
265.2569	0.1957
265.471	0.1813
265.6851	0.1746
265.8993	0.1781
266.1134	0.1729
266.3275	0.1808
266.5415	0.175
266.7556	0.1793
266.9697	0.1792
267.1837	0.1831
267.3978	0.192
267.6118	0.1866
267.8258	0.1977
268.0398	0.1943
268.2538	0.1948
268.4677	0.1963
268.6817	0.1963
268.8957	0.194
269.1096	0.1862
269.3235	0.1852
269.5374	0.1812
269.7514	0.175
269.9652	0.1703
270.1791	0.1631
270.393	0.1611
270.6068	0.1535
270.8207	0.1533
271.0345	0.1618
271.2483	0.1522
271.4622	0.1579
271.676	0.1548
271.8897	0.1504
272.1035	0.1451
272.3173	0.1552
272.531	0.1503
272.7448	0.1429
272.9585	0.1456
273.1722	0.1404
273.3859	0.1452
273.5996	0.1447
273.8133	0.1511
274.0269	0.151
274.2406	0.1499
274.4542	0.1436
274.6679	0.1482
274.8815	0.1491
275.0951	0.1504
275.3087	0.1438
275.5223	0.1471
275.7358	0.1494
275.9494	0.1557
276.1629	0.1439
276.3765	0.1446
276.59	0.1519
276.8035	0.1489
277.017	0.157
277.2305	0.1485
277.444	0.1446
277.6574	0.1488
277.8709	0.1573
278.0843	0.1537
278.2978	0.1474
278.5112	0.1547
278.7246	0.147
278.938	0.1532
279.1513	0.1582
279.3647	0.1488
279.5781	0.148
279.7914	0.162
280.0047	0.1522
280.2181	0.153
280.4314	0.1473
280.6447	0.1549
280.8579	0.161
281.0712	0.157
281.2845	0.1552
281.4977	0.1596
281.711	0.1581
281.9242	0.1552
282.1374	0.1576
282.3506	0.1492
282.5638	0.1601
282.7769	0.1581
282.9901	0.1511
283.2033	0.1611
283.4164	0.16
283.6295	0.165
283.8426	0.1615
284.0557	0.1487
284.2688	0.155
284.4819	0.1608
284.695	0.1632
284.908	0.1601
285.1211	0.1575
285.3341	0.1551
285.5471	0.161
285.7601	0.156
285.9731	0.1588
286.1861	0.1629
286.3991	0.1615
286.612	0.1553
286.825	0.16
287.0379	0.155
287.2508	0.1529
287.4637	0.157
287.6766	0.1497
287.8895	0.166
288.1024	0.1573
288.3152	0.1576
288.5281	0.1537
288.7409	0.1525
288.9538	0.1536
289.1666	0.1644
289.3794	0.1569
289.5922	0.1627
289.8049	0.1561
290.0177	0.1632
290.2304	0.1608
290.4432	0.1554
290.6559	0.1611
290.8686	0.1559
291.0813	0.1542
291.294	0.1523
291.5067	0.1556
291.7194	0.1605
291.932	0.1554
292.1447	0.1673
292.3573	0.1615
292.5699	0.1676
292.7825	0.1586
292.9951	0.1549
293.2077	0.1535
293.4203	0.1584
293.6328	0.1646
293.8454	0.146
294.0579	0.1571
294.2704	0.161
294.4829	0.1632
294.6954	0.1541
294.9079	0.1561
295.1204	0.1547
295.3328	0.1558
295.5453	0.1541
295.7577	0.1532
295.9701	0.1594
296.1825	0.1542
296.3949	0.1469
296.6073	0.1583
296.8197	0.1517
297.0321	0.1564
297.2444	0.1542
297.4567	0.1514
297.6691	0.1579
297.8814	0.1466
298.0937	0.1601
298.306	0.1569
298.5182	0.1498
298.7305	0.1557
298.9428	0.1517
299.155	0.1566
299.3672	0.153
299.5794	0.1661
299.7916	0.1507
300.0038	0.1522
300.216	0.1557
300.4282	0.154
300.6403	0.1495
300.8525	0.1509
301.0646	0.1513
301.2767	0.157
301.4888	0.144
301.7009	0.153
301.913	0.1541
302.125	0.158
302.3371	0.1655
302.5491	0.1539
302.7612	0.154
302.9732	0.1614
303.1852	0.1524
303.3972	0.153
303.6092	0.1502
303.8211	0.1539
304.0331	0.1474
304.245	0.1509
304.457	0.1537
304.6689	0.15
304.8808	0.1472
305.0927	0.1496
305.3046	0.1483
305.5164	0.1507
305.7283	0.1501
305.9401	0.1424
306.152	0.1421
306.3638	0.1547
306.5756	0.1421
306.7874	0.139
306.9992	0.1434
307.2109	0.1302
307.4227	0.1348
307.6344	0.1285
307.8462	0.131
308.0579	0.1305
308.2696	0.1275
308.4813	0.1325
308.693	0.1312
308.9046	0.1204
309.1163	0.1211
309.328	0.1173
309.5396	0.1216
309.7512	0.1204
309.9628	0.1185
310.1744	0.1224
310.386	0.1141
310.5976	0.1179
310.8091	0.1124
311.0207	0.1213
311.2322	0.1136
311.4437	0.1175
311.6552	0.1138
311.8667	0.1128
312.0782	0.1108
312.2897	0.0989
312.5012	0.1182
312.7126	0.1005
312.924	0.1068
313.1355	0.1017
313.3469	0.1097
313.5583	0.1052
313.7696	0.1067
313.981	0.0987
314.1924	0.102
314.4037	0.1035
314.6151	0.1032
314.8264	0.1068
315.0377	0.1005
315.249	0.1041
315.4603	0.106
315.6716	0.1053
315.8828	0.1002
316.0941	0.101
316.3053	0.0924
316.5165	0.0938
316.7277	0.0951
316.9389	0.1007
317.1501	0.0887
317.3613	0.0982
317.5724	0.0971
317.7836	0.0951
317.9947	0.1004
318.2058	0.0915
318.417	0.0927
318.6281	0.0974
318.8391	0.0989
319.0502	0.0964
319.2613	0.0973
319.4723	0.0963
319.6834	0.0959
319.8944	0.1018
320.1054	0.0977
320.3164	0.1036
320.5274	0.1049
320.7383	0.1036
320.9493	0.0952
321.1602	0.0982
321.3712	0.1024
321.5821	0.0995
321.793	0.0899
322.0039	0.1032
322.2148	0.1
322.4257	0.0985
322.6365	0.0976
322.8474	0.1028
323.0582	0.1081
323.269	0.0982
323.4798	0.0974
323.6906	0.0979
323.9014	0.1002
324.1122	0.0961
324.3229	0.1076
324.5337	0.0923
324.7444	0.0968
324.9551	0.0994
325.1658	0.1046
325.3765	0.1066
325.5872	0.1052
325.7979	0.1038
326.0085	0.1055
326.2192	0.1074
326.4298	0.1137
326.6404	0.1036
326.851	0.0972
327.0616	0.1005
327.2722	0.1071
327.4828	0.1012
327.6933	0.1053
327.9039	0.1074
328.1144	0.0993
328.3249	0.117
328.5354	0.1041
328.7459	0.102
328.9564	0.105
329.1669	0.1061
329.3773	0.1086
329.5878	0.1092
329.7982	0.1054
330.0086	0.0972
330.219	0.1093
330.4294	0.1019
330.6398	0.1124
330.8502	0.1066
331.0605	0.1108
331.2708	0.1134
331.4812	0.1105
331.6915	0.1023
331.9018	0.1087
332.1121	0.1141
332.3224	0.0986
332.5326	0.1083
332.7429	0.1154
332.9531	0.1058
333.1633	0.1137
333.3735	0.1064
333.5837	0.1016
333.7939	0.1099
334.0041	0.1109
334.2143	0.1035
334.4244	0.1038
334.6346	0.1019
334.8447	0.11
335.0548	0.1027
335.2649	0.1085
335.475	0.106
335.685	0.1095
335.8951	0.1128
336.1051	0.1025
336.3152	0.1092
336.5252	0.1095
336.7352	0.1027
336.9452	0.1063
337.1552	0.1104
337.3652	0.1094
337.5751	0.1249
337.7851	0.1057
337.995	0.1097
338.2049	0.1114
338.4148	0.1134
338.6247	0.117
338.8346	0.1083
339.0445	0.1074
339.2543	0.117
339.4642	0.1123
339.674	0.1121
339.8838	0.1126
340.0936	0.1166
340.3034	0.1213
340.5132	0.1122
340.7229	0.1215
340.9327	0.1178
341.1424	0.1218
341.3522	0.1135
341.5619	0.1271
341.7716	0.1304
341.9813	0.1251
342.1909	0.1278
342.4006	0.1161
342.6102	0.1235
342.8199	0.1196
343.0295	0.1223
343.2391	0.1309
343.4487	0.1261
343.6583	0.1225
343.8679	0.1254
344.0774	0.1287
344.287	0.1326
344.4965	0.1222
344.706	0.132
344.9155	0.1413
345.125	0.1359
345.3345	0.1323
345.544	0.1155
345.7534	0.1253
345.9629	0.1256
346.1723	0.13
346.3817	0.1383
346.5911	0.136
346.8005	0.1327
347.0099	0.1274
347.2193	0.1386
347.4286	0.1353
347.638	0.1373
347.8473	0.137
348.0566	0.137
348.2659	0.1243
348.4752	0.1358
348.6845	0.131
348.8937	0.1437
349.103	0.1361
349.3122	0.1325
349.5214	0.1359
349.7306	0.1323
349.9398	0.1287
350.149	0.1406
350.3582	0.1348
350.5674	0.1358
350.7765	0.1434
350.9856	0.14
351.1948	0.1452
351.4039	0.1432
351.613	0.1388
351.822	0.1432
352.0311	0.1356
352.2402	0.1506
352.4492	0.1364
352.6582	0.1479
352.8672	0.1442
353.0762	0.1498
353.2852	0.1505
353.4942	0.1417
353.7032	0.1515
353.9121	0.1549
354.1211	0.154
354.33	0.1424
354.5389	0.1527
354.7478	0.1476
354.9567	0.149
355.1655	0.1508
355.3744	0.1542
355.5833	0.1461
355.7921	0.1511
356.0009	0.1525
356.2097	0.1505
356.4185	0.1516
356.6273	0.1526
356.8361	0.1462
357.0448	0.158
357.2536	0.1521
357.4623	0.1626
357.671	0.1698
357.8797	0.1657
358.0884	0.1629
358.2971	0.1655
358.5057	0.1592
358.7144	0.1719
358.923	0.1765
359.1316	0.1605
359.3402	0.1734
359.5488	0.1654
359.7574	0.1646
359.966	0.175
360.1746	0.1736
360.3831	0.1859
360.5916	0.1855
360.8002	0.1773
361.0087	0.1775
361.2172	0.1725
361.4256	0.1753
361.6341	0.1754
361.8426	0.1895
362.051	0.1682
362.2594	0.1756
362.4678	0.1795
362.6762	0.1796
362.8846	0.1912
363.093	0.1767
363.3014	0.1807
363.5097	0.1756
363.718	0.1903
363.9264	0.1914
364.1347	0.1883
364.343	0.178
364.5513	0.1863
364.7595	0.1905
364.9678	0.1851
365.176	0.1944
365.3842	0.1892
365.5925	0.1957
365.8007	0.189
366.0089	0.1966
366.217	0.1897
366.4252	0.2015
366.6333	0.1808
366.8415	0.196
367.0496	0.1982
367.2577	0.2013
367.4658	0.1945
367.6739	0.2026
367.882	0.1953
368.09	0.1951
368.2981	0.2151
368.5061	0.1961
368.7141	0.2043
368.9221	0.1935
369.1301	0.2035
369.3381	0.2091
369.5461	0.2176
369.754	0.2025
369.962	0.2031
370.1699	0.212
370.3778	0.2107
370.5857	0.2069
370.7936	0.2101
371.0015	0.2098
371.2093	0.2017
371.4172	0.2142
371.625	0.2099
371.8328	0.2107
372.0406	0.2233
372.2484	0.2079
372.4562	0.2165
372.664	0.2157
372.8717	0.209
373.0795	0.2137
373.2872	0.2218
373.4949	0.1999
373.7026	0.2111
373.9103	0.2129
374.118	0.22
374.3256	0.2123
374.5333	0.2149
374.7409	0.22
374.9485	0.2132
375.1561	0.2155
375.3637	0.2118
375.5713	0.2224
375.7789	0.2221
375.9864	0.2209
376.194	0.2167
376.4015	0.2302
376.609	0.2222
376.8165	0.2246
377.024	0.2088
377.2315	0.2226
377.4389	0.2227
377.6464	0.2237
377.8538	0.225
378.0612	0.2116
378.2686	0.224
378.476	0.2279
378.6834	0.2352
378.8908	0.2379
379.0981	0.2327
379.3055	0.2274
379.5128	0.216
379.7201	0.2339
379.9274	0.2367
380.1347	0.2391
380.342	0.2273
380.5492	0.2385
380.7565	0.2377
380.9637	0.2295
381.1709	0.2305
381.3781	0.2267
381.5853	0.2482
381.7925	0.2385
381.9997	0.2349
382.2068	0.2405
382.4139	0.2451
382.6211	0.2348
382.8282	0.2371
383.0353	0.2369
383.2424	0.2332
383.4494	0.2444
383.6565	0.2387
383.8635	0.2482
384.0706	0.2363
384.2776	0.2399
384.4846	0.2472
384.6916	0.2489
384.8986	0.2415
385.1055	0.2528
385.3125	0.2503
385.5194	0.2424
385.7263	0.259
385.9333	0.2367
386.1402	0.2458
386.347	0.2443
386.5539	0.2494
386.7608	0.2462
386.9676	0.2445
387.1744	0.2374
387.3813	0.2257
387.5881	0.2348
387.7948	0.2419
388.0016	0.2414
388.2084	0.2432
388.4151	0.2372
388.6219	0.2401
388.8286	0.2354
389.0353	0.2308
389.242	0.2304
389.4487	0.2248
389.6553	0.2424
389.862	0.2231
390.0686	0.2252
390.2753	0.2227
390.4819	0.2302
390.6885	0.2306
390.8951	0.2462
391.1016	0.225
391.3082	0.2314
391.5147	0.2316
391.7213	0.2121
391.9278	0.2223
392.1343	0.2263
392.3408	0.2163
392.5473	0.2328
392.7537	0.218
392.9602	0.2081
393.1666	0.2154
393.373	0.2175
393.5794	0.2112
393.7858	0.2117
393.9922	0.2056
394.1986	0.2128
394.4049	0.2202
394.6113	0.2234
394.8176	0.2005
395.0239	0.2032
395.2302	0.2057
395.4365	0.2116
395.6428	0.2065
395.8491	0.2029
396.0553	0.2016
396.2615	0.1979
396.4678	0.2106
396.674	0.2023
396.8802	0.2009
397.0863	0.2008
397.2925	0.1954
397.4987	0.193
397.7048	0.1938
397.9109	0.2067
398.117	0.1939
398.3231	0.2058
398.5292	0.1993
398.7353	0.2004
398.9413	0.2045
399.1474	0.1962
399.3534	0.1875
399.5594	0.1847
399.7654	0.1975
399.9714	0.204
400.1774	0.1984
400.3833	0.1954
400.5893	0.1929
400.7952	0.1918
401.0011	0.2006
401.207	0.1996
401.4129	0.1818
401.6188	0.1834
401.8247	0.1894
402.0305	0.2001
402.2364	0.1978
402.4422	0.1918
402.648	0.2028
402.8538	0.1885
403.0596	0.1882
403.2654	0.1867
403.4711	0.1901
403.6768	0.2021
403.8826	0.208
404.0883	0.1948
404.294	0.1997
404.4997	0.2003
404.7054	0.1889
404.911	0.1972
405.1167	0.2051
405.3223	0.1876
405.5279	0.1906
405.7335	0.1975
405.9391	0.1949
406.1447	0.1846
406.3502	0.193
406.5558	0.2067
406.7613	0.1907
406.9668	0.1937
407.1724	0.1979
407.3778	0.1993
407.5833	0.1967
407.7888	0.2128
407.9942	0.195
408.1997	0.1958
408.4051	0.1968
408.6105	0.2036
408.8159	0.2006
409.0213	0.1943
409.2267	0.1951
409.432	0.2059
409.6374	0.2001
409.8427	0.2103
410.048	0.1878
410.2533	0.1895
410.4586	0.2054
410.6639	0.1883
410.8691	0.1934
411.0744	0.1866
411.2796	0.1998
411.4848	0.1968
411.69	0.205
411.8952	0.1834
412.1004	0.1875
412.3056	0.1877
412.5107	0.2048
412.7158	0.1961
412.921	0.1947
413.1261	0.1773
413.3312	0.2029
413.5362	0.188
413.7413	0.1888
413.9464	0.1859
414.1514	0.1862
414.3564	0.2
414.5614	0.1943
414.7664	0.1973
414.9714	0.1901
415.1764	0.1798
415.3813	0.1968
415.5863	0.1849
415.7912	0.1916
415.9961	0.1887
416.201	0.1884
416.4059	0.1753
416.6108	0.1831
416.8156	0.1887
417.0205	0.1906
417.2253	0.1755
417.4301	0.1928
417.6349	0.1951
417.8397	0.1901
418.0445	0.191
418.2492	0.1845
418.454	0.1844
418.6587	0.1799
418.8634	0.1803
419.0681	0.1898
419.2728	0.1856
419.4775	0.1825
419.6822	0.1772
419.8868	0.1785
420.0915	0.1863
420.2961	0.1831
420.5007	0.1728
420.7053	0.172
420.9099	0.1706
421.1144	0.1793
421.319	0.1685
421.5235	0.1843
421.728	0.1707
421.9325	0.1638
422.137	0.1655
422.3415	0.1844
422.546	0.1723
422.7504	0.1857
422.9549	0.1803
423.1593	0.1745
423.3637	0.1652
423.5681	0.1752
423.7725	0.1676
423.9769	0.1654
424.1812	0.1716
424.3856	0.1742
424.5899	0.162
424.7942	0.1569
424.9985	0.1684
425.2028	0.1516
425.4071	0.1599
425.6113	0.1607
425.8156	0.154
426.0198	0.1711
426.224	0.1539
426.4282	0.147
426.6324	0.162
426.8366	0.1531
427.0407	0.1506
427.2449	0.1631
427.449	0.1607
427.6531	0.1483
427.8572	0.1432
428.0613	0.147
428.2654	0.1398
428.4694	0.1587
428.6735	0.1465
428.8775	0.1413
429.0815	0.1545
429.2855	0.1606
429.4895	0.1338
429.6935	0.1267
429.8975	0.135
430.1014	0.1313
430.3053	0.1376
430.5093	0.1419
430.7132	0.1338
430.9171	0.1271
431.1209	0.1259
431.3248	0.1305
431.5286	0.1275
431.7325	0.1246
431.9363	0.1255
432.1401	0.1355
432.3439	0.1116
432.5477	0.1262
432.7514	0.1186
432.9552	0.1169
433.1589	0.1096
433.3627	0.1209
433.5664	0.1215
433.7701	0.1082
433.9737	0.0965
434.1774	0.1107
434.3811	0.0959
434.5847	0.105
434.7883	0.107
434.9919	0.0993
435.1955	0.0948
435.3991	0.0986
435.6027	0.0976
435.8062	0.091
436.0098	0.0983
436.2133	0.0902
436.4168	0.0986
436.6203	0.0985
436.8238	0.0889
437.0272	0.0919
437.2307	0.085
437.4341	0.0892
437.6375	0.0865
437.841	0.0802
438.0443	0.0814
438.2477	0.0778
438.4511	0.09
438.6545	0.0869
438.8578	0.0758
439.0611	0.0773
439.2644	0.0902
439.4677	0.0814
439.671	0.0808
439.8743	0.0823
440.0775	0.0693
440.2808	0.0634
440.484	0.0655
440.6872	0.0582
440.8904	0.0595
441.0936	0.0556
441.2967	0.0598
441.4999	0.0591
441.703	0.0562
441.9062	0.0578
442.1093	0.0613
442.3124	0.054
442.5155	0.0522
442.7185	0.0496
442.9216	0.048
443.1246	0.0572
443.3276	0.0509
443.5307	0.0445
443.7337	0.0517
443.9366	0.0564
444.1396	0.0442
444.3426	0.0545
444.5455	0.0516
444.7484	0.0421
444.9513	0.0413
445.1542	0.0478
445.3571	0.0341
445.56	0.045
445.7628	0.0392
445.9657	0.0544
446.1685	0.0327
446.3713	0.0455
446.5741	0.0422
446.7769	0.0393
446.9797	0.0355
447.1824	0.0333
447.3852	0.0425
447.5879	0.0342
447.7906	0.0316
447.9933	0.0208
448.196	0.0366
448.3986	0.0304
448.6013	0.0242
448.8039	0.0295
449.0066	0.0309
449.2092	0.0189
449.4118	0.0295
449.6143	0.0259
449.8169	0.0115
450.0195	0.0222
450.222	0.0079
450.4245	0.0146
450.627	0.025
450.8295	0.0195
451.032	0.023
451.2345	0.0112
451.4369	0.0288
451.6394	0.0212
451.8418	0.0127
452.0442	0.0149
452.2466	0.0236
452.449	0.0178
452.6513	0.0165
452.8537	0.0228
453.056	0.0128
453.2583	0.0174
453.4607	0.0174
453.663	0.0183
453.8652	0.0187
454.0675	0.0073
454.2697	0.0171
454.472	0.0142
454.6742	0.0104
454.8764	0.0215
455.0786	0.0119
455.2808	0.0159
455.4829	0.0099
455.6851	0.0097
455.8872	0.0073
456.0893	0.0128
456.2915	-0.0005
456.4935	0.0077
456.6956	0.0156
456.8977	-0.0009
457.0997	0.0032
457.3018	0.0002
457.5038	0.0034
457.7058	-0.0038
457.9078	0.0025
458.1098	0.0056
458.3117	0.0049
458.5137	0.0037
458.7156	0.0059
458.9175	0.0054
459.1194	0.0041
459.3213	-0.0016
459.5232	-0.0072
459.725	-0.007
459.9269	0.0043
460.1287	0.0017
460.3305	-0.0055
460.5323	0.011
460.7341	0.0025
460.9359	0.0033
461.1376	0.0042
461.3394	0.004
461.5411	0.0061
461.7428	-0.0028
461.9445	-0.003
462.1462	-0.0067
462.3479	-0.0042
462.5495	0.0108
462.7512	-0.0066
462.9528	-0.0039
463.1544	0.0002
463.356	0.0014
463.5576	-0.0109
463.7592	-0.001
463.9607	0.0024
464.1623	-0.0044
464.3638	0.0084
464.5653	0.0058
464.7668	-0.0001
464.9683	0.0085
465.1697	-0.0042
465.3712	0.0006
465.5726	-0.0012
465.7741	-0.0024
465.9755	-0.0079
466.1769	-0.0161
466.3782	-0.003
466.5796	-0.0098
466.7809	0.0028
466.9823	-0.0122
467.1836	-0.0044
467.3849	-0.0007
467.5862	-0.0033
467.7875	-0.0075
467.9887	0.0027
468.19	-0.0154
468.3912	0.0006
468.5924	0.0001
468.7936	-0.0097
468.9948	0.0007
469.196	-0.0113
469.3972	0.001
469.5983	0.0082
469.7994	-0.0031
470.0006	-0.0094
470.2017	0.0041
470.4027	-0.0018
470.6038	0.0005
470.8049	-0.0082
471.0059	-0.0057
471.2069	0.0041
471.408	0.0045
471.6089	0.0018
471.8099	-0.0041
472.0109	-0.0035
472.2119	-0.0208
472.4128	-0.0017
472.6137	-0.0168
472.8146	-0.0134
473.0155	-0.0101
473.2164	-0.0063
473.4173	-0.0057
473.6181	-0.0028
473.819	-0.0046
474.0198	-0.0095
474.2206	-0.0081
474.4214	-0.0018
474.6222	-0.0051
474.8229	-0.0075
475.0237	-0.0032
475.2244	-0.0067
475.4251	-0.0013
475.6258	0.0112
475.8265	-0.0029
476.0272	0.0005
476.2278	-0.0043
476.4285	-0.0054
476.6291	-0.0066
476.8297	-0.0065
477.0303	-0.0096
477.2309	-0.003
477.4315	0.0026
477.632	-0.0077
477.8326	-0.0039
478.0331	-0.0049
478.2336	-0.0034
478.4341	-0.0088
478.6346	0.0019
478.8351	-0.0053
479.0355	-0.0095
479.236	-0.0081
479.4364	-0.0093
479.6368	0.0036
479.8372	0.0002
480.0376	-0.0024
480.2379	-0.0091
480.4383	-0.006
480.6386	-0.0096
480.8389	-0.0134
481.0392	-0.001
481.2395	-0.0137
481.4398	-0.0014
481.6401	-0.011
481.8403	0.0003
482.0405	-0.0147
482.2408	0.0061
482.441	-0.0034
482.6411	0.0007
482.8413	-0.004
483.0415	-0.0067
483.2416	0.001
483.4417	-0.0057
483.6419	0.0027
483.8419	-0.0072
484.042	0.0032
484.2421	-0.0024
484.4422	-0.0037
484.6422	-0.0054
484.8422	-0.0058
485.0422	-0.007
485.2422	-0.0047
485.4422	-0.0005
485.6422	-0.006
485.8421	-0.0027
486.042	-0.0006
486.242	-0.0096
486.4419	-0.0026
486.6417	-0.0097
486.8416	-0.0042
487.0415	-0.0107
487.2413	-0.0026
487.4411	0
487.641	-0.0018
487.8408	-0.0053
488.0405	-0.0031
488.2403	-0.0005
488.4401	-0.0057
488.6398	-0.0086
488.8395	-0.0077
489.0392	-0.0004
489.2389	-0.0108
489.4386	-0.0086
489.6383	-0.0064
489.8379	-0.0064
490.0376	-0.0093
490.2372	-0.0036
490.4368	-0.0088
490.6364	-0.0027
490.836	-0.0072
491.0355	-0.0055
491.2351	-0.006
491.4346	-0.0126
491.6341	-0.009
491.8336	-0.0051
492.0331	-0.0088
492.2326	-0.0063
492.432	-0.0031
492.6315	-0.0048
492.8309	-0.0089
493.0303	-0.0047
493.2297	-0.0014
493.4291	-0.0097
493.6284	0.0004
493.8278	-0.003
494.0271	-0.0088
494.2264	-0.0077
494.4257	0.0044
494.625	-0.0035
494.8243	-0.003
495.0236	-0.0093
495.2228	-0.0034
495.422	-0.0073
495.6213	-0.0121
495.8205	-0.0085
496.0196	-0.0072
496.2188	-0.0024
496.418	-0.008
496.6171	-0.0067
496.8162	-0.0061
497.0153	0
497.2144	-0.0051
497.4135	-0.0018
497.6126	-0.0031
497.8116	0.0033
498.0107	-0.0044
498.2097	-0.0058
498.4087	-0.0025
498.6077	-0.0083
498.8067	-0.0037
499.0056	-0.006
499.2046	0.0009
499.4035	-0.0057
499.6024	-0.0099
499.8013	-0.0053
500.0002	-0.0064
500.199	-0.0052
500.3979	-0.0046
500.5967	-0.0118
500.7956	-0.0111
500.9944	-0.0114
501.1932	-0.0064
501.3919	-0.0149
501.5907	-0.0067
501.7895	0.0029
501.9882	-0.0052
502.1869	-0.0092
502.3856	-0.0055
502.5843	-0.0076
502.783	-0.0116
502.9816	0
503.1803	-0.0045
503.3789	-0.0081
503.5775	-0.0037
503.7761	-0.0039
503.9747	-0.0067
504.1732	-0.0059
504.3718	-0.0068
504.5703	-0.0034
504.7689	-0.0027
504.9674	-0.0068
505.1658	-0.0072
505.3643	0.0013
505.5628	0.0025
505.7612	-0.0078
505.9597	-0.0037
506.1581	-0.0089
506.3565	-0.0057
506.5549	-0.0146
506.7532	-0.0081
506.9516	0.0017
507.1499	-0.0069
507.3482	-0.0123
507.5465	-0.0002
507.7448	-0.0024
507.9431	-0.0064
508.1414	-0.0073
508.3396	-0.0076
508.5379	-0.0084
508.7361	0.0039
508.9343	-0.0079
509.1325	-0.0075
509.3306	-0.0005
509.5288	-0.0057
509.7269	-0.0127
509.9251	-0.002
510.1232	-0.0062
510.3213	-0.0147
510.5193	-0.0058
510.7174	-0.0004
510.9154	-0.0065
511.1135	-0.0068
511.3115	-0.0114
511.5095	-0.0115
511.7075	0.0001
511.9055	-0.0077
512.1034	-0.0082
512.3014	-0.0043
512.4993	-0.0078
512.6972	-0.0012
512.8951	0.0035
513.093	-0.0074
513.2908	-0.0019
513.4887	-0.0022
513.6865	-0.0031
513.8844	-0.0021
514.0822	-0.0012
514.2799	-0.0086
514.4777	-0.006
514.6755	0.0014
514.8732	-0.0073
515.0709	-0.0049
515.2687	-0.0082
515.4664	-0.0102
515.664	-0.0057
515.8617	-0.0113
516.0594	-0.0042
516.257	-0.0006
516.4546	-0.0101
516.6522	-0.0087
516.8498	-0.0109
517.0474	-0.002
517.2449	-0.0068
517.4425	-0.0092
517.64	-0.0074
517.8375	-0.0065
518.035	-0.0016
518.2325	-0.0069
518.43	-0.004
518.6274	-0.0073
518.8249	-0.0042
519.0223	-0.01
519.2197	-0.0019
519.4171	-0.0063
519.6145	-0.0085
519.8118	-0.0107
520.0092	-0.0024
520.2065	-0.0095
520.4038	-0.0065
520.6011	-0.0119
520.7984	-0.0092
520.9956	-0.0103
521.1929	-0.0061
521.3901	-0.0092
521.5874	-0.0064
521.7846	0.0025
521.9818	-0.0044
522.1789	0.0001
522.3761	-0.005
522.5732	-0.0023
522.7704	-0.0068
522.9675	-0.0089
523.1646	-0.0103
523.3617	-0.0027
523.5587	-0.0117
523.7558	-0.0024
523.9528	-0.0021
524.1498	-0.0053
524.3468	-0.0041
524.5438	-0.0053
524.7408	-0.0149
524.9378	-0.0076
525.1347	-0.0051
525.3316	-0.006
525.5285	-0.007
525.7254	-0.0101
525.9223	-0.0018
526.1192	-0.004
526.316	-0.0074
526.5129	-0.0076
526.7097	-0.0066
526.9065	-0.0004
527.1033	0.0019
527.3	-0.006
527.4968	-0.0106
527.6935	-0.0047
527.8903	-0.0067
528.087	-0.0114
528.2837	-0.0058
528.4804	-0.0046
528.677	-0.0065
528.8737	-0.0106
529.0703	-0.0012
529.2669	0.0075
529.4635	-0.0079
529.6601	-0.0002
529.8567	-0.0109
530.0532	-0.007
530.2498	-0.0053
530.4463	-0.0061
530.6428	-0.0016
530.8393	-0.0032
531.0358	-0.0074
531.2322	-0.005
531.4287	-0.015
531.6251	-0.0043
531.8215	-0.0008
532.0179	-0.0051
532.2143	-0.0014
532.4107	-0.0011
532.607	-0.0075
532.8034	-0.0049
532.9997	-0.0047
533.196	-0.005
533.3923	-0.0026
533.5886	-0.0044
533.7848	-0.0009
533.9811	-0.0114
534.1773	-0.0053
534.3735	-0.0043
534.5697	-0.0058
534.7659	-0.007
534.9621	0.0027
535.1582	-0.0118
535.3544	-0.0056
535.5505	-0.002
535.7466	-0.0053
535.9427	0.0055
536.1387	0.0034
536.3348	-0.0003
536.5308	-0.01
536.7269	-0.0025
536.9229	-0.0047
537.1189	-0.0018
537.3148	-0.0025
537.5108	0.0045
537.7068	-0.0068
537.9027	-0.0075
538.0986	-0.0058
538.2945	-0.0053
538.4904	-0.0105
538.6863	-0.0095
538.8821	-0.0075
539.078	-0.0094
539.2738	-0.0121
539.4696	-0.0047
539.6654	-0.0019
539.8611	-0.0093
540.0569	-0.0045
540.2526	-0.0035
540.4484	0.005
540.6441	-0.0029
540.8398	-0.0034
541.0355	-0.0053
541.2311	-0.0042
541.4268	0.0022
541.6224	-0.0057
541.818	-0.0052
542.0136	-0.0073
542.2092	-0.0026
542.4048	-0.0055
542.6003	-0.0052
542.7959	-0.004
542.9914	-0.01
543.1869	-0.0077
543.3824	-0.0103
543.5779	-0.0069
543.7734	-0.0104
543.9688	-0.0126
544.1642	-0.0073
544.3596	-0.0065
544.555	-0.01
544.7504	-0.0033
544.9458	-0.0079
545.1411	0.0045
545.3365	-0.0043
545.5318	0.0038
545.7271	0.0046
545.9224	0.0027
546.1177	-0.0101
546.3129	-0.0016
546.5081	-0.0061
546.7034	-0.0083
546.8986	-0.0063
547.0938	0.0018
547.289	-0.001
547.4841	-0.0103
547.6793	-0.0097
547.8744	0.0016
548.0695	-0.0088
548.2646	-0.0098
548.4597	0.0014
548.6548	-0.0015
548.8498	-0.005
549.0448	0.0027
549.2399	-0.0017
549.4349	-0.0058
549.6298	-0.0065
549.8248	-0.0016
550.0198	-0.0076
550.2147	-0.0068
550.4096	-0.0114
550.6045	-0.0049
550.7994	-0.0016
550.9943	0.0029
551.1892	-0.0056
551.384	-0.0139
551.5788	-0.0098
551.7737	-0.002
551.9685	-0.0058
552.1632	-0.0078
552.358	-0.007
552.5528	-0.01
552.7475	-0.011
552.9422	-0.01
553.1369	-0.0071
553.3316	0.0014
553.5263	-0.0098
553.7209	-0.007
553.9156	0.0012
554.1102	-0.0063
554.3048	-0.0065
554.4994	-0.0029
554.694	0.0002
554.8885	-0.0084
555.0831	0.0019
555.2776	-0.0023
555.4721	-0.0093
555.6666	-0.0042
555.8611	-0.005
556.0555	-0.0087
556.25	-0.0001
556.4444	-0.0028
556.6388	-0.0067
556.8332	-0.0066
557.0276	-0.0057
557.222	-0.0022
557.4163	0.0006
557.6107	0
557.805	-0.0027
557.9993	-0.0016
558.1936	-0.0067
558.3879	0.0007
558.5821	-0.0024
558.7764	-0.0076
558.9706	-0.0038
559.1648	-0.0035
559.359	-0.0157
559.5532	-0.0056
559.7473	-0.0071
559.9415	-0.0074
560.1356	-0.008
560.3297	-0.0073
560.5238	-0.0062
560.7179	-0.0063
560.9119	0.0003
561.106	-0.0019
561.3	-0.0023
561.494	-0.003
561.688	-0.0083
561.882	-0.0012
562.076	-0.0064
562.2699	-0.0057
562.4639	-0.0075
562.6578	-0.0078
562.8517	-0.0047
563.0456	-0.0007
563.2395	-0.0053
563.4333	0.0005
563.6272	-0.0101
563.821	-0.0024
564.0148	0.0038
564.2086	-0.0099
564.4024	-0.0067
564.5961	-0.0017
564.7899	-0.0014
564.9836	0.0056
565.1773	-0.0041
565.371	0.0014
565.5647	-0.0017
565.7584	0.0007
565.952	-0.0053
566.1456	-0.0067
566.3393	-0.0023
566.5329	-0.0017
566.7264	-0.0002
566.92	-0.0038
567.1136	-0.0004
567.3071	0.0041
567.5006	-0.0004
567.6941	-0.0006
567.8876	0.0006
568.0811	-0.007
568.2745	-0.0073
568.468	-0.0039
568.6614	-0.0135
568.8548	-0.0044
569.0482	-0.0062
569.2416	-0.0012
569.4349	-0.0068
569.6283	-0.0057
569.8216	-0.0084
570.0149	-0.006
570.2082	-0.0005
570.4015	-0.0042
570.5947	-0.0023
570.788	-0.0023
570.9812	-0.0069
571.1744	-0.0118
571.3676	-0.006
571.5608	-0.0012
571.754	-0.0061
571.9471	-0.0025
572.1402	-0.0048
572.3333	-0.0082
572.5264	-0.0002
572.7195	-0.0027
572.9126	-0.0008
573.1057	-0.007
573.2987	-0.0022
573.4917	-0.0074
573.6847	-0.001
573.8777	-0.0061
574.0707	-0.0024
574.2636	-0.0036
574.4566	-0.0022
574.6495	-0.0039
574.8424	-0.0048
575.0353	-0.0048
575.2281	-0.0037
575.421	-0.0038
575.6138	-0.0036
575.8067	0.0002
575.9995	-0.0032
576.1923	-0.0056
576.385	-0.0048
576.5778	-0.0004
576.7706	0.0017
576.9633	-0.0009
577.156	-0.0006
577.3487	0.0005
577.5414	-0.0006
577.734	0.0035
577.9267	0.0031
578.1193	-0.0045
578.3119	-0.0014
578.5045	-0.003
578.6971	0.0022
578.8897	-0.0048
579.0822	-0.0002
579.2747	0.0047
579.4673	-0.0022
579.6598	0.0006
579.8522	0.0023
580.0447	-0.0022
580.2372	0.0004
580.4296	0.0047
580.622	0.0021
580.8144	-0.0043
581.0068	0.0009
581.1992	0.0018
581.3915	-0.0013
581.5839	-0.0007
581.7762	-0.0059
581.9685	0.0025
582.1608	-0.0067
582.353	-0.0002
582.5453	-0.0026
582.7375	-0.0015
582.9298	-0.0068
583.122	-0.0014
583.3142	-0.0017
583.5063	-0.0034
583.6985	-0.0027
583.8906	-0.0042
584.0827	-0.0071
584.2749	-0.006
584.4669	-0.006
584.659	-0.0098
584.8511	-0.0049
585.0431	-0.0037
585.2352	-0.008
585.4272	-0.0034
585.6192	-0.0061
585.8111	-0.0051
586.0031	0.0007
586.195	-0.0062
586.387	-0.0001
586.5789	-0.0045
586.7708	-0.0067
586.9627	-0.0023
587.1545	-0.0084
587.3464	-0.0037
587.5382	-0.0073
587.73	-0.008
587.9218	-0.0047
588.1136	0.0003
588.3053	-0.0057
588.4971	-0.0063
588.6888	-0.0063
588.8805	-0.0014
589.0722	0.0026
589.2639	0.0003
589.4556	-0.003
589.6472	-0.0037
589.8389	-0.0026
590.0305	-0.006
590.2221	-0.0003
590.4137	-0.005
590.6052	-0.0042
590.7968	-0.004
590.9883	-0.0036
591.1798	-0.0068
591.3713	-0.0036
591.5628	-0.0064
591.7543	-0.0009
591.9458	-0.0056
592.1372	-0.0024
592.3286	-0.0016
592.52	-0.0034
592.7114	0.0044
592.9028	-0.0031
593.0941	-0.0027
593.2855	-0.0029
593.4768	-0.0055
593.6681	-0.0013
593.8594	0.0014
594.0506	-0.0013
594.2419	0.0065
594.4331	-0.0042
594.6244	0.001
594.8156	-0.0061
595.0067	-0.0032
595.1979	-0.0097
595.3891	-0.008
595.5802	-0.0104
595.7713	-0.0046
595.9624	0.001
596.1535	0.0058
596.3446	-0.0049
596.5357	-0.002
596.7267	-0.0023
596.9177	0.0004
597.1087	-0
597.2997	-0.0013
597.4907	-0.0052
597.6817	-0.0055
597.8726	-0.0042
598.0635	-0.0066
598.2544	-0.0044
598.4453	-0.0043
598.6362	-0.0011
598.827	-0.0088
599.0179	-0.0029
599.2087	-0.0109
599.3995	-0.0048
599.5903	-0.0021
599.7811	-0.0047
599.9718	-0.0007
600.1626	0.0007
600.3533	-0.0039
600.544	0.0004
600.7347	-0.0017
600.9254	0.0008
601.116	-0.0047
601.3067	-0.0043
601.4973	-0.0077
601.6879	-0.0022
601.8785	-0.0049
602.0691	-0.0012
602.2596	-0.0026
602.4502	-0.0076
602.6407	-0.0036
602.8312	-0.0065
603.0217	-0.0054
603.2122	-0.0015
603.4027	-0.0018
603.5931	-0.0061
603.7835	-0.0015
603.9739	-0
604.1643	-0.0032
604.3547	-0.0035
604.5451	-0.0021
604.7354	-0.003
604.9257	-0.0041
605.116	-0.0005
605.3063	-0.0033
605.4966	-0.0054
605.6869	-0.0024
605.8771	-0.0051
606.0673	-0.0021
606.2575	-0.006
606.4477	-0.0047
606.6379	-0.0064
606.8281	-0.0069
607.0182	-0.0065
607.2083	-0.0046
607.3985	-0.0094
607.5885	-0.004
607.7786	-0.0013
607.9687	-0.0011
608.1587	-0.0046
608.3488	-0.0042
608.5388	-0.0001
608.7288	-0.0066
608.9187	-0.0009
609.1087	-0.0063
609.2986	-0.0029
609.4886	-0.0058
609.6785	-0.0006
609.8684	-0
610.0582	0.0005
610.2481	-0.0046
610.4379	0.0002
610.6278	-0.0058
610.8176	0.0019
611.0074	-0.006
611.1971	-0.0032
611.3869	-0.0055
611.5766	0.0018
611.7664	0.0022
611.9561	-0.0036
612.1458	0.0022
612.3354	-0.0058
612.5251	-0.0092
612.7147	-0.0009
612.9044	-0.0023
613.094	0.0007
613.2836	-0.0039
613.4731	-0.0058
613.6627	-0.0075
613.8522	-0.0005
614.0417	-0.0066
614.2313	-0.0095
614.4207	-0.0054
614.6102	0.0021
614.7997	-0.0073
614.9891	-0.004
615.1785	-0.0072
615.3679	0.0024
615.5573	-0
615.7467	-0.0025
615.9361	0
616.1254	-0.0052
616.3147	-0.0076
616.504	-0.0031
616.6933	-0.0013
616.8826	-0.0067
617.0718	-0.0056
617.2611	0.0013
617.4503	0.0008
617.6395	-0.0051
617.8287	0.002
618.0179	0.0033
618.207	-0.005
618.3961	-0.0029
618.5853	-0.0012
618.7744	-0.0004
618.9634	0.0018
619.1525	-0.0057
619.3416	-0.0107
619.5306	-0.004
619.7196	-0.0021
619.9086	-0.0008
620.0976	0.002
620.2866	0.0014
620.4755	-0.0036
620.6645	-0.0047
620.8534	-0.0023
621.0423	-0.007
621.2312	-0.0054
621.42	0.0018
621.6089	-0.0061
621.7977	-0.0067
621.9865	-0.0046
622.1753	-0.0007
622.3641	0.0039
622.5529	0.0019
622.7416	-0.0046
622.9303	0.0034
623.1191	-0.0064
623.3078	0.0033
623.4964	-0.0011
623.6851	0.0027
623.8737	-0.0042
624.0624	0.0014
624.251	-0.0015
624.4396	0.0021
624.6282	-0.0011
624.8167	0.0034
625.0053	-0.0024
625.1938	-0.0015
625.3823	0.0019
625.5708	0.0024
625.7593	-0.0022
625.9477	-0.0054
626.1362	-0.0033
626.3246	-0.0029
626.513	-0.0068
626.7014	-0.0032
626.8898	-0.0044
627.0781	-0.0066
627.2665	-0.004
627.4548	-0.0092
627.6431	-0.0015
627.8314	-0.0042
628.0197	-0.0006
628.2079	0.0007
628.3962	0.0012
628.5844	0.0011
628.7726	0.0006
628.9608	0.0025
629.1489	0.0034
629.3371	0.0035
629.5252	0.0014
629.7134	-0.0032
629.9015	-0.0014
630.0895	-0.0003
630.2776	-0.0029
630.4657	-0.0017
630.6537	0.0004
630.8417	-0.0055
631.0297	-0.0045
631.2177	-0.0017
631.4057	0.001
631.5936	0.0004
631.7815	-0.005
631.9695	-0.0051
632.1574	-0.0046
632.3452	-0.0073
632.5331	-0.0046
632.7209	-0.0034
632.9088	-0.0106
633.0966	-0.0028
633.2844	-0.0021
633.4722	0.001
633.6599	-0.0046
633.8477	-0.0049
634.0354	-0.0048
634.2231	-0.0075
634.4108	0.0005
634.5985	-0.0075
634.7861	-0.0055
634.9738	-0.0061
635.1614	-0.0038
635.349	-0.0001
635.5366	-0.0047
635.7242	-0.0037
635.9117	-0.0012
636.0993	-0.0053
636.2868	-0.0046
636.4743	-0.0023
636.6618	-0.0037
636.8492	-0.0019
637.0367	-0.0054
637.2241	-0.0083
637.4115	-0.0067
637.5989	0
637.7863	-0.0016
637.9737	-0.0033
638.161	-0.0034
638.3484	-0.0043
638.5357	-0.0048
638.723	-0.0022
638.9103	-0.0002
639.0975	0.0042
639.2848	-0.0004
639.472	0.0018
639.6592	0.004
639.8464	0.0029
640.0336	-0.0067
640.2208	0.0031
640.4079	-0.0034
640.595	-0.0014
640.7821	-0.0023
640.9692	0.0028
641.1563	0.0017
641.3434	0.0075
641.5304	-0.0011
641.7174	0.0008
641.9044	0.0025
642.0914	-0.0008
642.2784	0.0063
642.4653	0.0055
642.6523	0.001
642.8392	0.0082
643.0261	0.0033
643.213	0.0087
643.3999	-0.0043
643.5867	-0.0025
643.7735	0.0012
643.9604	-0.0012
644.1472	-0.0055
644.3339	-0.0025
644.5207	-0.001
644.7075	-0.0061
644.8942	-0.0015
645.0809	-0.0005
645.2676	-0.0035
645.4543	0.0011
645.6409	0.0009
645.8276	-0.0024
646.0142	-0.0029
646.2008	-0.0064
646.3874	-0.0049
646.574	-0.005
646.7605	-0.0016
646.9471	-0.0096
647.1336	-0.003
647.3201	-0.0039
647.5066	0.001
647.6931	-0.0006
647.8795	-0.0042
648.0659	-0.0054
648.2524	-0.0062
648.4388	-0.0014
648.6252	-0.0004
648.8115	-0.0082
648.9979	-0.0057
649.1842	-0.0056
649.3705	-0.0011
649.5568	-0.0024
649.7431	-0.0066
649.9294	-0.0034
650.1156	-0.0046
650.3018	-0.0031
650.488	-0.0059
650.6742	-0.0015
650.8604	-0.0007
651.0466	0.0061
651.2327	-0.0038
651.4188	-0.002
651.6049	0.0012
651.791	-0.0021
651.9771	0.0003
652.1632	0.0039
652.3492	0.0021
652.5352	-0
652.7212	0.0004
652.9072	0.0035
653.0932	0.0045
653.2791	0.0007
653.465	-0.0024
653.651	-0.0015
653.8369	-0.0022
654.0227	0.0009
654.2086	0.0022
654.3944	-0.0031
654.5803	-0.0056
654.7661	-0.0033
654.9519	-0.0057
655.1377	-0.0036
655.3234	0
655.5092	0
655.6949	0
655.8806	0
656.0663	0
656.2519	0
656.4376	-0.0043
656.6232	-0.0073
656.8088	-0.0039
656.9945	-0.0048
657.18	-0.001
657.3656	-0.003
657.5511	-0.0048
657.7367	-0.005
657.9222	-0.0016
658.1077	-0.0032
658.2932	-0.0012
658.4786	-0.0014
658.6641	-0.0031
658.8495	0.0013
659.0349	-0.001
659.2203	-0.0047
659.4057	-0.0028
659.591	-0.0001
659.7764	-0.0073
659.9617	-0.0054
660.147	-0.0041
660.3323	-0.0039
660.5176	-0.0076
660.7028	-0.0068
660.888	-0.006
661.0733	-0.0062
661.2585	-0.0051
661.4436	-0.0028
661.6288	-0.0021
661.8139	0.004
661.9991	-0.0011
662.1842	-0.002
662.3693	-0.0025
662.5544	0.0007
662.7394	0.0004
662.9245	-0.0002
663.1095	0.0048
663.2945	-0.0014
663.4795	-0.0015
663.6644	-0.0042
663.8494	-0.0046
664.0343	-0.0025
664.2193	-0.0071
664.4042	-0.0101
664.589	-0.0039
664.7739	-0.0081
664.9587	0.0018
665.1436	-0.0031
665.3284	-0.0033
665.5132	0.0014
665.698	0.0006
665.8827	0.0005
666.0675	-0.0081
666.2522	-0.012
666.4369	-0.0083
666.6216	-0.0116
666.8063	-0.0033
666.9909	-0.0138
667.1756	-0.0039
667.3602	-0.0071
667.5448	-0.0122
667.7294	-0.0041
667.9139	-0.0048
668.0985	-0.0143
668.283	-0.008
668.4675	-0.0151
668.652	-0.0105
668.8365	-0.0047
669.0209	-0.0064
669.2054	-0.0039
669.3898	-0.0054
669.5742	-0.0068
669.7586	-0.0032
669.943	-0.0038
670.1273	-0.0098
670.3117	-0.0032
670.496	-0.0039
670.6803	-0.0011
670.8646	-0.0066
671.0488	0
671.2331	-0.0029
671.4173	0.001
671.6015	-0.0029
671.7857	-0.0085
671.9699	-0.0027
672.1541	-0.003
672.3382	-0.0064
672.5223	-0.0059
672.7064	-0.0066
672.8905	-0.0149
673.0746	-0.0106
673.2587	-0.0132
673.4427	-0.0097
673.6267	-0.0149
673.8107	-0.0144
673.9947	-0.0121
674.1787	-0.0089
674.3626	-0.0082
674.5465	-0.0019
674.7304	0.0024
674.9143	-0.0064
675.0982	0.0022
675.2821	-0.0012
675.4659	-0.0046
675.6497	0.0014
675.8335	-0.0073
676.0173	-0.0116
676.2011	-0.0082
676.3849	-0.0057
676.5686	-0.0042
676.7523	-0.0022
676.936	-0.0002
677.1197	-0.0056
677.3034	-0.0054
677.487	-0.005
677.6706	-0.0025
677.8542	-0.0046
678.0378	-0.0066
678.2214	-0.0106
678.405	-0.0052
678.5885	-0.0083
678.772	-0.0056
678.9555	-0.0048
679.139	-0.0101
679.3225	-0.005
679.5059	-0.0064
679.6894	-0.0011
679.8728	-0.0045
680.0562	-0.0026
680.2395	0.0014
680.4229	0.002
680.6062	-0
680.7896	-0.0014
680.9729	0.0015
681.1562	-0.0014
681.3394	-0.0014
681.5227	-0.0065
681.7059	0.0006
681.8891	-0.007
682.0723	-0.0087
682.2555	-0.0042
682.4387	-0.0007
682.6218	-0.0083
682.805	-0.0014
682.9881	-0.0021
683.1712	0.0029
683.3542	-0.0016
683.5373	-0.0045
683.7203	-0.0033
683.9034	-0.0012
684.0864	-0.0045
684.2694	-0.0045
684.4523	-0.0043
684.6353	0.0008
684.8182	-0.0058
685.0011	-0.0023
685.184	-0.0007
685.3669	-0.0078
685.5498	0.0017
685.7326	0.0035
685.9154	-0.0041
686.0982	-0.0062
686.281	-0.0095
686.4638	-0.0047
686.6465	-0.0068
686.8293	-0.0054
687.012	-0.0025
687.1947	-0.0064
687.3774	-0.0018
687.56	-0.0045
687.7427	0.0007
687.9253	-0.0021
688.1079	0.0023
688.2905	-0.0033
688.4731	-0.0053
688.6556	-0.001
688.8382	-0.004
689.0207	0.0013
689.2032	-0.001
689.3857	0.0001
689.5681	0.001
689.7506	-0.0023
689.933	0.0004
690.1154	0.003
690.2978	-0.0043
690.4802	0.0012
690.6626	0.0062
690.8449	-0.0016
691.0272	0.0007
691.2095	0.001
691.3918	-0
691.5741	-0.0052
691.7563	-0.0024
691.9386	-0.0101
692.1208	-0.0017
692.303	-0.0067
692.4852	-0.0034
692.6673	-0.0031
692.8495	-0.0076
693.0316	-0.0027
693.2137	-0.0059
693.3958	-0.004
693.5778	-0.0032
693.7599	-0.0059
693.9419	-0.0095
694.1239	-0.0009
694.3059	-0.008
694.4879	-0.0076
694.6699	-0.0095
694.8518	-0.0051
695.0337	-0.0049
695.2157	-0.0053
695.3975	-0.0099
695.5794	-0.007
695.7613	-0.0039
695.9431	-0.0051
696.1249	-0.0056
696.3067	-0.0046
696.4885	0.0002
696.6703	-0.0027
696.852	-0.008
697.0337	-0.0003
697.2154	-0.0033
697.3971	-0.0026
697.5788	-0.0006
697.7605	-0.0065
697.9421	-0.005
698.1237	-0.0069
698.3053	-0.0036
698.4869	-0.0023
698.6685	-0.0033
698.85	-0.0059
699.0315	-0.0055
699.213	0.0016
699.3945	0.0028
699.576	0.005
699.7575	-0.0001
699.9389	0.0009
700.1203	-0.0042
700.3017	-0.0024
700.4831	-0.0025
700.6645	-0.0099
700.8458	-0.0023
701.0271	-0.0031
701.2084	-0.0062
701.3897	-0.0069
701.571	-0.0036
701.7523	-0.0036
701.9335	0.0046
702.1147	0.0068
702.2959	-0.0045
702.4771	-0.0016
702.6583	0.0015
702.8394	-0.0037
703.0205	-0.0012
703.2016	0.0038
703.3827	-0.0003
703.5638	-0.0071
703.7449	-0.007
703.9259	-0.0017
704.1069	-0.0035
704.2879	-0.0047
704.4689	-0.0041
704.6499	-0.0044
704.8308	-0.0014
705.0117	0.0023
705.1927	-0.0037
705.3735	0.0025
705.5544	0.0021
705.7353	0.0023
705.9161	-0.0008
706.0969	0.0007
706.2777	-0.0044
706.4585	-0.0036
706.6393	0.0001
706.82	-0.0087
707.0007	-0.0039
707.1815	-0.0025
707.3621	-0.0031
707.5428	-0.0048
707.7235	0.0023
707.9041	0.0038
708.0847	-0.0044
708.2653	-0.0024
708.4459	0.0005
708.6265	0.0018
708.807	0.001
708.9875	-0.0013
709.168	-0.0038
709.3485	-0.0029
709.529	-0.0091
709.7095	-0.0072
709.8899	-0.0096
710.0703	0.0036
710.2507	-0.0032
710.4311	-0.0019
710.6115	0.0054
710.7918	-0.003
710.9721	0.0013
711.1524	-0.002
711.3327	0.0024
711.513	-0.0082
711.6932	-0.0041
711.8735	0.0065
712.0537	-0.0035
712.2339	-0.0023
712.4141	-0.0042
712.5942	-0.0053
712.7744	0
712.9545	-0.0027
713.1346	0.0023
713.3147	0.0058
713.4947	-0.0009
713.6748	-0.0066
713.8548	-0.0083
714.0348	-0.0065
714.2148	-0.0086
714.3948	-0.0095
714.5748	-0.0089
714.7547	-0.0065
714.9346	-0.0045
715.1145	0.0013
715.2944	-0.0002
715.4743	-0.0046
715.6541	-0.0087
715.834	-0.0069
716.0138	0.0035
716.1936	0.0016
716.3733	-0.0068
716.5531	-0.0057
716.7328	-0.004
716.9126	0.0035
717.0923	-0.0033
717.2719	-0.0061
717.4516	-0.0066
717.6312	-0.0022
717.8109	-0.0001
717.9905	-0.0078
718.1701	0.0002
718.3496	-0.0047
718.5292	-0.005
718.7087	-0.0038
718.8882	-0.0049
719.0677	-0.0005
719.2472	-0.0038
719.4267	-0.0104
719.6061	-0.0063
719.7856	-0.0022
719.965	-0.0075
720.1443	-0.0021
720.3237	-0.007
720.5031	-0.0114
720.6824	-0.0073
720.8617	-0.0147
721.041	0.0012
721.2203	-0.0085
721.3995	-0.0027
721.5788	-0.0131
721.758	-0.0014
721.9372	-0.005
722.1164	-0.005
722.2956	-0.0108
722.4747	-0.006
722.6538	-0.0042
722.8329	-0.0046
723.012	-0.0034
723.1911	-0.0056
723.3702	0.0006
723.5492	-0.0035
723.7282	-0.0017
723.9072	-0.0045
724.0862	-0.0022
724.2652	-0.0009
724.4441	-0.0112
724.623	-0.001
724.8019	0.0032
724.9808	0.0004
725.1597	0.0043
725.3385	0.0034
725.5174	-0.0013
725.6962	-0.0073
725.875	0.0013
726.0538	0.0053
726.2325	-0.0042
726.4112	-0.0033
726.59	0.0032
726.7687	-0.0002
726.9474	-0.0045
727.126	-0.0018
727.3047	-0.0067
727.4833	-0.0014
727.6619	-0.0092
727.8405	0.0013
728.0191	-0.0034
728.1976	-0.0096
728.3762	-0.007
728.5547	-0.0095
728.7332	-0.0074
728.9116	-0.0133
729.0901	-0.0142
729.2686	-0.0089
729.447	-0.0016
729.6254	-0.0093
729.8038	-0.0043
729.9821	0.0007
730.1605	-0.0019
730.3388	0.0014
730.5171	-0.0028
730.6954	-0.0039
730.8737	-0.004
731.0519	-0.0011
731.2302	0.0013
731.4084	0.0073
731.5866	-0.0008
731.7648	0.0051
731.9429	0.0038
732.1211	0.0039
732.2992	0.0025
732.4773	-0.0024
732.6554	-0.0074
732.8335	-0.0111
733.0115	-0.0089
733.1896	-0.0103
733.3676	-0.0026
733.5456	-0.0053
733.7235	-0.0001
733.9015	-0.0037
734.0794	0.0007
734.2574	-0.0044
734.4353	-0.0001
734.6131	0.0003
734.791	-0.0035
734.9689	-0.0057
735.1467	0.0022
735.3245	-0.0018
735.5023	-0.008
735.68	-0.0015
735.8578	0.0011
736.0355	0.0081
736.2132	-0
736.3909	-0.0058
736.5686	-0.0054
736.7463	-0.0049
736.9239	-0.0044
737.1015	-0.0027
737.2791	-0.0084
737.4567	-0.0078
737.6343	-0.0048
737.8118	-0.0082
737.9894	0.0004
738.1669	-0.0107
738.3444	-0.0003
738.5218	0.0002
738.6993	0.0008
738.8767	0.0007
739.0541	-0.0115
739.2315	-0.0056
739.4089	-0.0042
739.5863	-0.0094
739.7636	-0.0022
739.9409	0.0029
740.1182	-0.0014
740.2955	0.0026
740.4728	-0.0029
740.65	-0.0024
740.8272	0.0047
741.0044	0.0031
741.1816	0.0039
741.3588	0.0064
741.5359	0.0013
741.7131	0.002
741.8902	0.0019
742.0673	-0.0025
742.2444	-0.004
742.4214	-0.0057
742.5985	-0.0064
742.7755	-0.0068
742.9525	0.0013
743.1295	-0.0007
743.3064	-0.0045
743.4834	-0.0068
743.6603	-0.0025
743.8372	0.0026
744.0141	0.0001
744.191	-0.0032
744.3678	-0.0032
744.5446	0.0032
744.7215	-0.005
744.8982	0.0028
745.075	-0.005
745.2518	-0.0023
745.4285	0.0007
745.6052	0.0005
745.7819	-0.0024
745.9586	0.0035
746.1353	-0.0035
746.3119	0.0049
746.4885	-0.0036
746.6651	-0.0072
746.8417	-0.008
747.0183	-0.0032
747.1948	-0.0093
747.3714	-0.0078
747.5479	0.0004
747.7244	-0.002
747.9008	0.0017
748.0773	0.0056
748.2537	0.0002
748.4301	0.0001
748.6065	-0.0017
748.7829	0.0028
748.9593	0.0028
749.1356	-0.0013
749.3119	0
749.4882	0.005
749.6645	-0.0058
749.8408	-0.0022
750.017	-0.0019
750.1933	-0.0019
750.3695	-0.004
750.5457	-0.0048
750.7218	-0.0077
750.898	0.0013
751.0741	-0.0108
751.2502	-0.0039
751.4263	-0.0036
751.6024	-0.0047
751.7784	0.0042
751.9545	-0.0009
752.1305	0.0064
752.3065	-0.0011
752.4825	0.0003
752.6584	-0.0031
752.8344	0.0029
753.0103	-0.003
753.1862	0.0022
753.3621	0.0021
753.5379	-0.0016
753.7138	-0.0011
753.8896	-0.0084
754.0654	-0.0068
754.2412	-0.0128
754.417	-0.0097
754.5927	-0.0034
754.7685	-0.012
754.9442	-0.0049
755.1199	-0.0142
755.2956	-0.0054
755.4712	-0.0059
755.6469	-0.0151
755.8225	-0.0095
755.9981	-0.0085
756.1736	-0.0056
756.3492	-0.0109
756.5248	-0.0019
756.7003	-0.0117
756.8758	-0.0071
757.0513	-0.0112
757.2267	-0.0101
757.4022	-0.0052
757.5776	-0.0117
757.753	-0.014
757.9284	-0.0089
758.1038	-0.0063
758.2791	-0.0138
758.4545	-0.0127
758.6298	-0.0051
758.8051	-0.0131
758.9803	-0.0135
759.1556	-0.0112
759.3308	-0.0063
759.506	-0.0075
759.6812	-0.0089
759.8564	-0.0032
760.0316	-0.003
760.2067	-0.0044
760.3819	-0.0117
760.557	-0.0065
760.732	-0.0072
760.9071	-0.0117
761.0821	-0.0142
761.2572	-0.0141
761.4322	-0.0053
761.6072	-0.011
761.7821	-0.0112
761.9571	-0.0082
762.132	-0.0118
762.3069	-0.0022
762.4818	-0.01
762.6567	-0.0085
762.8316	-0.0031
763.0064	-0.0004
763.1812	0.0064
763.356	-0.0031
763.5308	-0.0014
763.7055	0.0025
763.8803	0.0022
764.055	-0.0082
764.2297	0
764.4044	0.0012
764.579	0.0012
764.7537	-0.003
764.9283	-0.0078
765.1029	0.0106
765.2775	0.0009
765.4521	0.009
765.6266	0.0021
765.8011	0.0075
765.9756	0.001
766.1501	0.012
766.3246	-0.0049
766.4991	-0.0024
766.6735	-0.0064
766.8479	-0.0087
767.0223	0.0015
767.1967	-0.0055
767.371	-0.0039
767.5454	-0.0003
767.7197	-0.0086
767.894	-0.0023
768.0683	-0.0047
768.2425	-0.005
768.4168	-0.0089
768.591	0.0044
768.7652	-0.0039
768.9394	-0.0009
769.1135	0.0039
769.2877	0.0007
769.4618	0.0072
769.6359	0.0032
769.81	0.006
769.984	-0.0067
770.1581	0.0038
770.3321	0.0009
770.5061	-0.0041
770.6801	0.0078
770.8541	-0.002
771.028	0.0032
771.202	-0.0011
771.3759	-0.005
771.5498	0.0019
771.7236	-0.0034
771.8975	-0.0007
772.0713	-0.0026
772.2451	0.0036
772.4189	-0.0031
772.5927	-0.0034
772.7665	-0.0036
772.9402	0.0006
773.1139	-0.0007
773.2876	-0.0049
773.4613	-0.0015
773.635	-0.0029
773.8086	-0.0015
773.9822	0.0007
774.1558	-0.0005
774.3294	0.009
774.503	0.0055
774.6765	-0.0149
774.8501	0.0002
775.0236	-0.0142
775.1971	-0.0085
775.3705	0.0003
775.544	-0.001
775.7174	0.0058
775.8908	-0.0097
776.0642	0.0019
776.2376	-0.0037
776.4109	-0.0097
776.5843	0.0068
776.7576	0.0053
776.9309	0
777.1041	-0.0016
777.2774	0.0022
777.4506	0.0042
777.6238	-0.0042
777.797	0.0011
777.9702	-0.0029
778.1434	-0.0003
778.3165	0.0037
778.4896	-0.0093
778.6627	-0.0045
778.8358	-0.006
779.0089	-0.0003
779.1819	-0.0085
779.3549	0.0012
779.5279	-0.0041
779.7009	-0.0083
779.8739	-0.0013
780.0468	-0.0084
780.2197	-0.0002
780.3926	-0.0082
780.5655	-0.0055
780.7384	0.0001
780.9112	-0.0062
781.0841	-0.0011
781.2569	-0.0008
781.4297	-0.0092
781.6024	-0.0032
781.7752	-0.0107
781.9479	-0.0038
782.1206	-0.0014
782.2933	-0.0076
782.466	0.0005
782.6386	-0.0047
782.8113	-0.0145
782.9839	-0.0054
783.1565	-0.0085
783.329	-0.0052
783.5016	-0.0059
783.6741	-0.0158
783.8466	-0.0107
784.0191	-0.0055
784.1916	0.001
784.3641	-0.0003
784.5365	-0.0042
784.7089	0.0042
784.8813	0.0062
785.0537	0.0051
785.2261	-0.0003
785.3984	-0.0052
785.5707	0.0041
785.743	-0.0015
785.9153	0
786.0876	0.0062
786.2598	0.0042
786.432	0.0005
786.6042	0.0013
786.7764	0.0044
786.9486	-0.0049
787.1207	-0.0074
787.2928	0.0008
787.4649	-0.0031
787.637	-0.0005
787.8091	-0.0023
787.9811	0.0041
788.1532	-0.0036
788.3252	0.0018
788.4972	-0.0061
788.6691	-0.006
788.8411	0.0028
789.013	0.0001
789.1849	-0.0042
789.3568	-0.0127
789.5287	-0.0069
789.7005	-0.0031
789.8723	-0.0052
790.0442	-0.0049
790.2159	0.0056
790.3877	-0.008
790.5595	0.0011
790.7312	0.0011
790.9029	-0.0018
791.0746	-0.0088
791.2463	0.0068
791.4179	-0.0076
791.5896	0.004
791.7612	0.006
791.9328	0.0013
792.1044	-0.0022
792.2759	0.0061
792.4474	-0.0028
792.619	-0.0125
792.7905	-0.0073
792.9619	-0.0062
793.1334	-0.0053
793.3048	-0.0066
793.4762	-0.0033
793.6476	-0.017
793.819	-0.0065
793.9904	-0.0147
794.1617	-0.0147
794.333	-0.0078
794.5043	-0.0026
794.6756	0.0074
794.8469	0.002
795.0181	-0.0084
795.1893	-0.0027
795.3605	-0.0101
795.5317	-0.0005
795.7029	-0.004
795.874	-0.015
796.0452	-0.0077
796.2163	-0.01
796.3873	-0.0105
796.5584	-0.0029
796.7294	-0.0144
796.9005	-0.0091
797.0715	-0.0174
797.2425	-0.0132
797.4134	-0.0161
797.5844	-0.0126
797.7553	-0.0154
797.9262	-0.0138
798.0971	-0.0159
798.2679	-0.007
798.4388	-0.0149
798.6096	-0.0097
798.7804	-0.0211
798.9512	-0.0163
799.122	-0.0093
799.2927	-0.0114
799.4635	-0.0038
799.6342	-0.0095
799.8049	-0.0137
799.9755	-0.0082
800.1462	-0.0185
800.3168	-0.0088
800.4874	-0.0131
800.658	-0.0197
800.8286	-0.0133
800.9991	-0.0161
801.1696	-0.0149
801.3402	-0.0168
801.5106	-0.0137
801.6811	-0.0256
801.8516	-0.0189
802.022	-0.0267
802.1924	-0.0169
802.3628	-0.0211
802.5332	-0.0199
802.7035	-0.0132
802.8739	-0.0068
803.0442	-0.0119
803.2145	-0.0183
803.3847	-0.021
803.555	-0.0208
803.7252	-0.0078
803.8954	-0.013
804.0656	0.0005
804.2358	-0.0075
804.4059	-0.0145
804.5761	-0.0107
804.7462	-0.0098
804.9163	-0.0131
805.0864	-0.0167
805.2564	-0.0163
805.4264	-0.0178
805.5965	-0.0092
805.7665	-0.005
805.9364	-0.0078
806.1064	-0.0162
806.2763	-0.0092
806.4462	-0.0072
806.6161	-0.0093
806.786	-0.0122
806.9559	-0.0064
807.1257	-0.0199
807.2955	0.0002
807.4653	-0.0083
807.6351	0.0015
807.8048	-0.0005
807.9746	-0.0097
808.1443	0.0007
808.314	0.0018
808.4837	0.0076
808.6533	0.0002
808.8229	0.002
808.9926	0.0088
809.1622	-0.0072
809.3317	0.0111
809.5013	0.0018
809.6708	0.0036
809.8403	-0.0024
810.0098	0.0111
810.1793	-0.0094
810.3488	0.0062
810.5182	-0.0016
810.6876	0.0047
810.857	-0.0085
811.0264	-0.0072
811.1958	-0.0048
811.3651	-0.0201
811.5344	0.0058
811.7037	-0.0124
811.873	-0.0017
812.0422	-0.0155
812.2115	-0.009
812.3807	-0.0017
812.5499	-0.0067
812.7191	-0.0196
812.8882	0.0022
813.0574	-0.0086
813.2265	0.0031
813.3956	-0.007
813.5646	-0.012
813.7337	-0.0014
813.9027	0.0078
814.0718	-0.0038
814.2407	0.0068
814.4097	0.0078
814.5787	0.0112
814.7476	-0.0056
814.9165	0.0077
815.0854	-0.0016
815.2543	0.011
815.4232	-0.0082
815.592	0.0019
815.7608	0.0045
815.9296	-0.0009
816.0984	-0.0039
816.2671	-0.0027
816.4359	0.0032
816.6046	-0.0007
816.7733	0.0044
816.942	0.0051
817.1106	-0.0039
817.2793	-0.0017
817.4479	-0.0141
817.6165	-0.0119
817.785	-0.0024
817.9536	-0.0044
818.1221	-0.0066
818.2906	-0.0028
818.4591	-0.0128
818.6276	0.0071
818.7961	-0.0084
818.9645	0.0016
819.1329	-0.0114
819.3013	-0.0102
819.4697	-0.0109
819.638	-0.0122
819.8064	-0.0157
819.9747	0.009
820.143	-0.0051
820.3113	-0.0102
820.4795	0.0096
820.6477	-0.0019
820.816	0.0025
820.9842	-0.0033
821.1523	-0.0273
821.3205	-0.0143
821.4886	-0.0184
821.6567	0
821.8248	-0.0113
821.9929	0.0017
822.1609	-0.0107
822.329	-0.0007
822.497	-0.0089
822.665	-0.0245
822.833	-0.0238
823.0009	-0.0091
823.1688	-0.0073
823.3367	-0.0085
823.5046	-0.0037
823.6725	-0.0203
823.8404	-0.0031
824.0082	-0.0098
824.176	-0.0015
824.3438	-0.0065
824.5116	0.0006
824.6793	-0.0218
824.847	-0.0108
825.0147	-0.013
825.1824	-0.0157
825.3501	0.0067
825.5177	-0.0175
825.6854	0.006
825.853	-0.0005
826.0206	-0.0005
826.1881	-0.0017
826.3557	0.01
826.5232	-0.0042
826.6907	-0.0051
826.8582	-0.0006
827.0257	-0.018
827.1931	0.0119
827.3605	0.0003
827.528	0.0106
827.6953	0.0037
827.8627	-0.0028
828.03	-0.01
828.1974	0.005
828.3647	0.0204
828.532	-0.0138
828.6992	-0.0143
828.8665	0.0004
829.0337	-0.0055
829.2009	-0.0133
829.3681	-0.0195
829.5352	-0.0064
829.7024	-0.0095
829.8695	-0.0256
830.0366	-0.0188
830.2037	-0.0009
830.3707	-0.0103
830.5378	-0.0222
830.7048	-0.0193
830.8718	-0.0031
831.0388	-0.0008
831.2057	-0.015
831.3727	-0.0118
831.5396	-0.003
831.7065	0.0109
831.8734	0.0022
832.0402	-0.0204
832.2071	0.0024
832.3739	0.0013
832.5407	-0.001
832.7075	0.0056
832.8742	-0.0015
833.041	0.0199
833.2077	-0.0341
833.3744	-0.0023
833.541	0.0004
833.7077	-0.0011
833.8743	0.005
834.0409	0.0154
834.2075	0.0116
834.3741	0.0062
834.5407	0.021
834.7072	0.0049
834.8737	-0.016
835.0402	-0.0284
835.2067	-0.0208
835.3731	-0.016
835.5395	-0.006
835.706	-0.0135
835.8723	-0.0026
836.0387	-0.0061
836.2051	-0.0091
836.3714	0.0029
836.5377	0.0126
836.704	-0.0014
836.8703	-0.0237
837.0365	-0.0014
837.2027	-0.0038
837.3689	0.007
837.5351	0.001
837.7013	0.0117
837.8674	-0.0025
838.0335	-0.01
838.1997	-0.0008
838.3657	0.0008
838.5318	-0.0129
838.6978	-0.0131
838.8639	0.0332
839.0299	-0.0116
839.1958	0.0175
839.3618	0.0133
839.5277	-0.0266
839.6937	-0.0053
839.8596	-0.0188
840.0254	-0.0054
840.1913	-0.0022
840.3571	0.0159
840.523	0.0046
840.6888	-0.0009
840.8545	-0.0077
841.0203	-0.0079
841.186	-0.0012
841.3517	-0.01
841.5174	-0.0081
841.6831	0.0199
841.8488	0.0174
842.0144	0.0217
842.18	-0.0073
842.3456	0.0056
842.5112	0.0184
842.6767	-0.0156
842.8422	0.0186
843.0077	-0.0115
843.1732	-0.0027
843.3387	-0.0122
843.5042	0.0041
843.6696	-0.0144
843.835	-0.0087
844.0004	0.0071
844.1657	0.0011
844.3311	0.0053
844.4964	-0.0118
844.6617	-0.0047
844.827	-0.0078
844.9923	-0.0086
845.1575	0.0008
845.3227	-0.0347
845.4879	-0.0015
845.6531	0.0217
845.8183	-0.0342
845.9834	0.0017
846.1485	-0.005
846.3136	-0.0587
846.4787	-0.0336
846.6438	-0.0182
846.8088	0.027
846.9738	0.0263
847.1388	-0.0089
847.3038	-0.0004
847.4687	0.039
847.6337	0.0384
847.7986	0.0268
847.9635	-0.015
848.1284	-0.0052
848.2932	0.0048
848.458	-0.0009
848.6228	0.0257
848.7876	-0.0472
848.9524	0.0621
849.1172	-0.0422
849.2819	0.0355
849.4466	-0.009
849.6113	-0.0009
849.7759	-0.0132
849.9406	-0.0053
850.1052	0.035
850.2698	-0.0233
850.4344	-0.0073
850.599	-0.0345
850.7635	0.0154
850.928	0.0108
851.0925	0.0033
851.257	-0.0078
851.4215	0.0544
851.5859	0.0395
851.7503	0.0388
851.9147	0.0318
852.0791	-0.0077
852.2434	0.0088
852.4078	0.0189
852.5721	-0.0355
852.7364	-0.0652
852.9007	0.0129
853.0649	-0.0108
853.2291	-0.0104
853.3934	-0.0006
853.5575	-0.0211
853.7217	-0.0325
853.8859	0.0483
854.05	-0.0197
854.2141	-0.0072
854.3782	-0.0056
854.5423	0.0404
854.7063	0.0258
854.8703	-0.0162
855.0343	0.009
855.1983	0.0195
855.3623	0.022
855.5262	-0.0074
855.6901	0.0103
855.854	0.009
856.0179	0.0378
856.1818	0.0488
856.3456	-0.0028
856.5094	-0.0102
856.6732	-0.0255
856.837	-0.0232
857.0008	0.0374
857.1645	-0.0471
857.3282	0.0198
857.4919	-0.0454
857.6556	0.0795
857.8192	-0.001
857.9828	0.0401
858.1465	0.0275
858.31	-0.0131
858.4736	-0.0517
858.6372	-0.0056
858.8007	-0.0024
858.9642	-0.0238
859.1277	0.0698
859.2911	0.0105
859.4546	0.0607
859.618	-0.0281
859.7814	0.0275
859.9448	-0.023
860.1081	0.0247
860.2715	0.0195
860.4348	-0.0387
860.5981	-0.0257
860.7614	-0.0676
860.9246	-0.0557
861.0879	-0.0808
861.2511	0.064
861.4143	-0.1172
861.5774	0.0534
861.7406	0.0511
861.9037	-0.0983
862.0668	0.0218
862.2299	0.0097
862.393	0.0216
862.556	0.0496
862.7191	-0.0203
862.8821	0.0002
863.0451	0.0594
863.208	-0.037
863.371	0.015
863.5339	0.0517
863.6968	0.1202
863.8597	0.0835
864.0225	-0.2493
864.1854	0.0738
864.3482	-0.0641
864.511	0.0701
864.6737	0.0311
864.8365	0.0719
864.9992	0.0036
865.1619	0.0209
865.3246	-0.1627
865.4873	0.1632
865.65	-0.0736
865.8126	0.0095
865.9752	-0.0857
866.1378	-0.0505
866.3004	0.057
866.4629	-0.179
866.6254	0.1128
866.7879	-0.0356
866.9504	-0.1043
867.1129	-0.0693
867.2753	0.0407
867.4377	-0.0498
867.6001	-0.0157
867.7625	0.1152
867.9249	-0.0557
868.0872	-0.1116
868.2495	0.056
868.4118	-0.0421
868.5741	-0.0167
868.7363	0.1566
868.8986	-0.0936
869.0608	0.0494
869.223	0.4144
869.3851	-0.0233
869.5473	-0.1047
869.7094	-0.2122
869.8715	0.0658
870.0336	-0.1366
870.1957	0.4204
870.3577	0.0816
870.5197	-0.2781
870.6817	-0.1051
870.8437	-0.137
871.0057	-0.1522
871.1676	-0.0414
871.3295	-0.1562
871.4914	0.1547
871.6533	-0.0757
871.8151	0.296
871.977	0.1226
872.1388	0.0306
872.3006	-0.1779
872.4623	0.0116
872.6241	-0.1362
872.7858	-0.031
872.9475	-0.1828
873.1092	-0.1139
873.2709	-0.0485
873.4325	-0.082
873.5941	-0.1893
873.7557	-0.1229
873.9173	-0.0925
874.0789	0.2091
874.2404	0.0082
874.4019	-0.2784
874.5634	-0.2733
874.7249	-0.1897
874.8863	-0.4041
875.0478	0.0888
875.2092	-0.3548
875.3706	-0.0615
875.5319	0.6836
875.6933	-0.316
875.8546	-0.1435
876.0159	-0.0487
876.1772	-0.1468
876.3385	0.1131
876.4997	0.5241
876.6609	-0.1272
876.8221	-0.0436
876.9833	-0.2017
877.1445	-0.0532
877.3056	-0.0331
877.4667	-0.874
877.6278	0.3822
877.7889	0.2638
877.9499	-0
878.111	0.0007
878.272	0.2473
878.433	0.0339
878.5939	0.3937
878.7549	-0.3241
878.9158	0.1088
879.0767	0.1169
879.2376	-0.0531
879.3984	0.1716
879.5593	-0
879.7201	-0
879.8809	-0.1776
880.0417	0.0006
880.2024	-0.027
880.3632	-0
880.5239	-0
880.6846	-0
880.8452	0.1255
881.0059	-0.328
881.1665	0.2355
881.3271	-0.2383
881.4877	0.0405
881.6483	-0
881.8088	-0.1055
881.9693	-0.0332
882.1298	-0.0332
882.2903	-0.0332
