Data from MonoPyChalIsomerACN10uM450nmA_Absorbance_13-11-27-691.txt Node
Date: Tue Jul 09 13:11:27 BST 2024
User: LASERRRRR
Spectrometer: FLMT03099
Trigger mode: 0
Integration Time (sec): 2.000000E-1
Scans to average: 1
Electric dark correction enabled: true
Nonlinearity correction enabled: false
Boxcar width: 0
XAxis mode: Wavelengths
Number of Pixels in Spectrum: 3648
>>>>>Begin Spectral Data<<<<<
179.3399	0.6398
179.5586	0.6398
179.7771	0.6398
179.9957	-0
180.2143	-0
180.4329	-0.0334
180.6514	-0
180.8699	-0
181.0885	-0
181.307	0.2673
181.5255	0.6728
181.744	0.2033
181.9625	-0.1632
182.181	0.1165
182.3994	-0.0048
182.6179	0.3456
182.8363	0.5166
183.0547	0.1422
183.2732	0.2986
183.4916	0.0955
183.71	0.0671
183.9284	0.0201
184.1467	0.0668
184.3651	0.0207
184.5835	0.1996
184.8018	0.0191
185.0201	0.1545
185.2385	0.0982
185.4568	-0.0145
185.6751	0.0717
185.8934	0.0546
186.1117	0.0547
186.3299	-0.0904
186.5482	-0.0869
186.7664	0.0345
186.9847	0.088
187.2029	0.1133
187.4211	0.0449
187.6393	-0.0313
187.8575	0.1183
188.0757	-0.0171
188.2939	-0.0027
188.512	0.1439
188.7302	-0.0279
188.9483	0.0841
189.1665	0.1351
189.3846	0.2381
189.6027	0.1975
189.8208	0.2614
190.0389	0.1961
190.257	0.2646
190.475	0.2025
190.6931	0.1359
190.9111	0.1677
191.1292	0.223
191.3472	0.3274
191.5652	0.2977
191.7832	0.4376
192.0012	0.2898
192.2192	0.3834
192.4371	0.562
192.6551	0.4676
192.873	0.4233
193.091	0.4085
193.3089	0.5916
193.5268	0.6092
193.7447	0.5423
193.9626	0.5409
194.1805	0.5504
194.3984	0.7914
194.6162	0.6184
194.8341	0.5551
195.0519	0.6096
195.2697	0.5787
195.4875	0.6116
195.7054	0.5951
195.9231	0.632
196.1409	0.699
196.3587	0.6736
196.5765	0.6508
196.7942	0.8691
197.012	0.6531
197.2297	0.7749
197.4474	0.7529
197.6651	0.667
197.8828	0.8857
198.1005	0.8126
198.3182	0.8489
198.5358	0.6986
198.7535	0.7221
198.9711	0.9576
199.1888	0.7576
199.4064	0.7697
199.624	0.7379
199.8416	0.7822
200.0592	0.7398
200.2767	0.7575
200.4943	0.9062
200.7119	0.8384
200.9294	0.9171
201.1469	0.9431
201.3645	0.7807
201.582	0.8382
201.7995	0.7789
202.017	0.8981
202.2344	0.9061
202.4519	0.9804
202.6694	0.882
202.8868	0.9452
203.1042	0.9423
203.3217	1.0453
203.5391	0.9843
203.7565	0.9324
203.9739	0.8459
204.1913	0.7881
204.4086	0.9569
204.626	0.9962
204.8433	1.0038
205.0607	0.8724
205.278	0.92
205.4953	0.9714
205.7126	0.9978
205.9299	1.0246
206.1472	1.0344
206.3644	0.9455
206.5817	1.1427
206.7989	1.0794
207.0162	1.0366
207.2334	0.8855
207.4506	0.9847
207.6678	1.0769
207.885	1.0693
208.1022	1.0722
208.3194	1.068
208.5365	1.0489
208.7537	1.0104
208.9708	1.0633
209.1879	1.1769
209.405	1.0208
209.6222	1.1755
209.8392	1.046
210.0563	0.9997
210.2734	1.0121
210.4905	1.0607
210.7075	1.0799
210.9245	1.0173
211.1416	1.1199
211.3586	1.0581
211.5756	1.114
211.7926	1.0931
212.0096	1.0481
212.2265	1.0802
212.4435	1.0859
212.6604	1.0602
212.8774	1.0225
213.0943	1.0491
213.3112	0.9599
213.5281	1.0788
213.745	0.986
213.9619	0.9193
214.1788	0.9355
214.3956	0.9535
214.6125	0.9185
214.8293	0.8692
215.0461	0.9266
215.2629	0.9061
215.4798	0.8617
215.6965	0.8431
215.9133	0.7908
216.1301	0.8256
216.3469	0.8023
216.5636	0.804
216.7803	0.7673
216.9971	0.7195
217.2138	0.7595
217.4305	0.7261
217.6472	0.6782
217.8639	0.6628
218.0805	0.6411
218.2972	0.5479
218.5138	0.553
218.7305	0.5013
218.9471	0.4809
219.1637	0.454
219.3803	0.4461
219.5969	0.3927
219.8135	0.3852
220.0301	0.3567
220.2466	0.3662
220.4632	0.3356
220.6797	0.3324
220.8962	0.3089
221.1127	0.2945
221.3292	0.3121
221.5457	0.2906
221.7622	0.2844
221.9787	0.2759
222.1951	0.2797
222.4116	0.2851
222.628	0.2688
222.8444	0.2795
223.0608	0.278
223.2772	0.2659
223.4936	0.2609
223.71	0.2719
223.9264	0.2831
224.1427	0.2616
224.3591	0.2798
224.5754	0.2636
224.7917	0.2683
225.008	0.2709
225.2243	0.2749
225.4406	0.2806
225.6569	0.2656
225.8732	0.2899
226.0894	0.2785
226.3057	0.285
226.5219	0.2829
226.7381	0.2846
226.9543	0.2707
227.1705	0.2888
227.3867	0.3116
227.6029	0.2924
227.8191	0.3051
228.0352	0.3031
228.2513	0.3049
228.4675	0.3133
228.6836	0.318
228.8997	0.3147
229.1158	0.3198
229.3319	0.318
229.548	0.3372
229.764	0.323
229.9801	0.3273
230.1961	0.3315
230.4121	0.3371
230.6282	0.3426
230.8442	0.3358
231.0602	0.3294
231.2761	0.3441
231.4921	0.35
231.7081	0.358
231.924	0.362
232.14	0.357
232.3559	0.3616
232.5718	0.3739
232.7877	0.366
233.0036	0.3611
233.2195	0.3642
233.4353	0.3665
233.6512	0.3656
233.867	0.3749
234.0829	0.388
234.2987	0.3841
234.5145	0.3815
234.7303	0.3791
234.9461	0.3966
235.1619	0.3913
235.3776	0.4009
235.5934	0.3996
235.8091	0.3871
236.0249	0.3817
236.2406	0.3967
236.4563	0.3849
236.672	0.3912
236.8877	0.4055
237.1034	0.3965
237.319	0.4077
237.5347	0.4092
237.7503	0.4206
237.966	0.4177
238.1816	0.414
238.3972	0.4063
238.6128	0.4104
238.8284	0.3996
239.0439	0.4197
239.2595	0.4198
239.475	0.4227
239.6906	0.4156
239.9061	0.4075
240.1216	0.4235
240.3371	0.4286
240.5526	0.4251
240.7681	0.4133
240.9836	0.4271
241.199	0.4158
241.4145	0.3947
241.6299	0.4056
241.8453	0.4088
242.0607	0.3797
242.2761	0.3963
242.4915	0.3842
242.7069	0.397
242.9223	0.3825
243.1376	0.3748
243.353	0.3644
243.5683	0.3581
243.7836	0.3513
243.9989	0.3462
244.2142	0.3298
244.4295	0.3427
244.6448	0.3319
244.86	0.3204
245.0753	0.3106
245.2905	0.3041
245.5057	0.3099
245.721	0.3111
245.9362	0.2798
246.1514	0.2945
246.3665	0.2908
246.5817	0.2728
246.7969	0.2737
247.012	0.2844
247.2271	0.2627
247.4423	0.2602
247.6574	0.2679
247.8725	0.2598
248.0876	0.2489
248.3026	0.2549
248.5177	0.252
248.7328	0.2356
248.9478	0.2397
249.1628	0.2384
249.3779	0.2331
249.5929	0.2237
249.8079	0.2316
250.0228	0.2317
250.2378	0.2305
250.4528	0.2209
250.6677	0.2266
250.8827	0.2097
251.0976	0.2189
251.3125	0.2224
251.5274	0.2091
251.7423	0.2216
251.9572	0.2121
252.172	0.1984
252.3869	0.209
252.6017	0.2079
252.8166	0.2138
253.0314	0.2114
253.2462	0.2146
253.461	0.2063
253.6758	0.2056
253.8906	0.2023
254.1053	0.2001
254.3201	0.2068
254.5348	0.1945
254.7496	0.2077
254.9643	0.1972
255.179	0.2001
255.3937	0.2021
255.6083	0.198
255.823	0.2015
256.0377	0.1919
256.2523	0.1958
256.467	0.2045
256.6816	0.1995
256.8962	0.2024
257.1108	0.1919
257.3254	0.2069
257.54	0.2
257.7545	0.196
257.9691	0.1926
258.1836	0.1911
258.3981	0.2001
258.6127	0.2016
258.8272	0.196
259.0417	0.1897
259.2561	0.2001
259.4706	0.1925
259.6851	0.1979
259.8995	0.1926
260.114	0.1876
260.3284	0.1993
260.5428	0.1958
260.7572	0.1949
260.9716	0.19
261.186	0.2039
261.4003	0.2085
261.6147	0.1962
261.829	0.2071
262.0433	0.196
262.2577	0.1936
262.472	0.1948
262.6863	0.193
262.9005	0.1972
263.1148	0.2
263.3291	0.1876
263.5433	0.1936
263.7576	0.1886
263.9718	0.1901
264.186	0.1833
264.4002	0.1811
264.6144	0.184
264.8286	0.1797
265.0427	0.1812
265.2569	0.1853
265.471	0.1837
265.6851	0.1761
265.8993	0.1801
266.1134	0.1707
266.3275	0.1785
266.5415	0.1719
266.7556	0.187
266.9697	0.1829
267.1837	0.1804
267.3978	0.1925
267.6118	0.1926
267.8258	0.1949
268.0398	0.1945
268.2538	0.1873
268.4677	0.1918
268.6817	0.1908
268.8957	0.1877
269.1096	0.1936
269.3235	0.19
269.5374	0.1822
269.7514	0.1721
269.9652	0.166
270.1791	0.1646
270.393	0.1632
270.6068	0.156
270.8207	0.1548
271.0345	0.1582
271.2483	0.1535
271.4622	0.1577
271.676	0.1471
271.8897	0.1456
272.1035	0.1448
272.3173	0.1426
272.531	0.1511
272.7448	0.1442
272.9585	0.1472
273.1722	0.1395
273.3859	0.1419
273.5996	0.1386
273.8133	0.1493
274.0269	0.1444
274.2406	0.1463
274.4542	0.1429
274.6679	0.1447
274.8815	0.1517
275.0951	0.1457
275.3087	0.1474
275.5223	0.1389
275.7358	0.1451
275.9494	0.1573
276.1629	0.1479
276.3765	0.1446
276.59	0.1431
276.8035	0.1503
277.017	0.145
277.2305	0.1407
277.444	0.1467
277.6574	0.1506
277.8709	0.1577
278.0843	0.1552
278.2978	0.1449
278.5112	0.1486
278.7246	0.1513
278.938	0.1515
279.1513	0.1564
279.3647	0.1506
279.5781	0.1524
279.7914	0.152
280.0047	0.1528
280.2181	0.1524
280.4314	0.1417
280.6447	0.1499
280.8579	0.1577
281.0712	0.1574
281.2845	0.1566
281.4977	0.1562
281.711	0.155
281.9242	0.1567
282.1374	0.1528
282.3506	0.1542
282.5638	0.1619
282.7769	0.1606
282.9901	0.1544
283.2033	0.1612
283.4164	0.1617
283.6295	0.163
283.8426	0.1612
284.0557	0.1591
284.2688	0.1561
284.4819	0.1504
284.695	0.1596
284.908	0.1591
285.1211	0.1622
285.3341	0.1503
285.5471	0.1579
285.7601	0.1516
285.9731	0.1539
286.1861	0.1674
286.3991	0.1674
286.612	0.1633
286.825	0.1643
287.0379	0.1614
287.2508	0.16
287.4637	0.1657
287.6766	0.1534
287.8895	0.1648
288.1024	0.1607
288.3152	0.1601
288.5281	0.1585
288.7409	0.1562
288.9538	0.1562
289.1666	0.159
289.3794	0.1597
289.5922	0.1567
289.8049	0.156
290.0177	0.1556
290.2304	0.1587
290.4432	0.1577
290.6559	0.1552
290.8686	0.154
291.0813	0.1588
291.294	0.1581
291.5067	0.1614
291.7194	0.1584
291.932	0.1583
292.1447	0.1552
292.3573	0.1572
292.5699	0.1609
292.7825	0.1573
292.9951	0.1655
293.2077	0.1575
293.4203	0.155
293.6328	0.1666
293.8454	0.1564
294.0579	0.1564
294.2704	0.1583
294.4829	0.1597
294.6954	0.1548
294.9079	0.1648
295.1204	0.1565
295.3328	0.1608
295.5453	0.1532
295.7577	0.1521
295.9701	0.1632
296.1825	0.1541
296.3949	0.1563
296.6073	0.1598
296.8197	0.1578
297.0321	0.1567
297.2444	0.1544
297.4567	0.1542
297.6691	0.1603
297.8814	0.1544
298.0937	0.1578
298.306	0.1563
298.5182	0.1458
298.7305	0.1536
298.9428	0.1558
299.155	0.1564
299.3672	0.1558
299.5794	0.1564
299.7916	0.151
300.0038	0.1511
300.216	0.166
300.4282	0.1561
300.6403	0.1604
300.8525	0.1587
301.0646	0.1514
301.2767	0.1593
301.4888	0.1536
301.7009	0.1576
301.913	0.1585
302.125	0.1526
302.3371	0.1612
302.5491	0.1499
302.7612	0.1579
302.9732	0.157
303.1852	0.1502
303.3972	0.1565
303.6092	0.154
303.8211	0.1573
304.0331	0.1456
304.245	0.1511
304.457	0.149
304.6689	0.1488
304.8808	0.1464
305.0927	0.1479
305.3046	0.1516
305.5164	0.1505
305.7283	0.14
305.9401	0.1497
306.152	0.1476
306.3638	0.1512
306.5756	0.1432
306.7874	0.1358
306.9992	0.138
307.2109	0.1381
307.4227	0.139
307.6344	0.1307
307.8462	0.1365
308.0579	0.13
308.2696	0.134
308.4813	0.1315
308.693	0.1278
308.9046	0.1208
309.1163	0.115
309.328	0.1139
309.5396	0.1168
309.7512	0.1216
309.9628	0.1185
310.1744	0.1226
310.386	0.1164
310.5976	0.1152
310.8091	0.1107
311.0207	0.117
311.2322	0.1235
311.4437	0.1259
311.6552	0.1176
311.8667	0.1078
312.0782	0.1119
312.2897	0.1045
312.5012	0.1164
312.7126	0.102
312.924	0.0997
313.1355	0.1024
313.3469	0.1105
313.5583	0.1072
313.7696	0.1068
313.981	0.0971
314.1924	0.0926
314.4037	0.1038
314.6151	0.0962
314.8264	0.104
315.0377	0.1026
315.249	0.1016
315.4603	0.1051
315.6716	0.1019
315.8828	0.1045
316.0941	0.0966
316.3053	0.1062
316.5165	0.0949
316.7277	0.0942
316.9389	0.0975
317.1501	0.0991
317.3613	0.0925
317.5724	0.1
317.7836	0.1046
317.9947	0.103
318.2058	0.0973
318.417	0.0919
318.6281	0.0958
318.8391	0.0868
319.0502	0.0945
319.2613	0.099
319.4723	0.0985
319.6834	0.103
319.8944	0.0985
320.1054	0.0952
320.3164	0.1033
320.5274	0.1051
320.7383	0.0966
320.9493	0.1006
321.1602	0.1007
321.3712	0.1001
321.5821	0.0995
321.793	0.0882
322.0039	0.0931
322.2148	0.0984
322.4257	0.0991
322.6365	0.1001
322.8474	0.0986
323.0582	0.1105
323.269	0.106
323.4798	0.1065
323.6906	0.1054
323.9014	0.0969
324.1122	0.1095
324.3229	0.1029
324.5337	0.0993
324.7444	0.0979
324.9551	0.1001
325.1658	0.0983
325.3765	0.0965
325.5872	0.0949
325.7979	0.101
326.0085	0.1048
326.2192	0.1052
326.4298	0.1103
326.6404	0.0965
326.851	0.1002
327.0616	0.0999
327.2722	0.1034
327.4828	0.0998
327.6933	0.1018
327.9039	0.104
328.1144	0.1019
328.3249	0.1067
328.5354	0.1068
328.7459	0.1024
328.9564	0.1062
329.1669	0.1053
329.3773	0.1054
329.5878	0.1078
329.7982	0.1109
330.0086	0.108
330.219	0.1122
330.4294	0.1004
330.6398	0.1124
330.8502	0.1089
331.0605	0.1084
331.2708	0.1061
331.4812	0.0972
331.6915	0.1099
331.9018	0.1091
332.1121	0.1096
332.3224	0.1114
332.5326	0.1051
332.7429	0.112
332.9531	0.1112
333.1633	0.1134
333.3735	0.1164
333.5837	0.103
333.7939	0.1113
334.0041	0.0985
334.2143	0.1083
334.4244	0.1007
334.6346	0.1077
334.8447	0.1064
335.0548	0.1146
335.2649	0.1066
335.475	0.1076
335.685	0.1077
335.8951	0.1112
336.1051	0.1079
336.3152	0.1144
336.5252	0.1079
336.7352	0.1018
336.9452	0.1163
337.1552	0.1078
337.3652	0.1154
337.5751	0.1104
337.7851	0.1012
337.995	0.1121
338.2049	0.1106
338.4148	0.115
338.6247	0.1199
338.8346	0.1133
339.0445	0.1153
339.2543	0.1106
339.4642	0.1091
339.674	0.1139
339.8838	0.1111
340.0936	0.1222
340.3034	0.1215
340.5132	0.1178
340.7229	0.118
340.9327	0.1166
341.1424	0.1197
341.3522	0.1272
341.5619	0.1281
341.7716	0.1267
341.9813	0.116
342.1909	0.128
342.4006	0.1204
342.6102	0.1296
342.8199	0.1228
343.0295	0.1126
343.2391	0.1288
343.4487	0.1237
343.6583	0.1313
343.8679	0.1238
344.0774	0.132
344.287	0.1355
344.4965	0.124
344.706	0.1405
344.9155	0.1328
345.125	0.1286
345.3345	0.1355
345.544	0.1183
345.7534	0.1196
345.9629	0.1203
346.1723	0.1314
346.3817	0.1286
346.5911	0.1362
346.8005	0.1362
347.0099	0.1261
347.2193	0.1426
347.4286	0.1339
347.638	0.1349
347.8473	0.1295
348.0566	0.1396
348.2659	0.1248
348.4752	0.1313
348.6845	0.1381
348.8937	0.1438
349.103	0.1375
349.3122	0.1373
349.5214	0.1365
349.7306	0.1279
349.9398	0.1361
350.149	0.1319
350.3582	0.136
350.5674	0.1454
350.7765	0.1354
350.9856	0.1385
351.1948	0.1387
351.4039	0.136
351.613	0.1398
351.822	0.145
352.0311	0.1348
352.2402	0.1487
352.4492	0.1404
352.6582	0.1438
352.8672	0.1459
353.0762	0.1489
353.2852	0.1576
353.4942	0.15
353.7032	0.1468
353.9121	0.151
354.1211	0.151
354.33	0.1493
354.5389	0.143
354.7478	0.1433
354.9567	0.1476
355.1655	0.1573
355.3744	0.1528
355.5833	0.1466
355.7921	0.1529
356.0009	0.15
356.2097	0.1438
356.4185	0.153
356.6273	0.1576
356.8361	0.1485
357.0448	0.1611
357.2536	0.1561
357.4623	0.159
357.671	0.1616
357.8797	0.1637
358.0884	0.1559
358.2971	0.1695
358.5057	0.1591
358.7144	0.1666
358.923	0.1703
359.1316	0.1661
359.3402	0.1738
359.5488	0.167
359.7574	0.1757
359.966	0.1728
360.1746	0.1726
360.3831	0.1801
360.5916	0.1764
360.8002	0.1743
361.0087	0.1779
361.2172	0.178
361.4256	0.1754
361.6341	0.1734
361.8426	0.1836
362.051	0.1728
362.2594	0.1817
362.4678	0.1788
362.6762	0.181
362.8846	0.1802
363.093	0.1768
363.3014	0.1821
363.5097	0.1802
363.718	0.1893
363.9264	0.1896
364.1347	0.1862
364.343	0.178
364.5513	0.1814
364.7595	0.189
364.9678	0.1864
365.176	0.195
365.3842	0.1834
365.5925	0.1849
365.8007	0.1849
366.0089	0.2005
366.217	0.1953
366.4252	0.1943
366.6333	0.1858
366.8415	0.1927
367.0496	0.1926
367.2577	0.2043
367.4658	0.2059
367.6739	0.2024
367.882	0.2047
368.09	0.1881
368.2981	0.2146
368.5061	0.1938
368.7141	0.2137
368.9221	0.1955
369.1301	0.2061
369.3381	0.2044
369.5461	0.2074
369.754	0.1962
369.962	0.2017
370.1699	0.2075
370.3778	0.2088
370.5857	0.2055
370.7936	0.2022
371.0015	0.2171
371.2093	0.2033
371.4172	0.2223
371.625	0.2119
371.8328	0.216
372.0406	0.2235
372.2484	0.2083
372.4562	0.2119
372.664	0.2178
372.8717	0.2001
373.0795	0.2155
373.2872	0.2203
373.4949	0.2169
373.7026	0.2155
373.9103	0.217
374.118	0.2211
374.3256	0.2223
374.5333	0.2273
374.7409	0.2081
374.9485	0.2169
375.1561	0.2232
375.3637	0.2224
375.5713	0.2155
375.7789	0.2145
375.9864	0.2243
376.194	0.2201
376.4015	0.2321
376.609	0.2243
376.8165	0.2256
377.024	0.2213
377.2315	0.2224
377.4389	0.2335
377.6464	0.2207
377.8538	0.2271
378.0612	0.2319
378.2686	0.227
378.476	0.2235
378.6834	0.237
378.8908	0.2326
379.0981	0.2357
379.3055	0.231
379.5128	0.2312
379.7201	0.2331
379.9274	0.2429
380.1347	0.2375
380.342	0.2279
380.5492	0.2299
380.7565	0.2264
380.9637	0.2456
381.1709	0.2327
381.3781	0.2403
381.5853	0.2449
381.7925	0.2364
381.9997	0.2349
382.2068	0.2418
382.4139	0.2273
382.6211	0.2379
382.8282	0.2301
383.0353	0.2337
383.2424	0.2277
383.4494	0.2532
383.6565	0.2344
383.8635	0.2455
384.0706	0.2365
384.2776	0.2428
384.4846	0.2461
384.6916	0.2475
384.8986	0.2495
385.1055	0.25
385.3125	0.2635
385.5194	0.2492
385.7263	0.2447
385.9333	0.2448
386.1402	0.2531
386.347	0.251
386.5539	0.2468
386.7608	0.2483
386.9676	0.2399
387.1744	0.2426
387.3813	0.238
387.5881	0.2403
387.7948	0.2416
388.0016	0.2441
388.2084	0.2423
388.4151	0.2343
388.6219	0.2432
388.8286	0.2386
389.0353	0.2243
389.242	0.2388
389.4487	0.2318
389.6553	0.2338
389.862	0.2238
390.0686	0.2283
390.2753	0.2304
390.4819	0.2252
390.6885	0.2302
390.8951	0.2327
391.1016	0.2219
391.3082	0.2319
391.5147	0.2273
391.7213	0.2269
391.9278	0.2308
392.1343	0.2294
392.3408	0.2165
392.5473	0.2379
392.7537	0.229
392.9602	0.2104
393.1666	0.2138
393.373	0.2142
393.5794	0.2262
393.7858	0.2048
393.9922	0.2081
394.1986	0.2126
394.4049	0.2216
394.6113	0.2048
394.8176	0.2032
395.0239	0.2001
395.2302	0.2017
395.4365	0.2148
395.6428	0.2025
395.8491	0.2077
396.0553	0.211
396.2615	0.2156
396.4678	0.2266
396.674	0.2114
396.8802	0.2108
397.0863	0.1994
397.2925	0.2031
397.4987	0.1993
397.7048	0.2019
397.9109	0.2075
398.117	0.2015
398.3231	0.1967
398.5292	0.2015
398.7353	0.2027
398.9413	0.198
399.1474	0.1914
399.3534	0.1982
399.5594	0.1912
399.7654	0.2
399.9714	0.2062
400.1774	0.1957
400.3833	0.2032
400.5893	0.1994
400.7952	0.1838
401.0011	0.2045
401.207	0.1965
401.4129	0.1959
401.6188	0.1871
401.8247	0.201
402.0305	0.1858
402.2364	0.1979
402.4422	0.197
402.648	0.2045
402.8538	0.1946
403.0596	0.1927
403.2654	0.2008
403.4711	0.1874
403.6768	0.1993
403.8826	0.2046
404.0883	0.2026
404.294	0.1985
404.4997	0.1963
404.7054	0.1901
404.911	0.2047
405.1167	0.2059
405.3223	0.2048
405.5279	0.2001
405.7335	0.201
405.9391	0.2097
406.1447	0.1975
406.3502	0.1942
406.5558	0.1926
406.7613	0.1874
406.9668	0.195
407.1724	0.1945
407.3778	0.2045
407.5833	0.1921
407.7888	0.2079
407.9942	0.1929
408.1997	0.201
408.4051	0.1982
408.6105	0.2044
408.8159	0.2157
409.0213	0.1949
409.2267	0.1991
409.432	0.1934
409.6374	0.1958
409.8427	0.2076
410.048	0.1912
410.2533	0.1941
410.4586	0.2029
410.6639	0.1912
410.8691	0.2042
411.0744	0.197
411.2796	0.1783
411.4848	0.1857
411.69	0.205
411.8952	0.1924
412.1004	0.2045
412.3056	0.1948
412.5107	0.1948
412.7158	0.1923
412.921	0.1863
413.1261	0.193
413.3312	0.1994
413.5362	0.1956
413.7413	0.1888
413.9464	0.1959
414.1514	0.179
414.3564	0.1905
414.5614	0.1943
414.7664	0.1913
414.9714	0.1831
415.1764	0.1803
415.3813	0.1873
415.5863	0.189
415.7912	0.2019
415.9961	0.1915
416.201	0.1888
416.4059	0.1872
416.6108	0.1871
416.8156	0.1884
417.0205	0.1955
417.2253	0.1758
417.4301	0.1916
417.6349	0.1958
417.8397	0.1823
418.0445	0.1903
418.2492	0.1824
418.454	0.1765
418.6587	0.1871
418.8634	0.1829
419.0681	0.1811
419.2728	0.1936
419.4775	0.1876
419.6822	0.1877
419.8868	0.1748
420.0915	0.1794
420.2961	0.1906
420.5007	0.1775
420.7053	0.1848
420.9099	0.1715
421.1144	0.1753
421.319	0.1667
421.5235	0.1896
421.728	0.172
421.9325	0.1702
422.137	0.1619
422.3415	0.1822
422.546	0.1812
422.7504	0.1831
422.9549	0.1799
423.1593	0.1696
423.3637	0.1764
423.5681	0.1678
423.7725	0.1641
423.9769	0.1594
424.1812	0.1619
424.3856	0.1664
424.5899	0.1749
424.7942	0.1645
424.9985	0.1642
425.2028	0.1571
425.4071	0.162
425.6113	0.17
425.8156	0.1639
426.0198	0.1644
426.224	0.1488
426.4282	0.1448
426.6324	0.1583
426.8366	0.1667
427.0407	0.1492
427.2449	0.1607
427.449	0.14
427.6531	0.1569
427.8572	0.1473
428.0613	0.1395
428.2654	0.1343
428.4694	0.1465
428.6735	0.1616
428.8775	0.145
429.0815	0.153
429.2855	0.1513
429.4895	0.137
429.6935	0.1329
429.8975	0.1344
430.1014	0.14
430.3053	0.1337
430.5093	0.1421
430.7132	0.1388
430.9171	0.1272
431.1209	0.1371
431.3248	0.1261
431.5286	0.1333
431.7325	0.1338
431.9363	0.1269
432.1401	0.1261
432.3439	0.1159
432.5477	0.1212
432.7514	0.11
432.9552	0.1142
433.1589	0.1182
433.3627	0.1257
433.5664	0.1203
433.7701	0.1117
433.9737	0.1017
434.1774	0.1082
434.3811	0.1045
434.5847	0.1153
434.7883	0.1045
434.9919	0.0952
435.1955	0.0907
435.3991	0.0948
435.6027	0.0962
435.8062	0.0988
436.0098	0.0969
436.2133	0.0895
436.4168	0.104
436.6203	0.0904
436.8238	0.0915
437.0272	0.0819
437.2307	0.0898
437.4341	0.0894
437.6375	0.096
437.841	0.0872
438.0443	0.081
438.2477	0.0849
438.4511	0.0857
438.6545	0.0791
438.8578	0.0702
439.0611	0.0786
439.2644	0.085
439.4677	0.0783
439.671	0.069
439.8743	0.08
440.0775	0.0664
440.2808	0.0614
440.484	0.0727
440.6872	0.0643
440.8904	0.0571
441.0936	0.0632
441.2967	0.0632
441.4999	0.0623
441.703	0.0496
441.9062	0.0609
442.1093	0.0588
442.3124	0.0556
442.5155	0.0507
442.7185	0.0478
442.9216	0.0469
443.1246	0.0613
443.3276	0.0551
443.5307	0.0414
443.7337	0.0519
443.9366	0.044
444.1396	0.0465
444.3426	0.0423
444.5455	0.0439
444.7484	0.0334
444.9513	0.0453
445.1542	0.0465
445.3571	0.0472
445.56	0.0332
445.7628	0.0297
445.9657	0.0495
446.1685	0.0392
446.3713	0.0375
446.5741	0.0387
446.7769	0.0419
446.9797	0.0406
447.1824	0.032
447.3852	0.0298
447.5879	0.0342
447.7906	0.0342
447.9933	0.0363
448.196	0.0408
448.3986	0.0215
448.6013	0.0304
448.8039	0.0281
449.0066	0.019
449.2092	0.0269
449.4118	0.0212
449.6143	0.0299
449.8169	0.0167
450.0195	0.0216
450.222	0.0134
450.4245	0.0196
450.627	0.0241
450.8295	0.0221
451.032	0.0233
451.2345	0.019
451.4369	0.0316
451.6394	0.019
451.8418	0.0178
452.0442	0.0188
452.2466	0.0215
452.449	0.0175
452.6513	0.0084
452.8537	0.0203
453.056	0.021
453.2583	0.0069
453.4607	0.0169
453.663	0.0206
453.8652	0.0107
454.0675	0.0183
454.2697	0.0261
454.472	0.0078
454.6742	0.0115
454.8764	0.0135
455.0786	0.0158
455.2808	0.0169
455.4829	0.0059
455.6851	0.0012
455.8872	0.0028
456.0893	-0.0017
456.2915	0.0145
456.4935	0.01
456.6956	0.0052
456.8977	0.0033
457.0997	0.0028
457.3018	0.0035
457.5038	0.0046
457.7058	0.0031
457.9078	0.0017
458.1098	0.0015
458.3117	0.0085
458.5137	0.0062
458.7156	0.0112
458.9175	0.0007
459.1194	0.0085
459.3213	0.0106
459.5232	0.0037
459.725	0.0022
459.9269	0.0039
460.1287	0.0106
460.3305	0.0039
460.5323	0.015
460.7341	0.0101
460.9359	0.0018
461.1376	0.0044
461.3394	0.0002
461.5411	0.0083
461.7428	0.0054
461.9445	0.0069
462.1462	-0.0001
462.3479	0.0051
462.5495	0.0049
462.7512	-0.0001
462.9528	0.0069
463.1544	-0.0078
463.356	0.0015
463.5576	0.0001
463.7592	-0.0048
463.9607	0.0055
464.1623	-0.0006
464.3638	0.005
464.5653	0.0017
464.7668	-0.0025
464.9683	0.0021
465.1697	0.0106
465.3712	0.0004
465.5726	-0.0022
465.7741	0.0004
465.9755	-0.0089
466.1769	-0.021
466.3782	0.0047
466.5796	-0.0104
466.7809	-0.0035
466.9823	-0.0079
467.1836	0.0031
467.3849	0.0006
467.5862	-0.0053
467.7875	-0.007
467.9887	0.0017
468.19	-0.0078
468.3912	-0.0032
468.5924	0.0022
468.7936	-0.0135
468.9948	0.0067
469.196	-0.0039
469.3972	-0.002
469.5983	0.0144
469.7994	-0.0043
470.0006	-0.0102
470.2017	0.0063
470.4027	-0.0008
470.6038	0.0018
470.8049	-0.0098
471.0059	-0.0054
471.2069	0.0038
471.408	0.0037
471.6089	-0.0058
471.8099	-0.0035
472.0109	-0.0073
472.2119	-0.0112
472.4128	0.0019
472.6137	-0.0039
472.8146	-0.0122
473.0155	-0.0153
473.2164	-0.0108
473.4173	-0.0079
473.6181	0.0009
473.819	-0.0012
474.0198	-0.0092
474.2206	0.0009
474.4214	0.0006
474.6222	-0.0066
474.8229	-0.0107
475.0237	-0.0039
475.2244	-0.0022
475.4251	-0.0096
475.6258	0.0015
475.8265	-0.0064
476.0272	-0.0038
476.2278	-0.0093
476.4285	-0.0004
476.6291	-0.005
476.8297	-0.0136
477.0303	-0.0074
477.2309	-0.0039
477.4315	0.0028
477.632	-0.0116
477.8326	-0.0025
478.0331	-0.0084
478.2336	0.0023
478.4341	-0.0083
478.6346	-0.0065
478.8351	-0.0099
479.0355	-0.0129
479.236	-0.0038
479.4364	-0.0048
479.6368	0.0065
479.8372	-0.0027
480.0376	-0
480.2379	-0.0025
480.4383	-0.0108
480.6386	-0.0166
480.8389	-0.0139
481.0392	-0.0131
481.2395	-0.0073
481.4398	0.0007
481.6401	-0.0156
481.8403	-0.0047
482.0405	-0.0097
482.2408	0.0066
482.441	-0.0073
482.6411	0.0038
482.8413	-0.0036
483.0415	-0.0101
483.2416	0.0001
483.4417	-0.0088
483.6419	-0.0023
483.8419	-0.0081
484.042	-0.007
484.2421	-0.0057
484.4422	-0.0034
484.6422	-0.0072
484.8422	-0.0088
485.0422	-0.0045
485.2422	-0.0092
485.4422	-0.0086
485.6422	-0.005
485.8421	-0.0029
486.042	-0.0052
486.242	-0.002
486.4419	-0.0072
486.6417	-0.0045
486.8416	-0.0049
487.0415	-0.0033
487.2413	-0.0102
487.4411	0.0016
487.641	-0.0001
487.8408	-0.0083
488.0405	-0.0063
488.2403	-0.0094
488.4401	-0.0069
488.6398	-0.0062
488.8395	-0.0117
489.0392	-0.0075
489.2389	-0.0035
489.4386	-0.007
489.6383	-0.0028
489.8379	-0.01
490.0376	-0.0044
490.2372	-0.0023
490.4368	-0.0143
490.6364	0.0022
490.836	-0.0051
491.0355	-0.0042
491.2351	-0.0101
491.4346	-0.0097
491.6341	-0.004
491.8336	-0.0017
492.0331	-0.0103
492.2326	-0.0118
492.432	-0.0092
492.6315	-0.0099
492.8309	-0.0043
493.0303	-0.0101
493.2297	-0.0027
493.4291	-0.0088
493.6284	-0.0069
493.8278	-0.0068
494.0271	-0.0033
494.2264	-0.0076
494.4257	0.0022
494.625	-0.0061
494.8243	-0.007
495.0236	-0.0094
495.2228	-0.0072
495.422	-0.0031
495.6213	-0.0069
495.8205	0.0001
496.0196	-0.0062
496.2188	-0.0013
496.418	-0.0065
496.6171	-0.0015
496.8162	-0.001
497.0153	0.0046
497.2144	-0.0029
497.4135	-0.0038
497.6126	-0.0082
497.8116	0.0002
498.0107	-0.004
498.2097	-0.0041
498.4087	-0.0048
498.6077	-0.0045
498.8067	-0.0098
499.0056	0.0019
499.2046	-0.0003
499.4035	-0.0111
499.6024	-0.002
499.8013	0.002
500.0002	-0.0078
500.199	-0.0048
500.3979	0.0019
500.5967	-0.0099
500.7956	-0.0112
500.9944	0.0002
501.1932	-0.0021
501.3919	-0.0111
501.5907	-0.0054
501.7895	-0.0008
501.9882	-0.0086
502.1869	-0.0052
502.3856	-0.0051
502.5843	-0.0119
502.783	-0.005
502.9816	-0.0106
503.1803	-0.0001
503.3789	-0.005
503.5775	0.0001
503.7761	-0.0083
503.9747	-0.0122
504.1732	-0.0032
504.3718	-0.0038
504.5703	-0.0061
504.7689	0.0013
504.9674	0.0015
505.1658	-0.0108
505.3643	0.0034
505.5628	0.0059
505.7612	-0.0013
505.9597	-0.0122
506.1581	-0.0053
506.3565	-0.0014
506.5549	-0.0055
506.7532	-0.0029
506.9516	-0.002
507.1499	-0.0087
507.3482	-0.0099
507.5465	-0.005
507.7448	-0.0045
507.9431	-0.0073
508.1414	-0.0089
508.3396	-0.006
508.5379	-0.0099
508.7361	0.0024
508.9343	-0.0089
509.1325	-0.0138
509.3306	-0.0008
509.5288	-0.0041
509.7269	-0.0111
509.9251	-0.0095
510.1232	-0.0036
510.3213	-0.0074
510.5193	-0.001
510.7174	0.0014
510.9154	-0.0067
511.1135	-0.0063
511.3115	-0.0144
511.5095	-0.009
511.7075	0.0002
511.9055	-0.0074
512.1034	-0.0063
512.3014	-0.0062
512.4993	-0.006
512.6972	-0.0105
512.8951	0.0006
513.093	-0.0115
513.2908	-0.0005
513.4887	-0.0023
513.6865	-0.0043
513.8844	-0.0028
514.0822	0.0054
514.2799	-0.0071
514.4777	-0.0055
514.6755	-0.0059
514.8732	-0.0151
515.0709	-0.0098
515.2687	-0.0055
515.4664	-0.0068
515.664	-0.0099
515.8617	-0.0082
516.0594	-0.0059
516.257	-0.006
516.4546	-0.0109
516.6522	-0.0112
516.8498	-0.0144
517.0474	-0.002
517.2449	-0.0028
517.4425	-0.0036
517.64	-0.0037
517.8375	-0.0078
518.035	-0.0065
518.2325	-0.0102
518.43	0.0031
518.6274	-0.006
518.8249	-0.0031
519.0223	-0.0079
519.2197	-0.002
519.4171	-0.0106
519.6145	-0.0031
519.8118	-0.0159
520.0092	0.0011
520.2065	-0.0118
520.4038	0.0004
520.6011	-0.011
520.7984	-0.0088
520.9956	-0.0111
521.1929	-0.0096
521.3901	-0.0088
521.5874	-0.0041
521.7846	0.0002
521.9818	-0.0069
522.1789	-0.0052
522.3761	-0.011
522.5732	-0.0085
522.7704	-0.0095
522.9675	-0.0028
523.1646	-0.0079
523.3617	-0.0073
523.5587	-0.0078
523.7558	-0.0019
523.9528	-0.0053
524.1498	-0.0064
524.3468	-0.0001
524.5438	-0.0034
524.7408	-0.0136
524.9378	-0.0021
525.1347	0.0068
525.3316	0.0004
525.5285	-0.0015
525.7254	-0.0083
525.9223	0.001
526.1192	-0.0073
526.316	-0.0038
526.5129	-0.0054
526.7097	-0.0143
526.9065	-0.0008
527.1033	-0.0026
527.3	-0.0091
527.4968	-0.0109
527.6935	-0.0028
527.8903	0
528.087	-0.0107
528.2837	-0.0024
528.4804	-0.0037
528.677	-0.007
528.8737	-0.0076
529.0703	0.0035
529.2669	0.0011
529.4635	-0.0059
529.6601	-0.0048
529.8567	-0.0053
530.0532	-0.002
530.2498	-0.0058
530.4463	-0.0027
530.6428	0.0018
530.8393	0.0006
531.0358	-0.0064
531.2322	-0.0044
531.4287	-0.0127
531.6251	-0.0055
531.8215	0.0045
532.0179	-0.01
532.2143	-0.0038
532.4107	-0.0031
532.607	-0.0093
532.8034	-0.0051
532.9997	-0.0107
533.196	-0.0075
533.3923	-0.0006
533.5886	-0.005
533.7848	-0.001
533.9811	-0.0044
534.1773	-0.0049
534.3735	-0.0039
534.5697	-0.0068
534.7659	-0.0073
534.9621	-0.0059
535.1582	-0.0087
535.3544	-0.0109
535.5505	-0.0045
535.7466	-0.0036
535.9427	-0.0013
536.1387	-0.0056
536.3348	0.0013
536.5308	-0.007
536.7269	-0.007
536.9229	-0.0019
537.1189	-0.004
537.3148	-0.0011
537.5108	0.0006
537.7068	-0.0045
537.9027	-0.0085
538.0986	-0.0069
538.2945	-0.0069
538.4904	-0.0091
538.6863	-0.0035
538.8821	-0.0048
539.078	-0.0094
539.2738	-0.0094
539.4696	-0.0088
539.6654	-0.0049
539.8611	-0.0066
540.0569	-0.0073
540.2526	0.004
540.4484	0.002
540.6441	-0.0047
540.8398	-0.0028
541.0355	-0.0061
541.2311	-0.0046
541.4268	0.0037
541.6224	-0.003
541.818	-0.0051
542.0136	-0.009
542.2092	-0.0058
542.4048	-0.0075
542.6003	-0.0036
542.7959	0.0022
542.9914	-0.0081
543.1869	-0.0066
543.3824	-0.0116
543.5779	-0.0079
543.7734	-0.0094
543.9688	-0.0095
544.1642	-0.0032
544.3596	-0.0082
544.555	-0.0024
544.7504	-0.0017
544.9458	-0.0097
545.1411	0.0043
545.3365	-0.0079
545.5318	-0.0014
545.7271	0.0034
545.9224	0.0031
546.1177	-0.0066
546.3129	-0.0014
546.5081	-0.0029
546.7034	-0.0056
546.8986	-0.0091
547.0938	-0.004
547.289	-0.0055
547.4841	-0.0023
547.6793	-0.0056
547.8744	-0.0038
548.0695	-0.0098
548.2646	-0.0066
548.4597	0.0016
548.6548	-0.002
548.8498	-0.0012
549.0448	0.0016
549.2399	-0.0031
549.4349	-0.0066
549.6298	-0.0074
549.8248	0.0054
550.0198	-0.0021
550.2147	-0.0005
550.4096	-0.0075
550.6045	-0.0026
550.7994	0.0014
550.9943	0.0001
551.1892	-0.0042
551.384	-0.0085
551.5788	-0.0097
551.7737	-0.0017
551.9685	-0.0052
552.1632	-0.0034
552.358	-0.0085
552.5528	-0.004
552.7475	-0.0078
552.9422	-0.0122
553.1369	-0.0078
553.3316	-0.0007
553.5263	-0.0031
553.7209	-0.0088
553.9156	-0.0028
554.1102	-0.006
554.3048	-0.0105
554.4994	-0.0006
554.694	-0.0042
554.8885	-0.0072
555.0831	0.0011
555.2776	0.0012
555.4721	-0.0041
555.6666	-0.005
555.8611	-0.0087
556.0555	-0.0105
556.25	-0.0011
556.4444	-0.0069
556.6388	-0.0021
556.8332	-0.0024
557.0276	-0.0089
557.222	-0.0017
557.4163	-0.0014
557.6107	-0.0094
557.805	-0.0051
557.9993	-0.0017
558.1936	-0.0068
558.3879	0.006
558.5821	-0.0076
558.7764	-0.0109
558.9706	-0.0017
559.1648	-0.0028
559.359	-0.0117
559.5532	-0.0003
559.7473	-0.0056
559.9415	-0.0124
560.1356	-0.0085
560.3297	-0.0125
560.5238	-0.0082
560.7179	-0.0027
560.9119	-0
561.106	-0.0027
561.3	-0.0011
561.494	-0.0026
561.688	-0.0009
561.882	-0.0052
562.076	-0.0077
562.2699	-0.0085
562.4639	-0.0042
562.6578	-0.01
562.8517	0.0011
563.0456	-0.0017
563.2395	-0.0014
563.4333	-0.0013
563.6272	-0.0093
563.821	-0.0038
564.0148	0.0037
564.2086	-0.0044
564.4024	-0.0021
564.5961	0.0003
564.7899	0.0004
564.9836	0.0079
565.1773	-0.0054
565.371	-0.0017
565.5647	-0.0006
565.7584	-0.0012
565.952	-0.0025
566.1456	-0.0056
566.3393	-0.0065
566.5329	-0.0047
566.7264	0.0004
566.92	0.0005
567.1136	-0.0069
567.3071	0.0015
567.5006	-0.0026
567.6941	-0.0042
567.8876	0.003
568.0811	0.0002
568.2745	-0.0083
568.468	-0.0086
568.6614	-0.0084
568.8548	-0.0096
569.0482	-0.0074
569.2416	-0.0068
569.4349	-0.0027
569.6283	-0.0093
569.8216	-0.0058
570.0149	-0.0069
570.2082	-0.0042
570.4015	-0.0004
570.5947	-0.0057
570.788	-0.0057
570.9812	-0.0031
571.1744	-0.007
571.3676	-0.0088
571.5608	-0.0049
571.754	-0.0035
571.9471	-0.0078
572.1402	-0.0062
572.3333	-0.0048
572.5264	-0.0022
572.7195	0.0017
572.9126	-0.0004
573.1057	-0.0033
573.2987	-0.0005
573.4917	-0.0033
573.6847	-0.0023
573.8777	-0.0062
574.0707	0.0018
574.2636	-0.0028
574.4566	-0.0059
574.6495	-0.0019
574.8424	-0.0051
575.0353	-0.006
575.2281	-0.0004
575.421	-0.0055
575.6138	-0.0052
575.8067	0.0004
575.9995	-0.0007
576.1923	-0.0052
576.385	-0.0075
576.5778	-0.0037
576.7706	0.0032
576.9633	-0.0024
577.156	0.0041
577.3487	0.001
577.5414	0.0021
577.734	0.0047
577.9267	0.0051
578.1193	-0.0038
578.3119	0.0013
578.5045	-0.0036
578.6971	0.0025
578.8897	-0.0035
579.0822	-0.0024
579.2747	0.004
579.4673	-0.0021
579.6598	-0.0038
579.8522	-0.0026
580.0447	-0.0014
580.2372	0.0024
580.4296	0.0029
580.622	0.0044
580.8144	-0.0028
581.0068	-0.0015
581.1992	0.0002
581.3915	-0.0039
581.5839	-0
581.7762	-0.0005
581.9685	-0.0006
582.1608	-0.0039
582.353	-0.0022
582.5453	-0.0039
582.7375	0.0019
582.9298	-0.007
583.122	-0.0003
583.3142	-0.0008
583.5063	-0.0036
583.6985	-0.0068
583.8906	-0.0022
584.0827	-0.0089
584.2749	-0.0037
584.4669	-0.0037
584.659	-0.0089
584.8511	-0.0025
585.0431	-0.0051
585.2352	-0.0071
585.4272	-0.0064
585.6192	-0.0053
585.8111	-0.0028
586.0031	0.0009
586.195	-0.0055
586.387	-0.0021
586.5789	-0.0012
586.7708	-0.0063
586.9627	-0.0047
587.1545	-0.0049
587.3464	-0.0056
587.5382	-0.0064
587.73	-0.0049
587.9218	-0.0077
588.1136	-0.006
588.3053	-0.0024
588.4971	-0.0045
588.6888	-0.0011
588.8805	-0.0013
589.0722	-0.0053
589.2639	-0.0001
589.4556	0.0004
589.6472	-0.0021
589.8389	-0.0015
590.0305	-0.0029
590.2221	-0.0031
590.4137	-0.0048
590.6052	-0.0052
590.7968	-0.0038
590.9883	-0.0064
591.1798	-0.0079
591.3713	-0.0051
591.5628	-0.0059
591.7543	-0.0032
591.9458	-0.0029
592.1372	-0.004
592.3286	-0.0072
592.52	-0.0067
592.7114	0.0041
592.9028	-0.0074
593.0941	-0.0059
593.2855	0.0001
593.4768	-0.0034
593.6681	-0.0008
593.8594	0.0035
594.0506	0.0022
594.2419	0.0046
594.4331	-0.0041
594.6244	-0.0004
594.8156	-0.0031
595.0067	-0.0037
595.1979	-0.0049
595.3891	-0.0072
595.5802	-0.0074
595.7713	-0.0044
595.9624	0.0007
596.1535	0.001
596.3446	-0.0029
596.5357	0.001
596.7267	-0.0049
596.9177	0.0038
597.1087	0.0041
597.2997	-0.0008
597.4907	-0.0033
597.6817	-0.0069
597.8726	-0.0033
598.0635	-0.0037
598.2544	-0.0027
598.4453	-0.0029
598.6362	-0.0034
598.827	-0.0074
599.0179	-0.0038
599.2087	-0.0102
599.3995	-0.0075
599.5903	0.0031
599.7811	-0.0052
599.9718	-0.0028
600.1626	0.0006
600.3533	-0.0008
600.544	-0.0021
600.7347	-0.0014
600.9254	-0.0003
601.116	-0.0064
601.3067	-0.004
601.4973	-0.0067
601.6879	-0.0034
601.8785	-0.0022
602.0691	-0.0032
602.2596	-0.0068
602.4502	-0.0051
602.6407	0.0011
602.8312	-0.0045
603.0217	-0.0035
603.2122	-0.0058
603.4027	0.0018
603.5931	-0.0088
603.7835	-0.0048
603.9739	-0.0011
604.1643	0.0003
604.3547	-0.0005
604.5451	-0.0016
604.7354	-0.0028
604.9257	-0.0034
605.116	-0.0052
605.3063	0.0013
605.4966	-0.0043
605.6869	-0.0048
605.8771	-0.0045
606.0673	-0.0047
606.2575	-0.0023
606.4477	-0.0041
606.6379	-0.0061
606.8281	-0.007
607.0182	-0.0081
607.2083	-0.005
607.3985	-0.0102
607.5885	-0.0024
607.7786	-0.0019
607.9687	-0.0013
608.1587	-0.003
608.3488	-0.0062
608.5388	0.0025
608.7288	-0.0033
608.9187	-0.0011
609.1087	-0.0027
609.2986	-0.0032
609.4886	-0.0026
609.6785	-0.0033
609.8684	-0.0032
610.0582	-0.0028
610.2481	-0.0036
610.4379	0.0003
610.6278	-0.0004
610.8176	-0.0017
611.0074	-0.0078
611.1971	0.0009
611.3869	-0.0075
611.5766	-0.0019
611.7664	0.0031
611.9561	-0.0016
612.1458	0.0019
612.3354	-0.0102
612.5251	-0.0052
612.7147	-0.0031
612.9044	-0.0054
613.094	-0.0013
613.2836	-0.0021
613.4731	-0.0105
613.6627	-0.0074
613.8522	0.0023
614.0417	-0.0024
614.2313	-0.0032
614.4207	-0.0036
614.6102	-0.0007
614.7997	-0.0019
614.9891	-0.0035
615.1785	-0.0056
615.3679	-0.0017
615.5573	-0.0017
615.7467	0.0019
615.9361	-0.0004
616.1254	-0.0022
616.3147	-0.0037
616.504	-0.0025
616.6933	-0.0028
616.8826	-0.0092
617.0718	-0.0053
617.2611	0
617.4503	0.0008
617.6395	-0.0041
617.8287	0.0006
618.0179	0.0017
618.207	-0.0016
618.3961	-0.0006
618.5853	-0.004
618.7744	0.0004
618.9634	0.0041
619.1525	-0.0035
619.3416	-0.0083
619.5306	-0.004
619.7196	0.0019
619.9086	0.0008
620.0976	-0.0002
620.2866	0.0053
620.4755	-0.0031
620.6645	-0.0018
620.8534	0.0019
621.0423	-0.004
621.2312	-0.0066
621.42	-0.0024
621.6089	-0.0025
621.7977	-0.004
621.9865	0.0019
622.1753	-0.0008
622.3641	0.0027
622.5529	-0.004
622.7416	-0.0036
622.9303	0.003
623.1191	-0.0041
623.3078	0.0049
623.4964	-0.006
623.6851	0.0007
623.8737	-0.0018
624.0624	0.0016
624.251	0.0011
624.4396	-0.0018
624.6282	-0.0026
624.8167	0.0005
625.0053	-0.0051
625.1938	0.0012
625.3823	-0.0015
625.5708	0.0024
625.7593	0.0026
625.9477	-0.0068
626.1362	-0.0011
626.3246	-0.0013
626.513	-0.0041
626.7014	-0.0005
626.8898	-0.0035
627.0781	-0.0044
627.2665	-0.0042
627.4548	-0.0054
627.6431	-0.0038
627.8314	-0.0031
628.0197	-0.0005
628.2079	0.0008
628.3962	0.0007
628.5844	0.006
628.7726	-0.0007
628.9608	-0.0021
629.1489	0.0059
629.3371	-0.0001
629.5252	0.0046
629.7134	-0.0029
629.9015	-0.0013
630.0895	0.0002
630.2776	-0.0023
630.4657	-0.0042
630.6537	0.0003
630.8417	-0.0024
631.0297	-0.0014
631.2177	-0.0049
631.4057	0.0062
631.5936	0.0022
631.7815	-0.0051
631.9695	-0.0039
632.1574	-0.0031
632.3452	-0.0066
632.5331	-0.0026
632.7209	-0.0096
632.9088	-0.0075
633.0966	0.0023
633.2844	-0.0055
633.4722	0.0001
633.6599	-0.0019
633.8477	-0.0094
634.0354	-0.0057
634.2231	-0.0063
634.4108	-0.0014
634.5985	-0.0012
634.7861	-0.0039
634.9738	-0.005
635.1614	-0.009
635.349	-0.0037
635.5366	-0.0053
635.7242	-0.0036
635.9117	0.0045
636.0993	0.0025
636.2868	-0.0008
636.4743	-0.0048
636.6618	-0.0051
636.8492	-0.0005
637.0367	-0.0035
637.2241	-0.0024
637.4115	-0.01
637.5989	-0.0055
637.7863	-0.0013
637.9737	-0.0046
638.161	-0.005
638.3484	-0.0026
638.5357	-0.0018
638.723	-0.0041
638.9103	-0.0016
639.0975	0.0064
639.2848	-0.0045
639.472	0.0013
639.6592	0.0061
639.8464	0.0028
640.0336	-0.0047
640.2208	0.005
640.4079	-0.0069
640.595	0.0008
640.7821	-0.0006
640.9692	0.0003
641.1563	0.0042
641.3434	0.0009
641.5304	-0.0006
641.7174	0.0022
641.9044	-0.0012
642.0914	0.0021
642.2784	0.0036
642.4653	0.0052
642.6523	0.0014
642.8392	0.0014
643.0261	0.004
643.213	0.0046
643.3999	-0.0075
643.5867	0.0002
643.7735	0.0003
643.9604	0.0027
644.1472	0.0026
644.3339	0.0023
644.5207	-0.006
644.7075	-0.0042
644.8942	-0.0023
645.0809	0.0017
645.2676	-0.0101
645.4543	0.0014
645.6409	0.0012
645.8276	-0.0048
646.0142	-0.0061
646.2008	-0.0069
646.3874	-0.0063
646.574	-0.0052
646.7605	0.0013
646.9471	-0.0031
647.1336	-0.0033
647.3201	-0.0058
647.5066	-0.0008
647.6931	0.0021
647.8795	-0.0061
648.0659	-0.0013
648.2524	-0.0027
648.4388	-0.0054
648.6252	0.0008
648.8115	-0.0086
648.9979	-0.0044
649.1842	-0.0118
649.3705	-0.0039
649.5568	-0.0024
649.7431	-0.0059
649.9294	-0.0041
650.1156	-0.006
650.3018	-0.0065
650.488	-0.0053
650.6742	-0.0086
650.8604	-0.001
651.0466	0.0018
651.2327	-0.0016
651.4188	0.002
651.6049	0.0004
651.791	0.0047
651.9771	-0.0021
652.1632	0.0006
652.3492	0.0025
652.5352	-0.0033
652.7212	0.0006
652.9072	0.0035
653.0932	0.0004
653.2791	-0.0007
653.465	0.0002
653.651	-0.0024
653.8369	-0.0035
654.0227	-0
654.2086	0.0003
654.3944	-0.0062
654.5803	-0.008
654.7661	-0.0089
654.9519	-0.0063
655.1377	-0.0025
655.3234	0.0001
655.5092	0.0001
655.6949	0.0001
655.8806	0.0001
656.0663	0.0001
656.2519	0.0001
656.4376	-0.0036
656.6232	-0.0019
656.8088	-0.0059
656.9945	-0.0024
657.18	0.0005
657.3656	0.0001
657.5511	-0.0039
657.7367	-0.0033
657.9222	0.0044
658.1077	-0.0043
658.2932	-0.0006
658.4786	-0.0003
658.6641	-0.0042
658.8495	-0.0057
659.0349	-0.002
659.2203	-0.0057
659.4057	-0.0044
659.591	-0.0022
659.7764	-0.0054
659.9617	-0.0045
660.147	-0.0035
660.3323	-0.0057
660.5176	-0.0106
660.7028	-0.0051
660.888	-0.0058
661.0733	0.001
661.2585	-0.003
661.4436	0.0003
661.6288	-0.0029
661.8139	0.0051
661.9991	-0.0017
662.1842	-0.0024
662.3693	-0.0022
662.5544	0.0009
662.7394	-0.0009
662.9245	0.0013
663.1095	0.0034
663.2945	-0.0013
663.4795	-0.0033
663.6644	-0.0077
663.8494	-0.0064
664.0343	-0.0056
664.2193	-0.0067
664.4042	-0.0124
664.589	-0.0024
664.7739	-0.0026
664.9587	0.0017
665.1436	0.0019
665.3284	-0.0004
665.5132	0.0004
665.698	0.0034
665.8827	0.0017
666.0675	-0.0077
666.2522	-0.0069
666.4369	-0.0067
666.6216	-0.0117
666.8063	-0.0032
666.9909	-0.0078
667.1756	0.0001
667.3602	-0.0087
667.5448	-0.009
667.7294	-0.0024
667.9139	-0.0057
668.0985	-0.0099
668.283	-0.0035
668.4675	-0.0144
668.652	-0.009
668.8365	-0.0092
669.0209	-0.0079
669.2054	-0.0018
669.3898	-0.005
669.5742	-0.0128
669.7586	-0.0072
669.943	-0.0029
670.1273	-0.0074
670.3117	-0.0039
670.496	-0.0072
670.6803	-0.0027
670.8646	-0.0023
671.0488	-0.0018
671.2331	-0.001
671.4173	-0.0008
671.6015	-0.002
671.7857	-0.0058
671.9699	-0.0055
672.1541	-0.005
672.3382	-0.0069
672.5223	-0.0028
672.7064	-0.0066
672.8905	-0.0155
673.0746	-0.0132
673.2587	-0.0156
673.4427	-0.0167
673.6267	-0.0145
673.8107	-0.0162
673.9947	-0.0116
674.1787	-0.0126
674.3626	-0.0089
674.5465	-0.0056
674.7304	0.0016
674.9143	-0.004
675.0982	-0.0052
675.2821	-0.0046
675.4659	-0.0043
675.6497	-0.0038
675.8335	-0.0038
676.0173	-0.0069
676.2011	-0.0078
676.3849	-0.0078
676.5686	-0.0013
676.7523	-0.0007
676.936	0.0015
677.1197	-0.0058
677.3034	-0.0068
677.487	-0.0082
677.6706	-0.0029
677.8542	-0.0018
678.0378	-0.004
678.2214	-0.0052
678.405	-0.005
678.5885	-0.0079
678.772	-0.0039
678.9555	-0.0008
679.139	-0.003
679.3225	-0.0078
679.5059	-0.0054
679.6894	-0.0014
679.8728	-0.0022
680.0562	0.0001
680.2395	-0.0006
680.4229	0.0013
680.6062	-0.0013
680.7896	-0.0013
680.9729	-0.0029
681.1562	0.0019
681.3394	-0.0013
681.5227	-0.0042
681.7059	-0.0006
681.8891	-0.0067
682.0723	-0.003
682.2555	-0.0031
682.4387	-0
682.6218	-0.0069
682.805	-0.0049
682.9881	-0.0024
683.1712	0.0015
683.3542	0.001
683.5373	-0.0057
683.7203	-0.0017
683.9034	-0.0021
684.0864	-0.0084
684.2694	-0.0068
684.4523	-0.003
684.6353	-0.0054
684.8182	-0.0011
685.0011	-0.0024
685.184	-0.0032
685.3669	0.002
685.5498	-0.0019
685.7326	0.0005
685.9154	-0.0064
686.0982	-0.009
686.281	-0.0039
686.4638	-0.006
686.6465	-0.0046
686.8293	-0.0074
687.012	0.0001
687.1947	-0.006
687.3774	-0.0064
687.56	-0.003
687.7427	-0.0036
687.9253	-0.0049
688.1079	0.0034
688.2905	0.0003
688.4731	-0.0045
688.6556	-0.0044
688.8382	-0.0029
689.0207	0.0011
689.2032	0.0015
689.3857	-0.0008
689.5681	-0.0018
689.7506	-0.0023
689.933	-0.0027
690.1154	0.0008
690.2978	0.002
690.4802	-0.0033
690.6626	-0.0007
690.8449	-0.0008
691.0272	0.0067
691.2095	0.0035
691.3918	-0.0019
691.5741	-0.0041
691.7563	0.0005
691.9386	-0.0016
692.1208	-0.0092
692.303	-0.0037
692.4852	0.0011
692.6673	-0.0027
692.8495	-0.0076
693.0316	-0.0021
693.2137	-0.0072
693.3958	-0.0077
693.5778	-0.0001
693.7599	-0.0028
693.9419	-0.0076
694.1239	0.0003
694.3059	-0.0097
694.4879	-0.0018
694.6699	-0.0095
694.8518	-0.0063
695.0337	-0.001
695.2157	-0.0068
695.3975	-0.0082
695.5794	-0.0068
695.7613	-0.0051
695.9431	-0.0037
696.1249	-0.0018
696.3067	-0.0033
696.4885	-0.0037
696.6703	-0.0046
696.852	-0.0057
697.0337	-0.0045
697.2154	0.0032
697.3971	-0.0004
697.5788	-0.0018
697.7605	-0.0019
697.9421	-0.0029
698.1237	-0.0057
698.3053	-0.001
698.4869	-0.0015
698.6685	-0.0063
698.85	-0.0027
699.0315	-0.0034
699.213	-0.0006
699.3945	0.004
699.576	0.0039
699.7575	-0.0005
699.9389	-0.0033
700.1203	-0.0058
700.3017	-0.0105
700.4831	-0.0014
700.6645	-0.0121
700.8458	-0.0026
701.0271	-0.0075
701.2084	-0.0137
701.3897	-0.0048
701.571	-0.0021
701.7523	0.0034
701.9335	0.0026
702.1147	0.0029
702.2959	-0.0048
702.4771	-0.001
702.6583	-0.0058
702.8394	-0.001
703.0205	-0.0005
703.2016	-0.0009
703.3827	0.0043
703.5638	-0.0037
703.7449	-0.0031
703.9259	-0.0035
704.1069	-0.0005
704.2879	0.0015
704.4689	-0.0082
704.6499	-0.0013
704.8308	-0.0052
705.0117	0.0009
705.1927	-0.0039
705.3735	0.0018
705.5544	0.0028
705.7353	0.0014
705.9161	0.0002
706.0969	0.002
706.2777	0.0013
706.4585	-0.0008
706.6393	-0.0055
706.82	-0.0075
707.0007	-0.0032
707.1815	-0.0003
707.3621	-0.0059
707.5428	-0
707.7235	-0.0022
707.9041	-0.0006
708.0847	-0.0007
708.2653	-0.0033
708.4459	-0.0024
708.6265	-0.0045
708.807	-0.003
708.9875	-0.0017
709.168	-0.0061
709.3485	0.0023
709.529	-0.0093
709.7095	-0.004
709.8899	-0.0106
710.0703	-0.0053
710.2507	-0.0085
710.4311	-0.0051
710.6115	0.0055
710.7918	-0.0032
710.9721	0.0015
711.1524	-0.0004
711.3327	0.0023
711.513	-0.0062
711.6932	-0.0076
711.8735	0.0053
712.0537	-0.0006
712.2339	-0.0004
712.4141	-0.0048
712.5942	0.0013
712.7744	0.0022
712.9545	0.0029
713.1346	-0.0029
713.3147	0.0044
713.4947	0.0067
713.6748	-0.0051
713.8548	-0.0106
714.0348	-0.0002
714.2148	-0.0062
714.3948	-0.006
714.5748	-0.0042
714.7547	-0.0085
714.9346	-0.0016
715.1145	-0.0051
715.2944	-0.0003
715.4743	0.0002
715.6541	-0.002
715.834	0.0013
716.0138	-0.0002
716.1936	-0.0005
716.3733	-0.0073
716.5531	-0.0002
716.7328	-0.0016
716.9126	-0.0007
717.0923	0.0024
717.2719	-0.0035
717.4516	-0.0016
717.6312	0.0039
717.8109	0.0028
717.9905	-0.0099
718.1701	-0.0022
718.3496	-0.0033
718.5292	-0.0062
718.7087	-0.0049
718.8882	-0.0005
719.0677	-0.0029
719.2472	-0.0007
719.4267	-0.0117
719.6061	-0.0028
719.7856	-0.0017
719.965	-0.0061
720.1443	-0.0014
720.3237	-0.0027
720.5031	-0.0047
720.6824	-0.0061
720.8617	-0.01
721.041	0.0022
721.2203	-0.0073
721.3995	-0.0031
721.5788	-0.0119
721.758	-0.0018
721.9372	-0.0067
722.1164	-0.0047
722.2956	-0.0055
722.4747	-0.0046
722.6538	-0.0033
722.8329	-0.0077
723.012	-0.0067
723.1911	0.0032
723.3702	0.0062
723.5492	-0.0035
723.7282	-0.0007
723.9072	0.0045
724.0862	0.0005
724.2652	-0.002
724.4441	-0.0081
724.623	-0.0016
724.8019	-0.0038
724.9808	-0.0008
725.1597	0.0004
725.3385	0.0065
725.5174	-0.0006
725.6962	-0.0109
725.875	0.0021
726.0538	0.0017
726.2325	-0.0016
726.4112	-0.0019
726.59	-0.0047
726.7687	-0.0018
726.9474	-0.0046
727.126	-0.0016
727.3047	-0.0027
727.4833	-0.0003
727.6619	-0.0111
727.8405	0.0003
728.0191	0.0004
728.1976	-0.0124
728.3762	-0.0048
728.5547	-0.0022
728.7332	-0.0067
728.9116	-0.0173
729.0901	-0.0108
729.2686	-0.0091
729.447	-0.0106
729.6254	-0.0089
729.8038	-0.0103
729.9821	0.0004
730.1605	-0.0073
730.3388	0.0041
730.5171	-0.0047
730.6954	-0.0035
730.8737	0.0036
731.0519	0.0013
731.2302	0.0021
731.4084	0.0061
731.5866	-0.0004
731.7648	-0.0008
731.9429	0.0033
732.1211	0.0006
732.2992	0.0003
732.4773	-0.0034
732.6554	-0.0063
732.8335	-0.0074
733.0115	-0.007
733.1896	-0.011
733.3676	-0.0031
733.5456	-0.0032
733.7235	-0.004
733.9015	-0.0022
734.0794	-0.0008
734.2574	-0.0026
734.4353	-0.0016
734.6131	-0.0005
734.791	-0.0014
734.9689	-0.0028
735.1467	0.0027
735.3245	-0.0006
735.5023	-0.0005
735.68	0.0018
735.8578	0.003
736.0355	0.0116
736.2132	0.0015
736.3909	-0.0009
736.5686	-0.0025
736.7463	-0.0096
736.9239	-0.0048
737.1015	-0.0051
737.2791	-0.0078
737.4567	-0.0053
737.6343	-0.0059
737.8118	-0.0092
737.9894	-0.0008
738.1669	-0.0032
738.3444	-0.0043
738.5218	0.0003
738.6993	-0.001
738.8767	0.0022
739.0541	-0.0064
739.2315	-0.002
739.4089	0.0019
739.5863	-0.0071
739.7636	-0.0007
739.9409	-0.0022
740.1182	0.0036
740.2955	-0.0015
740.4728	-0.0025
740.65	0.0018
740.8272	0.0003
741.0044	-0.0048
741.1816	0.0017
741.3588	0.0036
741.5359	0.0012
741.7131	0.004
741.8902	0.0028
742.0673	0.0056
742.2444	-0.0011
742.4214	-0.0063
742.5985	-0.0051
742.7755	-0.0041
742.9525	-0.0052
743.1295	-0.0043
743.3064	-0.0015
743.4834	0.0005
743.6603	-0.0055
743.8372	0.0029
744.0141	0.0008
744.191	-0.0066
744.3678	-0.0024
744.5446	0.0013
744.7215	-0.0092
744.8982	0.0044
745.075	0.0038
745.2518	-0.0021
745.4285	-0.0007
745.6052	0.0026
745.7819	-0.0015
745.9586	-0.0052
746.1353	-0.0029
746.3119	0.0027
746.4885	-0.0013
746.6651	-0.006
746.8417	-0.0078
747.0183	-0.0034
747.1948	-0.011
747.3714	-0.0034
747.5479	-0.0032
747.7244	-0.0012
747.9008	-0.0015
748.0773	0.0061
748.2537	0.0006
748.4301	0.0034
748.6065	-0.0021
748.7829	0.0006
748.9593	0.003
749.1356	-0.0041
749.3119	0.0009
749.4882	0.0016
749.6645	-0.0039
749.8408	-0.0042
750.017	-0.0038
750.1933	0.0001
750.3695	-0.006
750.5457	-0.0068
750.7218	-0.0017
750.898	-0.0069
751.0741	-0.0098
751.2502	-0.0079
751.4263	-0.003
751.6024	-0.0053
751.7784	-0.0035
751.9545	-0.0027
752.1305	0.0027
752.3065	-0.0111
752.4825	-0.0033
752.6584	-0.0023
752.8344	-0.0043
753.0103	0.0006
753.1862	0.0052
753.3621	-0.0033
753.5379	-0.0014
753.7138	0.0015
753.8896	-0.0112
754.0654	-0.0086
754.2412	-0.0136
754.417	-0.0104
754.5927	-0.0041
754.7685	-0.0102
754.9442	-0.0065
755.1199	-0.0103
755.2956	-0.0101
755.4712	-0.0028
755.6469	-0.0108
755.8225	-0.0097
755.9981	-0.0027
756.1736	-0.0057
756.3492	-0.005
756.5248	0.002
756.7003	-0.0059
756.8758	-0.0098
757.0513	-0.0107
757.2267	-0.0143
757.4022	-0.0068
757.5776	-0.0116
757.753	-0.0109
757.9284	-0.0052
758.1038	-0.0061
758.2791	-0.0172
758.4545	-0.0071
758.6298	-0.0033
758.8051	-0.0088
758.9803	-0.0116
759.1556	-0.0067
759.3308	-0.0076
759.506	-0.0112
759.6812	-0.006
759.8564	-0.0042
760.0316	-0.0085
760.2067	-0.0127
760.3819	-0.0037
760.557	-0.0105
760.732	-0.0071
760.9071	-0.0106
761.0821	-0.0089
761.2572	-0.0062
761.4322	-0.0135
761.6072	-0.0082
761.7821	-0.0126
761.9571	-0.0139
762.132	-0.0091
762.3069	-0.004
762.4818	0.0006
762.6567	-0.0087
762.8316	-0.0029
763.0064	-0.0001
763.1812	-0.0039
763.356	-0.0039
763.5308	-0.0003
763.7055	0.0028
763.8803	-0.0084
764.055	-0.0016
764.2297	0.0034
764.4044	0.0021
764.579	0.0032
764.7537	-0.0033
764.9283	0.0039
765.1029	-0.0026
765.2775	0.0077
765.4521	0.004
765.6266	0.0037
765.8011	0.006
765.9756	0.0031
766.1501	0.0071
766.3246	-0.0013
766.4991	0.0014
766.6735	-0.0012
766.8479	-0.0069
767.0223	0.0023
767.1967	-0.0055
767.371	-0.0035
767.5454	-0.0065
767.7197	-0.0026
767.894	0.0034
768.0683	0.0033
768.2425	-0.0036
768.4168	-0.0113
768.591	0.0032
768.7652	-0.0022
768.9394	0.0038
769.1135	0.0061
769.2877	0.0057
769.4618	0.0061
769.6359	-0.0053
769.81	-0.0017
769.984	-0.0052
770.1581	-0.0004
770.3321	0.008
770.5061	-0.0069
770.6801	-0.0005
770.8541	0.002
771.028	-0.001
771.202	0.0001
771.3759	-0.0023
771.5498	0.0006
771.7236	0.0008
771.8975	-0.0015
772.0713	0.0064
772.2451	0.0029
772.4189	0.0005
772.5927	-0.0078
772.7665	0.0019
772.9402	0.0023
773.1139	0.004
773.2876	-0.0068
773.4613	-0.0006
773.635	-0.0022
773.8086	-0.0003
773.9822	0.0012
774.1558	0.0026
774.3294	0.0051
774.503	0.0027
774.6765	-0.0075
774.8501	0.004
775.0236	-0.0054
775.1971	-0.0072
775.3705	-0.004
775.544	-0.0051
775.7174	0.0023
775.8908	-0.0042
776.0642	0.0021
776.2376	-0.0035
776.4109	-0.0044
776.5843	0.0006
776.7576	0.0007
776.9309	0.0006
777.1041	-0.0028
777.2774	0.0023
777.4506	0.0031
777.6238	-0.0028
777.797	-0.0016
777.9702	-0.0019
778.1434	0.002
778.3165	0.003
778.4896	-0.0151
778.6627	-0.0051
778.8358	-0.0093
779.0089	0.0042
779.1819	0.0042
779.3549	-0.002
779.5279	-0.0047
779.7009	-0.005
779.8739	0.0028
780.0468	-0.0048
780.2197	-0.0025
780.3926	-0.0037
780.5655	-0.0111
780.7384	-0.0077
780.9112	-0.0033
781.0841	-0.0039
781.2569	0.0014
781.4297	-0.0018
781.6024	-0.0025
781.7752	-0.0019
781.9479	-0.0052
782.1206	0.0032
782.2933	-0.0055
782.466	-0.0016
782.6386	-0.0038
782.8113	-0.0109
782.9839	0.0009
783.1565	-0.0017
783.329	-0.0027
783.5016	-0.0002
783.6741	-0.0086
783.8466	-0.0031
784.0191	-0.0024
784.1916	-0.0005
784.3641	-0.0048
784.5365	0.0002
784.7089	0.0009
784.8813	0.0031
785.0537	0.0171
785.2261	-0.0018
785.3984	-0.0024
785.5707	0.0042
785.743	0.0048
785.9153	0.0002
786.0876	-0.005
786.2598	0.0036
786.432	0.007
786.6042	0.0067
786.7764	0.0049
786.9486	-0.0001
787.1207	-0.0009
787.2928	-0.0026
787.4649	-0.0068
787.637	-0.0052
787.8091	0.0077
787.9811	0.0093
788.1532	0.0014
788.3252	-0.015
788.4972	0.0033
788.6691	0.0016
788.8411	0.0003
789.013	-0.0021
789.1849	0.007
789.3568	0.0003
789.5287	0.0003
789.7005	-0.0028
789.8723	0.0021
790.0442	-0.0145
790.2159	-0.0005
790.3877	0.0019
790.5595	-0.0007
790.7312	0.0047
790.9029	-0.006
791.0746	-0.0133
791.2463	0.0027
791.4179	-0.0086
791.5896	-0.0005
791.7612	-0.0019
791.9328	0.0037
792.1044	-0.0056
792.2759	0.0042
792.4474	0.0047
792.619	-0.0084
792.7905	-0.0075
792.9619	-0.0061
793.1334	-0.0121
793.3048	0.0011
793.4762	-0.0007
793.6476	-0.0228
793.819	-0.0074
793.9904	-0.0067
794.1617	-0.0074
794.333	-0.0121
794.5043	-0.0028
794.6756	0.0079
794.8469	0.006
795.0181	0
795.1893	-0.002
795.3605	-0.0097
795.5317	-0.0083
795.7029	-0.0027
795.874	-0.0057
796.0452	-0.0049
796.2163	-0.0042
796.3873	-0.0071
796.5584	-0.0122
796.7294	-0.0092
796.9005	-0.013
797.0715	-0.0055
797.2425	-0.0068
797.4134	-0.0055
797.5844	-0.0069
797.7553	-0.0074
797.9262	-0.0119
798.0971	-0.0171
798.2679	-0.0064
798.4388	-0.0139
798.6096	-0.0093
798.7804	-0.0129
798.9512	-0.0091
799.122	-0.0006
799.2927	-0.0084
799.4635	-0.0079
799.6342	-0.0135
799.8049	-0.0096
799.9755	-0.0064
800.1462	-0.0191
800.3168	-0.0028
800.4874	-0.0092
800.658	-0.0235
800.8286	-0.0143
800.9991	-0.0166
801.1696	-0.0085
801.3402	-0.0182
801.5106	-0.0182
801.6811	-0.0189
801.8516	-0.0077
802.022	-0.0208
802.1924	-0.0275
802.3628	-0.0209
802.5332	-0.0175
802.7035	-0.0093
802.8739	-0.0126
803.0442	-0.009
803.2145	-0.0062
803.3847	-0.0237
803.555	-0.0151
803.7252	-0.0061
803.8954	-0.0094
804.0656	-0.004
804.2358	-0.0123
804.4059	-0.0079
804.5761	-0.007
804.7462	-0.0105
804.9163	-0.0151
805.0864	-0.0091
805.2564	-0.0058
805.4264	-0.0104
805.5965	-0.0146
805.7665	-0.0117
805.9364	-0.0112
806.1064	-0.0037
806.2763	-0.0074
806.4462	-0.0089
806.6161	-0.0143
806.786	-0.0074
806.9559	-0.0122
807.1257	-0.0007
807.2955	-0.0103
807.4653	-0.0034
807.6351	-0.0122
807.8048	-0.0022
807.9746	-0.0157
808.1443	-0.0035
808.314	0.0043
808.4837	0.0111
808.6533	0.0044
808.8229	0.0017
808.9926	-0.0014
809.1622	-0.012
809.3317	0.0091
809.5013	-0.0028
809.6708	0.0022
809.8403	-0.0056
810.0098	0.0033
810.1793	-0.0067
810.3488	0.0023
810.5182	-0.0082
810.6876	-0.008
810.857	-0.0165
811.0264	-0.0181
811.1958	0.0002
811.3651	-0.0155
811.5344	-0.0005
811.7037	-0.007
811.873	-0.0156
812.0422	-0.0074
812.2115	-0.0133
812.3807	-0.0021
812.5499	0.0046
812.7191	-0.0063
812.8882	-0.0029
813.0574	-0.0043
813.2265	0.0007
813.3956	-0.0003
813.5646	-0.0088
813.7337	-0.0068
813.9027	0.0064
814.0718	-0.0061
814.2407	0.0054
814.4097	-0.0036
814.5787	0.008
814.7476	0.0009
814.9165	0.0025
815.0854	-0.0127
815.2543	0.0039
815.4232	0.0104
815.592	-0.006
815.7608	0.0004
815.9296	-0.0004
816.0984	0.0088
816.2671	0.0003
816.4359	0.0036
816.6046	0.0007
816.7733	-0.0053
816.942	-0.0014
817.1106	0.0014
817.2793	0.0007
817.4479	-0.0154
817.6165	-0.0181
817.785	-0.0075
817.9536	-0.0005
818.1221	0.0027
818.2906	-0.0083
818.4591	-0.0213
818.6276	0.0089
818.7961	0.0052
818.9645	-0.0177
819.1329	0.0081
819.3013	-0.0062
819.4697	0.0015
819.638	-0.0129
819.8064	-0.0044
819.9747	0.0013
820.143	-0.0096
820.3113	0.0036
820.4795	0.0043
820.6477	-0.0067
820.816	-0.0081
820.9842	-0.0093
821.1523	-0.0175
821.3205	-0.0081
821.4886	-0.0004
821.6567	-0.0239
821.8248	-0.0008
821.9929	-0.0127
822.1609	0.0008
822.329	-0.0061
822.497	-0.0113
822.665	-0.0197
822.833	-0.0145
823.0009	-0.0159
823.1688	-0.0135
823.3367	0.004
823.5046	-0.0062
823.6725	-0.0084
823.8404	0.0004
824.0082	-0.0181
824.176	-0.0025
824.3438	0.0067
824.5116	0.0086
824.6793	-0.0218
824.847	-0.0096
825.0147	-0.0055
825.1824	-0.0298
825.3501	-0.0039
825.5177	-0.0231
825.6854	0.017
825.853	-0.0043
826.0206	-0.0077
826.1881	-0.0032
826.3557	-0.0005
826.5232	-0.0078
826.6907	-0.0112
826.8582	-0.0081
827.0257	-0.0176
827.1931	0.014
827.3605	0.0008
827.528	-0.0069
827.6953	0.0012
827.8627	0.0023
828.03	-0.0053
828.1974	0.0041
828.3647	0.0124
828.532	0.0091
828.6992	-0.0006
828.8665	-0.0101
829.0337	-0.0159
829.2009	-0.0141
829.3681	-0.0184
829.5352	-0.0151
829.7024	-0.0038
829.8695	-0.0184
830.0366	-0.0255
830.2037	-0.0015
830.3707	-0.0124
830.5378	-0.0042
830.7048	-0.0206
830.8718	-0.0087
831.0388	-0.0252
831.2057	-0.009
831.3727	-0.0089
831.5396	0.0153
831.7065	0.0062
831.8734	0.0062
832.0402	-0.0022
832.2071	0.0177
832.3739	0.001
832.5407	-0.0032
832.7075	-0.0102
832.8742	0.0113
833.041	0.0232
833.2077	-0.0286
833.3744	0.0014
833.541	0.0099
833.7077	-0.0106
833.8743	0.0038
834.0409	0.0177
834.2075	0.0121
834.3741	0.0021
834.5407	0.0148
834.7072	0.0099
834.8737	-0.0168
835.0402	-0.008
835.2067	-0.0148
835.3731	-0.0209
835.5395	-0.0175
835.706	-0.0296
835.8723	-0.0246
836.0387	-0.0164
836.2051	-0.0212
836.3714	0.0269
836.5377	-0.0045
836.704	0.0194
836.8703	-0.0193
837.0365	-0.0052
837.2027	-0.0016
837.3689	-0.0095
837.5351	-0.0031
837.7013	0.0119
837.8674	0.0163
838.0335	0.0012
838.1997	0.0057
838.3657	0.0152
838.5318	0.0013
838.6978	-0.0171
838.8639	0.0028
839.0299	0.0061
839.1958	0.0166
839.3618	0.0081
839.5277	-0.0202
839.6937	-0.0176
839.8596	-0.004
840.0254	0.0083
840.1913	0.0067
840.3571	-0.0038
840.523	-0.0049
840.6888	0.0008
840.8545	-0.0054
841.0203	-0.0164
841.186	-0.0067
841.3517	0.008
841.5174	-0.0061
841.6831	0.0074
841.8488	0.0182
842.0144	0.0107
842.18	0.0115
842.3456	-0.0014
842.5112	0.0087
842.6767	0.0038
842.8422	0.0154
843.0077	-0.0024
843.1732	-0.0005
843.3387	0.0002
843.5042	0.0177
843.6696	0.0081
843.835	-0.0252
844.0004	0.0026
844.1657	-0.0153
844.3311	0.0149
844.4964	0.0017
844.6617	0.0139
844.827	0.0044
844.9923	0.008
845.1575	0.0032
845.3227	-0.0237
845.4879	0.0057
845.6531	-0.0178
845.8183	-0.0093
845.9834	-0.0072
846.1485	0.0069
846.3136	-0.0418
846.4787	-0.0264
846.6438	0.0065
846.8088	0.0205
846.9738	0.0213
847.1388	0.0138
847.3038	0.0076
847.4687	0.0222
847.6337	0.0296
847.7986	0.0109
847.9635	0.0125
848.1284	-0.0124
848.2932	0.0056
848.458	0.007
848.6228	0.012
848.7876	-0.0242
848.9524	0.0608
849.1172	-0.031
849.2819	0.0331
849.4466	0.0271
849.6113	-0.0016
849.7759	-0.0237
849.9406	-0.0227
850.1052	0.0148
850.2698	0.0163
850.4344	-0.0112
850.599	-0.0446
850.7635	0.0191
850.928	0.0209
851.0925	0.0483
851.257	0.0021
851.4215	-0.0253
851.5859	0.015
851.7503	0.0194
851.9147	0.0112
852.0791	0.0077
852.2434	0.028
852.4078	0.0186
852.5721	-0.0305
852.7364	-0.062
852.9007	0.0396
853.0649	-0.0312
853.2291	-0.0266
853.3934	-0.0202
853.5575	0.0391
853.7217	-0.0214
853.8859	0.0034
854.05	-0.0102
854.2141	-0.0468
854.3782	0.027
854.5423	-0.0348
854.7063	0.0103
854.8703	-0.0003
855.0343	0.012
855.1983	-0.0144
855.3623	0.0348
855.5262	0.0176
855.6901	0.0195
855.854	-0.0003
856.0179	0.0427
856.1818	0.0176
856.3456	-0.0796
856.5094	-0.0255
856.6732	-0.0393
856.837	-0.0195
857.0008	0.0348
857.1645	0.0019
857.3282	0.0039
857.4919	0.0042
857.6556	0.1056
857.8192	0.0173
857.9828	0.0478
858.1465	0.0548
858.31	0.0657
858.4736	-0.0203
858.6372	0.0315
858.8007	0.061
858.9642	-0.0605
859.1277	0.0166
859.2911	0.0386
859.4546	0.0479
859.618	-0.019
859.7814	0.0296
859.9448	-0.0919
860.1081	-0.1254
860.2715	0.0189
860.4348	-0.0142
860.5981	-0.0624
860.7614	-0.1099
860.9246	-0.0422
861.0879	-0.0074
861.2511	0.0696
861.4143	-0.086
861.5774	0.0222
861.7406	0.1372
861.9037	-0.1282
862.0668	0.019
862.2299	0.0581
862.393	0.0524
862.556	0.0708
862.7191	-0.0429
862.8821	0.037
863.0451	0.0838
863.208	-0.1386
863.371	0.1668
863.5339	0.0621
863.6968	-0.0382
863.8597	0.0326
864.0225	-0.142
864.1854	0.1611
864.3482	0.0441
864.511	0.0887
864.6737	0.0122
864.8365	0.0288
864.9992	-0.0301
865.1619	-0.0795
865.3246	-0.0957
865.4873	0.0942
865.65	0.0412
865.8126	0.1095
865.9752	-0.0971
866.1378	0.1221
866.3004	-0.0097
866.4629	-0.0116
866.6254	0.0654
866.7879	-0.0568
866.9504	-0.1061
867.1129	0.0025
867.2753	-0.0988
867.4377	0.0074
867.6001	0.0995
867.7625	0.0195
867.9249	-0.1219
868.0872	-0.0261
868.2495	-0.0979
868.4118	-0.0695
868.5741	-0.2103
868.7363	0.2165
868.8986	-0.0159
869.0608	0.0114
869.223	-0.0601
869.3851	-0.0772
869.5473	0.0264
869.7094	0.9572
869.8715	0.0914
870.0336	-0.2332
870.1957	0.1946
870.3577	0.1161
870.5197	-0.3333
870.6817	0.0728
870.8437	-0.0637
871.0057	0.1301
871.1676	0.0891
871.3295	-0.2237
871.4914	0.0374
871.6533	0.0141
871.8151	0.0093
871.977	0.1051
872.1388	-0.0095
872.3006	0.052
872.4623	0.0758
872.6241	0.0616
872.7858	-0.0018
872.9475	-0.1392
873.1092	-0.1909
873.2709	-0.2799
873.4325	-0.0038
873.5941	-0.2333
873.7557	0.0299
873.9173	-0.2431
874.0789	-0.2236
874.2404	0.0615
874.4019	-0.5275
874.5634	0.0611
874.7249	-0.2835
874.8863	-0.2163
875.0478	-0.3319
875.2092	-0.114
875.3706	0.0995
875.5319	-0.0108
875.6933	0.3224
875.8546	-0.1043
876.0159	0.4375
876.1772	-0.3083
876.3385	-0
876.4997	-0.1282
876.6609	-0.0894
876.8221	-0
876.9833	-0.6305
877.1445	0.6081
877.3056	0.7354
877.4667	-0.8348
877.6278	0.221
877.7889	0.3665
877.9499	-0.4791
878.111	-0.036
878.272	0.1312
878.433	0.1978
878.5939	0.4243
878.7549	-0.2288
878.9158	-0.0501
879.0767	0.1784
879.2376	0.2074
879.3984	-0.0246
879.5593	-0
879.7201	-0
879.8809	0.1443
880.0417	-0.1658
880.2024	-0.0799
880.3632	-0.2615
880.5239	-0
880.6846	-0.0869
880.8452	0.1305
881.0059	0.6103
881.1665	-0
881.3271	-0.3835
881.4877	-0.0457
881.6483	-0
881.8088	0.1193
881.9693	0.3786
882.1298	0.3786
882.2903	0.3786
