Data from MonoPyChalIsomerACN10uM450nmA_Absorbance_13-11-28-491.txt Node
Date: Tue Jul 09 13:11:28 BST 2024
User: LASERRRRR
Spectrometer: FLMT03099
Trigger mode: 0
Integration Time (sec): 2.000000E-1
Scans to average: 1
Electric dark correction enabled: true
Nonlinearity correction enabled: false
Boxcar width: 0
XAxis mode: Wavelengths
Number of Pixels in Spectrum: 3648
>>>>>Begin Spectral Data<<<<<
179.3399	0.9525
179.5586	0.9525
179.7771	0.9525
179.9957	-0.2749
180.2143	-0
180.4329	0.0448
180.6514	-0
180.8699	-0
181.0885	-0
181.307	-0
181.5255	-0
181.744	-0
181.9625	-0
182.181	-0.1933
182.3994	0.0222
182.6179	-0.0447
182.8363	-0
183.0547	-0.0281
183.2732	0.1696
183.4916	0.0847
183.71	0.0472
183.9284	0.0051
184.1467	0.1593
184.3651	0.1098
184.5835	0.0845
184.8018	0.0395
185.0201	0.1756
185.2385	0.0127
185.4568	0.1524
185.6751	0.1098
185.8934	0.0014
186.1117	0.006
186.3299	-0.0701
186.5482	-0.0087
186.7664	-0.027
186.9847	0.0492
187.2029	0.136
187.4211	0.0954
187.6393	-0.0358
187.8575	0.1156
188.0757	0.0097
188.2939	0.0956
188.512	0.0856
188.7302	0.0923
188.9483	0.1261
189.1665	0.1249
189.3846	0.1063
189.6027	0.2104
189.8208	0.0431
190.0389	0.3112
190.257	0.2259
190.475	0.1546
190.6931	0.1047
190.9111	0.2612
191.1292	0.3856
191.3472	0.1845
191.5652	0.4787
191.7832	0.349
192.0012	0.3319
192.2192	0.4775
192.4371	0.4295
192.6551	0.4621
192.873	0.4206
193.091	0.4533
193.3089	0.5314
193.5268	0.5513
193.7447	0.5578
193.9626	0.4444
194.1805	0.5915
194.3984	0.6261
194.6162	0.4813
194.8341	0.6402
195.0519	0.5213
195.2697	0.6184
195.4875	0.5283
195.7054	0.5866
195.9231	0.621
196.1409	0.5967
196.3587	0.5766
196.5765	0.669
196.7942	0.699
197.012	0.6605
197.2297	0.7323
197.4474	0.7247
197.6651	0.7318
197.8828	0.7038
198.1005	0.9276
198.3182	0.7604
198.5358	0.6772
198.7535	0.8276
198.9711	0.805
199.1888	0.7438
199.4064	0.8013
199.624	0.7815
199.8416	0.8078
200.0592	0.7175
200.2767	0.8744
200.4943	0.9636
200.7119	0.7518
200.9294	0.9296
201.1469	0.8528
201.3645	0.8028
201.582	0.9493
201.7995	0.805
202.017	0.8685
202.2344	0.8485
202.4519	1.0363
202.6694	0.8655
202.8868	0.9752
203.1042	1.0026
203.3217	1.0861
203.5391	1.0235
203.7565	0.9465
203.9739	0.867
204.1913	0.8371
204.4086	0.8689
204.626	1.0258
204.8433	0.8815
205.0607	0.9327
205.278	0.9286
205.4953	1.0652
205.7126	0.8829
205.9299	1.0115
206.1472	0.9126
206.3644	0.9918
206.5817	1.0468
206.7989	0.9888
207.0162	1.078
207.2334	0.9533
207.4506	0.9989
207.6678	1.0171
207.885	1.0547
208.1022	0.9819
208.3194	1.0545
208.5365	1.0466
208.7537	1.0521
208.9708	1.0365
209.1879	1.0122
209.405	1.0291
209.6222	1.0482
209.8392	1.1721
210.0563	1.0025
210.2734	1.0669
210.4905	1.0868
210.7075	0.9502
210.9245	1.0126
211.1416	1.1158
211.3586	1.147
211.5756	1.0907
211.7926	0.9981
212.0096	1.0479
212.2265	1.0634
212.4435	1.0952
212.6604	1.0838
212.8774	1.0036
213.0943	0.986
213.3112	0.9809
213.5281	1.0008
213.745	0.9995
213.9619	0.9295
214.1788	0.9759
214.3956	0.9191
214.6125	0.9512
214.8293	0.8912
215.0461	0.8729
215.2629	0.8681
215.4798	0.8558
215.6965	0.789
215.9133	0.8403
216.1301	0.8162
216.3469	0.7883
216.5636	0.7789
216.7803	0.7822
216.9971	0.7653
217.2138	0.6983
217.4305	0.7168
217.6472	0.6716
217.8639	0.6379
218.0805	0.5983
218.2972	0.5626
218.5138	0.5385
218.7305	0.5144
218.9471	0.4644
219.1637	0.4385
219.3803	0.4439
219.5969	0.4109
219.8135	0.3618
220.0301	0.3591
220.2466	0.3556
220.4632	0.3354
220.6797	0.3222
220.8962	0.3071
221.1127	0.3022
221.3292	0.3133
221.5457	0.286
221.7622	0.2833
221.9787	0.2807
222.1951	0.2816
222.4116	0.2804
222.628	0.273
222.8444	0.264
223.0608	0.2684
223.2772	0.2855
223.4936	0.2588
223.71	0.2746
223.9264	0.2754
224.1427	0.2599
224.3591	0.2635
224.5754	0.2793
224.7917	0.2772
225.008	0.2706
225.2243	0.2742
225.4406	0.2901
225.6569	0.2787
225.8732	0.2865
226.0894	0.273
226.3057	0.2683
226.5219	0.2889
226.7381	0.2863
226.9543	0.2858
227.1705	0.2786
227.3867	0.2975
227.6029	0.3004
227.8191	0.2989
228.0352	0.3013
228.2513	0.3113
228.4675	0.2962
228.6836	0.317
228.8997	0.3143
229.1158	0.3304
229.3319	0.3243
229.548	0.3139
229.764	0.3233
229.9801	0.3233
230.1961	0.3362
230.4121	0.335
230.6282	0.3257
230.8442	0.3305
231.0602	0.3359
231.2761	0.3395
231.4921	0.3434
231.7081	0.344
231.924	0.3496
232.14	0.3627
232.3559	0.3711
232.5718	0.3608
232.7877	0.361
233.0036	0.3599
233.2195	0.3528
233.4353	0.3625
233.6512	0.3784
233.867	0.382
234.0829	0.3775
234.2987	0.378
234.5145	0.3739
234.7303	0.3864
234.9461	0.4039
235.1619	0.3799
235.3776	0.3839
235.5934	0.3993
235.8091	0.4
236.0249	0.3782
236.2406	0.4021
236.4563	0.3864
236.672	0.3926
236.8877	0.4061
237.1034	0.4034
237.319	0.4105
237.5347	0.4008
237.7503	0.4059
237.966	0.4111
238.1816	0.4044
238.3972	0.3956
238.6128	0.4107
238.8284	0.4022
239.0439	0.4116
239.2595	0.4221
239.475	0.4194
239.6906	0.4135
239.9061	0.4086
240.1216	0.417
240.3371	0.4161
240.5526	0.4265
240.7681	0.4061
240.9836	0.4171
241.199	0.4089
241.4145	0.4066
241.6299	0.4083
241.8453	0.4085
242.0607	0.3898
242.2761	0.3956
242.4915	0.3858
242.7069	0.3863
242.9223	0.3765
243.1376	0.3688
243.353	0.3571
243.5683	0.3634
243.7836	0.3469
243.9989	0.3412
244.2142	0.3361
244.4295	0.3387
244.6448	0.3312
244.86	0.3273
245.0753	0.3101
245.2905	0.3024
245.5057	0.3113
245.721	0.3084
245.9362	0.2878
246.1514	0.2941
246.3665	0.2853
246.5817	0.2798
246.7969	0.2886
247.012	0.27
247.2271	0.2684
247.4423	0.266
247.6574	0.2704
247.8725	0.2592
248.0876	0.2567
248.3026	0.2525
248.5177	0.2542
248.7328	0.2438
248.9478	0.2419
249.1628	0.2478
249.3779	0.2269
249.5929	0.2264
249.8079	0.236
250.0228	0.2217
250.2378	0.2353
250.4528	0.2206
250.6677	0.2293
250.8827	0.2166
251.0976	0.212
251.3125	0.2191
251.5274	0.2048
251.7423	0.2153
251.9572	0.2145
252.172	0.2163
252.3869	0.2096
252.6017	0.203
252.8166	0.2082
253.0314	0.2086
253.2462	0.2068
253.461	0.2063
253.6758	0.1975
253.8906	0.198
254.1053	0.2054
254.3201	0.2027
254.5348	0.2073
254.7496	0.2032
254.9643	0.199
255.179	0.2009
255.3937	0.2046
255.6083	0.1956
255.823	0.195
256.0377	0.187
256.2523	0.1927
256.467	0.194
256.6816	0.1895
256.8962	0.2001
257.1108	0.2023
257.3254	0.1952
257.54	0.1988
257.7545	0.1876
257.9691	0.1964
258.1836	0.1879
258.3981	0.1919
258.6127	0.1965
258.8272	0.1938
259.0417	0.1926
259.2561	0.1952
259.4706	0.1897
259.6851	0.1939
259.8995	0.1951
260.114	0.1954
260.3284	0.2016
260.5428	0.1974
260.7572	0.1995
260.9716	0.1967
261.186	0.1998
261.4003	0.2091
261.6147	0.1955
261.829	0.2003
262.0433	0.1951
262.2577	0.198
262.472	0.2022
262.6863	0.186
262.9005	0.201
263.1148	0.1915
263.3291	0.1842
263.5433	0.1863
263.7576	0.1949
263.9718	0.1952
264.186	0.1875
264.4002	0.1909
264.6144	0.1895
264.8286	0.1833
265.0427	0.188
265.2569	0.1768
265.471	0.1849
265.6851	0.18
265.8993	0.1788
266.1134	0.1784
266.3275	0.1772
266.5415	0.1758
266.7556	0.1871
266.9697	0.1842
267.1837	0.1773
267.3978	0.184
267.6118	0.1909
267.8258	0.1894
268.0398	0.1922
268.2538	0.1941
268.4677	0.1976
268.6817	0.1907
268.8957	0.1997
269.1096	0.1826
269.3235	0.1853
269.5374	0.1755
269.7514	0.1657
269.9652	0.1693
270.1791	0.1583
270.393	0.1664
270.6068	0.1505
270.8207	0.1547
271.0345	0.1622
271.2483	0.1565
271.4622	0.1526
271.676	0.15
271.8897	0.1505
272.1035	0.139
272.3173	0.149
272.531	0.1519
272.7448	0.1506
272.9585	0.1438
273.1722	0.1417
273.3859	0.1365
273.5996	0.1447
273.8133	0.1446
274.0269	0.1503
274.2406	0.1441
274.4542	0.1462
274.6679	0.1478
274.8815	0.151
275.0951	0.1474
275.3087	0.1414
275.5223	0.1401
275.7358	0.1529
275.9494	0.1615
276.1629	0.1443
276.3765	0.1485
276.59	0.1499
276.8035	0.1515
277.017	0.1522
277.2305	0.1476
277.444	0.1498
277.6574	0.1508
277.8709	0.152
278.0843	0.1505
278.2978	0.1513
278.5112	0.1493
278.7246	0.1444
278.938	0.1503
279.1513	0.15
279.3647	0.1471
279.5781	0.1539
279.7914	0.1521
280.0047	0.1524
280.2181	0.153
280.4314	0.1534
280.6447	0.1588
280.8579	0.1518
281.0712	0.1599
281.2845	0.1484
281.4977	0.1568
281.711	0.1576
281.9242	0.1538
282.1374	0.1569
282.3506	0.1471
282.5638	0.1604
282.7769	0.1647
282.9901	0.1493
283.2033	0.1615
283.4164	0.1582
283.6295	0.1626
283.8426	0.1563
284.0557	0.1552
284.2688	0.1563
284.4819	0.1497
284.695	0.1533
284.908	0.1592
285.1211	0.1597
285.3341	0.1577
285.5471	0.1618
285.7601	0.1582
285.9731	0.1558
286.1861	0.1559
286.3991	0.1629
286.612	0.1589
286.825	0.158
287.0379	0.1613
287.2508	0.1573
287.4637	0.1591
287.6766	0.1562
287.8895	0.1622
288.1024	0.1598
288.3152	0.1554
288.5281	0.1612
288.7409	0.1519
288.9538	0.1593
289.1666	0.1572
289.3794	0.1586
289.5922	0.1626
289.8049	0.1599
290.0177	0.1651
290.2304	0.1553
290.4432	0.1563
290.6559	0.1559
290.8686	0.1549
291.0813	0.1604
291.294	0.1621
291.5067	0.1548
291.7194	0.1584
291.932	0.1581
292.1447	0.1565
292.3573	0.1616
292.5699	0.1703
292.7825	0.1621
292.9951	0.1581
293.2077	0.1556
293.4203	0.1598
293.6328	0.1639
293.8454	0.1534
294.0579	0.1526
294.2704	0.1573
294.4829	0.1592
294.6954	0.156
294.9079	0.1564
295.1204	0.1551
295.3328	0.1616
295.5453	0.1509
295.7577	0.1527
295.9701	0.1564
296.1825	0.1614
296.3949	0.1497
296.6073	0.1596
296.8197	0.1555
297.0321	0.153
297.2444	0.1534
297.4567	0.1488
297.6691	0.1466
297.8814	0.1486
298.0937	0.1555
298.306	0.1556
298.5182	0.1464
298.7305	0.1569
298.9428	0.1487
299.155	0.1572
299.3672	0.1494
299.5794	0.1532
299.7916	0.1548
300.0038	0.1491
300.216	0.1581
300.4282	0.1536
300.6403	0.1515
300.8525	0.1652
301.0646	0.1573
301.2767	0.154
301.4888	0.1486
301.7009	0.155
301.913	0.1619
302.125	0.1543
302.3371	0.1569
302.5491	0.1515
302.7612	0.1547
302.9732	0.1626
303.1852	0.1504
303.3972	0.1515
303.6092	0.1513
303.8211	0.1571
304.0331	0.1525
304.245	0.1533
304.457	0.1473
304.6689	0.1516
304.8808	0.1503
305.0927	0.1533
305.3046	0.1411
305.5164	0.1478
305.7283	0.1508
305.9401	0.1422
306.152	0.1468
306.3638	0.1512
306.5756	0.1413
306.7874	0.1422
306.9992	0.1343
307.2109	0.1301
307.4227	0.1329
307.6344	0.1286
307.8462	0.1285
308.0579	0.1243
308.2696	0.1259
308.4813	0.1282
308.693	0.125
308.9046	0.1161
309.1163	0.1241
309.328	0.1171
309.5396	0.1135
309.7512	0.1227
309.9628	0.1172
310.1744	0.1285
310.386	0.1081
310.5976	0.1171
310.8091	0.1123
311.0207	0.1224
311.2322	0.1187
311.4437	0.1174
311.6552	0.1124
311.8667	0.1085
312.0782	0.1093
312.2897	0.1084
312.5012	0.1134
312.7126	0.1033
312.924	0.1047
313.1355	0.1047
313.3469	0.1097
313.5583	0.112
313.7696	0.1034
313.981	0.1055
314.1924	0.1078
314.4037	0.0999
314.6151	0.0873
314.8264	0.1034
315.0377	0.102
315.249	0.1057
315.4603	0.1092
315.6716	0.1073
315.8828	0.103
316.0941	0.0996
316.3053	0.0977
316.5165	0.0893
316.7277	0.0957
316.9389	0.101
317.1501	0.0924
317.3613	0.0963
317.5724	0.0961
317.7836	0.0995
317.9947	0.1001
318.2058	0.0946
318.417	0.0941
318.6281	0.1026
318.8391	0.0942
319.0502	0.0918
319.2613	0.0946
319.4723	0.0919
319.6834	0.0967
319.8944	0.1029
320.1054	0.0943
320.3164	0.1028
320.5274	0.1041
320.7383	0.0884
320.9493	0.097
321.1602	0.1012
321.3712	0.1076
321.5821	0.0991
321.793	0.0852
322.0039	0.1007
322.2148	0.0952
322.4257	0.1002
322.6365	0.093
322.8474	0.0985
323.0582	0.1094
323.269	0.0978
323.4798	0.104
323.6906	0.1072
323.9014	0.1006
324.1122	0.1042
324.3229	0.1079
324.5337	0.0921
324.7444	0.0992
324.9551	0.1036
325.1658	0.0992
325.3765	0.1038
325.5872	0.0985
325.7979	0.104
326.0085	0.1048
326.2192	0.1106
326.4298	0.112
326.6404	0.1047
326.851	0.0955
327.0616	0.0981
327.2722	0.1091
327.4828	0.1061
327.6933	0.104
327.9039	0.1044
328.1144	0.1113
328.3249	0.1058
328.5354	0.1026
328.7459	0.0997
328.9564	0.1076
329.1669	0.1069
329.3773	0.1107
329.5878	0.1109
329.7982	0.1137
330.0086	0.1147
330.219	0.1116
330.4294	0.1008
330.6398	0.104
330.8502	0.1106
331.0605	0.1102
331.2708	0.1071
331.4812	0.1097
331.6915	0.1053
331.9018	0.1068
332.1121	0.109
332.3224	0.108
332.5326	0.1032
332.7429	0.1128
332.9531	0.1077
333.1633	0.1173
333.3735	0.1144
333.5837	0.1042
333.7939	0.1083
334.0041	0.1079
334.2143	0.1065
334.4244	0.1051
334.6346	0.1088
334.8447	0.1116
335.0548	0.1128
335.2649	0.1036
335.475	0.1072
335.685	0.1119
335.8951	0.1129
336.1051	0.1019
336.3152	0.113
336.5252	0.1112
336.7352	0.1138
336.9452	0.1094
337.1552	0.1137
337.3652	0.1103
337.5751	0.1163
337.7851	0.1119
337.995	0.1153
338.2049	0.1083
338.4148	0.1142
338.6247	0.1081
338.8346	0.1112
339.0445	0.118
339.2543	0.1101
339.4642	0.1163
339.674	0.1041
339.8838	0.1102
340.0936	0.1149
340.3034	0.1213
340.5132	0.1178
340.7229	0.1223
340.9327	0.1223
341.1424	0.1232
341.3522	0.1147
341.5619	0.1225
341.7716	0.1204
341.9813	0.1198
342.1909	0.1241
342.4006	0.115
342.6102	0.1193
342.8199	0.1206
343.0295	0.1257
343.2391	0.1292
343.4487	0.1234
343.6583	0.1203
343.8679	0.1211
344.0774	0.1261
344.287	0.1327
344.4965	0.1175
344.706	0.1326
344.9155	0.1245
345.125	0.1347
345.3345	0.135
345.544	0.1192
345.7534	0.1235
345.9629	0.1311
346.1723	0.134
346.3817	0.137
346.5911	0.1302
346.8005	0.133
347.0099	0.122
347.2193	0.1315
347.4286	0.1414
347.638	0.135
347.8473	0.1287
348.0566	0.1378
348.2659	0.1231
348.4752	0.1335
348.6845	0.1338
348.8937	0.1377
349.103	0.1394
349.3122	0.1426
349.5214	0.1403
349.7306	0.1355
349.9398	0.13
350.149	0.1353
350.3582	0.1294
350.5674	0.1461
350.7765	0.1401
350.9856	0.1432
351.1948	0.1364
351.4039	0.1464
351.613	0.1314
351.822	0.1465
352.0311	0.1438
352.2402	0.1444
352.4492	0.1369
352.6582	0.1475
352.8672	0.145
353.0762	0.1483
353.2852	0.1551
353.4942	0.1561
353.7032	0.1476
353.9121	0.1582
354.1211	0.1457
354.33	0.1444
354.5389	0.149
354.7478	0.1538
354.9567	0.1468
355.1655	0.1466
355.3744	0.1565
355.5833	0.154
355.7921	0.1495
356.0009	0.152
356.2097	0.1473
356.4185	0.1501
356.6273	0.1576
356.8361	0.1473
357.0448	0.1585
357.2536	0.153
357.4623	0.1564
357.671	0.1544
357.8797	0.1675
358.0884	0.1669
358.2971	0.1627
358.5057	0.1622
358.7144	0.1575
358.923	0.1789
359.1316	0.1659
359.3402	0.168
359.5488	0.1586
359.7574	0.1764
359.966	0.1712
360.1746	0.172
360.3831	0.1789
360.5916	0.1666
360.8002	0.1716
361.0087	0.1738
361.2172	0.1735
361.4256	0.173
361.6341	0.1655
361.8426	0.1813
362.051	0.1769
362.2594	0.1783
362.4678	0.1852
362.6762	0.1761
362.8846	0.1825
363.093	0.1743
363.3014	0.1829
363.5097	0.1755
363.718	0.1953
363.9264	0.1806
364.1347	0.1899
364.343	0.175
364.5513	0.1774
364.7595	0.1887
364.9678	0.1855
365.176	0.1836
365.3842	0.1835
365.5925	0.1914
365.8007	0.1878
366.0089	0.1939
366.217	0.1927
366.4252	0.193
366.6333	0.19
366.8415	0.1887
367.0496	0.1876
367.2577	0.1994
367.4658	0.1891
367.6739	0.1965
367.882	0.199
368.09	0.1955
368.2981	0.2033
368.5061	0.1856
368.7141	0.1989
368.9221	0.2012
369.1301	0.2119
369.3381	0.2072
369.5461	0.2016
369.754	0.1982
369.962	0.2032
370.1699	0.2044
370.3778	0.2047
370.5857	0.219
370.7936	0.202
371.0015	0.2057
371.2093	0.2031
371.4172	0.2099
371.625	0.2054
371.8328	0.2198
372.0406	0.2147
372.2484	0.2083
372.4562	0.2034
372.664	0.2148
372.8717	0.2089
373.0795	0.211
373.2872	0.2146
373.4949	0.2104
373.7026	0.2185
373.9103	0.2156
374.118	0.2199
374.3256	0.2246
374.5333	0.2112
374.7409	0.2117
374.9485	0.2176
375.1561	0.218
375.3637	0.2196
375.5713	0.2205
375.7789	0.211
375.9864	0.2224
376.194	0.2235
376.4015	0.2234
376.609	0.2288
376.8165	0.2074
377.024	0.2107
377.2315	0.2251
377.4389	0.2273
377.6464	0.2134
377.8538	0.2171
378.0612	0.2241
378.2686	0.2224
378.476	0.2199
378.6834	0.2269
378.8908	0.2264
379.0981	0.2339
379.3055	0.2306
379.5128	0.2211
379.7201	0.2224
379.9274	0.2324
380.1347	0.2385
380.342	0.2312
380.5492	0.2322
380.7565	0.2356
380.9637	0.2421
381.1709	0.2353
381.3781	0.2274
381.5853	0.2385
381.7925	0.2268
381.9997	0.2294
382.2068	0.2365
382.4139	0.2352
382.6211	0.2299
382.8282	0.2282
383.0353	0.2401
383.2424	0.2457
383.4494	0.2446
383.6565	0.2294
383.8635	0.2383
384.0706	0.2379
384.2776	0.2356
384.4846	0.2457
384.6916	0.2393
384.8986	0.2456
385.1055	0.2413
385.3125	0.2502
385.5194	0.2482
385.7263	0.2417
385.9333	0.2379
386.1402	0.2411
386.347	0.2564
386.5539	0.2385
386.7608	0.2425
386.9676	0.2371
387.1744	0.2346
387.3813	0.2406
387.5881	0.2378
387.7948	0.2442
388.0016	0.2242
388.2084	0.2381
388.4151	0.2333
388.6219	0.2367
388.8286	0.2432
389.0353	0.2329
389.242	0.2285
389.4487	0.2232
389.6553	0.2191
389.862	0.2302
390.0686	0.2255
390.2753	0.2231
390.4819	0.232
390.6885	0.2218
390.8951	0.2283
391.1016	0.234
391.3082	0.2289
391.5147	0.2212
391.7213	0.2231
391.9278	0.2219
392.1343	0.2224
392.3408	0.2151
392.5473	0.2188
392.7537	0.2198
392.9602	0.2082
393.1666	0.2157
393.373	0.2225
393.5794	0.2181
393.7858	0.2047
393.9922	0.2043
394.1986	0.2127
394.4049	0.2095
394.6113	0.213
394.8176	0.1972
395.0239	0.2006
395.2302	0.2083
395.4365	0.214
395.6428	0.2083
395.8491	0.1928
396.0553	0.2055
396.2615	0.1963
396.4678	0.2067
396.674	0.197
396.8802	0.1992
397.0863	0.1975
397.2925	0.1949
397.4987	0.2003
397.7048	0.1971
397.9109	0.2064
398.117	0.1903
398.3231	0.2044
398.5292	0.1968
398.7353	0.1957
398.9413	0.2008
399.1474	0.2031
399.3534	0.1854
399.5594	0.1978
399.7654	0.195
399.9714	0.1941
400.1774	0.2028
400.3833	0.1988
400.5893	0.2041
400.7952	0.1881
401.0011	0.1952
401.207	0.1905
401.4129	0.1975
401.6188	0.1842
401.8247	0.1922
402.0305	0.1912
402.2364	0.1913
402.4422	0.1941
402.648	0.1989
402.8538	0.2029
403.0596	0.192
403.2654	0.1785
403.4711	0.1917
403.6768	0.1976
403.8826	0.1939
404.0883	0.1946
404.294	0.1937
404.4997	0.1928
404.7054	0.1815
404.911	0.1953
405.1167	0.1907
405.3223	0.1859
405.5279	0.2006
405.7335	0.1865
405.9391	0.1981
406.1447	0.1961
406.3502	0.1908
406.5558	0.1927
406.7613	0.1854
406.9668	0.197
407.1724	0.1926
407.3778	0.1958
407.5833	0.1894
407.7888	0.197
407.9942	0.1896
408.1997	0.1931
408.4051	0.1885
408.6105	0.2029
408.8159	0.2037
409.0213	0.197
409.2267	0.2007
409.432	0.1864
409.6374	0.1921
409.8427	0.2109
410.048	0.1945
410.2533	0.1875
410.4586	0.1974
410.6639	0.1838
410.8691	0.1846
411.0744	0.1885
411.2796	0.1979
411.4848	0.1848
411.69	0.2004
411.8952	0.1914
412.1004	0.187
412.3056	0.206
412.5107	0.2074
412.7158	0.1808
412.921	0.1919
413.1261	0.1876
413.3312	0.1986
413.5362	0.1967
413.7413	0.1858
413.9464	0.1918
414.1514	0.1817
414.3564	0.196
414.5614	0.1967
414.7664	0.1955
414.9714	0.1827
415.1764	0.1871
415.3813	0.1909
415.5863	0.1813
415.7912	0.1946
415.9961	0.1917
416.201	0.1921
416.4059	0.1917
416.6108	0.1851
416.8156	0.1891
417.0205	0.1826
417.2253	0.1973
417.4301	0.1882
417.6349	0.1914
417.8397	0.1837
418.0445	0.1844
418.2492	0.1823
418.454	0.1786
418.6587	0.1788
418.8634	0.1732
419.0681	0.1855
419.2728	0.1834
419.4775	0.1752
419.6822	0.178
419.8868	0.1704
420.0915	0.1921
420.2961	0.1815
420.5007	0.182
420.7053	0.1705
420.9099	0.168
421.1144	0.185
421.319	0.1648
421.5235	0.1811
421.728	0.1675
421.9325	0.1639
422.137	0.1637
422.3415	0.1773
422.546	0.1722
422.7504	0.1769
422.9549	0.1745
423.1593	0.1697
423.3637	0.1694
423.5681	0.1905
423.7725	0.1603
423.9769	0.1721
424.1812	0.1555
424.3856	0.1625
424.5899	0.1748
424.7942	0.1594
424.9985	0.1623
425.2028	0.153
425.4071	0.1499
425.6113	0.1671
425.8156	0.1492
426.0198	0.1683
426.224	0.1543
426.4282	0.1501
426.6324	0.1578
426.8366	0.1557
427.0407	0.1563
427.2449	0.1537
427.449	0.1547
427.6531	0.1441
427.8572	0.1495
428.0613	0.1445
428.2654	0.1374
428.4694	0.1557
428.6735	0.1521
428.8775	0.146
429.0815	0.15
429.2855	0.1543
429.4895	0.1327
429.6935	0.1364
429.8975	0.1387
430.1014	0.1331
430.3053	0.1227
430.5093	0.1386
430.7132	0.1419
430.9171	0.1199
431.1209	0.142
431.3248	0.1278
431.5286	0.1278
431.7325	0.1255
431.9363	0.13
432.1401	0.1306
432.3439	0.1182
432.5477	0.1243
432.7514	0.1169
432.9552	0.1132
433.1589	0.1099
433.3627	0.1162
433.5664	0.1121
433.7701	0.1061
433.9737	0.0963
434.1774	0.1089
434.3811	0.0965
434.5847	0.1164
434.7883	0.1045
434.9919	0.0957
435.1955	0.0889
435.3991	0.0949
435.6027	0.1014
435.8062	0.1049
436.0098	0.0973
436.2133	0.0991
436.4168	0.0982
436.6203	0.0933
436.8238	0.0887
437.0272	0.083
437.2307	0.0918
437.4341	0.0901
437.6375	0.0861
437.841	0.0745
438.0443	0.0844
438.2477	0.0859
438.4511	0.0826
438.6545	0.0755
438.8578	0.0801
439.0611	0.0721
439.2644	0.0851
439.4677	0.0768
439.671	0.069
439.8743	0.0804
440.0775	0.0616
440.2808	0.0529
440.484	0.0655
440.6872	0.0596
440.8904	0.0577
441.0936	0.0657
441.2967	0.0647
441.4999	0.0557
441.703	0.0462
441.9062	0.057
442.1093	0.0517
442.3124	0.0555
442.5155	0.0591
442.7185	0.0411
442.9216	0.0558
443.1246	0.0506
443.3276	0.0493
443.5307	0.0354
443.7337	0.0633
443.9366	0.0613
444.1396	0.0491
444.3426	0.0436
444.5455	0.04
444.7484	0.0451
444.9513	0.0432
445.1542	0.0453
445.3571	0.039
445.56	0.0357
445.7628	0.0333
445.9657	0.0487
446.1685	0.0453
446.3713	0.035
446.5741	0.0425
446.7769	0.0337
446.9797	0.0375
447.1824	0.0302
447.3852	0.0401
447.5879	0.0265
447.7906	0.0255
447.9933	0.0293
448.196	0.0371
448.3986	0.0274
448.6013	0.0247
448.8039	0.0313
449.0066	0.0229
449.2092	0.0229
449.4118	0.0255
449.6143	0.016
449.8169	0.0134
450.0195	0.0218
450.222	0.0082
450.4245	0.0191
450.627	0.0269
450.8295	0.0163
451.032	0.0291
451.2345	0.0148
451.4369	0.022
451.6394	0.0136
451.8418	0.0182
452.0442	0.0141
452.2466	0.016
452.449	0.0145
452.6513	0.0132
452.8537	0.0206
453.056	0.0182
453.2583	0.0178
453.4607	0.0142
453.663	0.0161
453.8652	0.007
454.0675	0.0118
454.2697	0.0184
454.472	0.0133
454.6742	0.0166
454.8764	0.0124
455.0786	0.007
455.2808	0.0109
455.4829	0.0048
455.6851	-0.0072
455.8872	0.0077
456.0893	0.0038
456.2915	0.0046
456.4935	0.0079
456.6956	0.0142
456.8977	0.0101
457.0997	0.0049
457.3018	0.0051
457.5038	0.0078
457.7058	0.0045
457.9078	0.001
458.1098	0.0093
458.3117	-0.0052
458.5137	0.0157
458.7156	0.005
458.9175	-0.0008
459.1194	0.0076
459.3213	0.0037
459.5232	0.0077
459.725	0.0014
459.9269	0.0069
460.1287	-0.001
460.3305	0.0089
460.5323	0.0155
460.7341	0.0016
460.9359	0.0042
461.1376	0.0036
461.3394	0.0008
461.5411	0.0052
461.7428	-0.0107
461.9445	-0.0017
462.1462	-0.0054
462.3479	-0.006
462.5495	0.0072
462.7512	-0.001
462.9528	-0.0005
463.1544	-0.0068
463.356	0.0023
463.5576	-0.0125
463.7592	-0.0012
463.9607	-0.0006
464.1623	-0.0066
464.3638	0.0036
464.5653	-0.0063
464.7668	0.0029
464.9683	0.0089
465.1697	0.005
465.3712	0.0038
465.5726	-0.0035
465.7741	-0.0033
465.9755	-0.009
466.1769	-0.0104
466.3782	-0.0022
466.5796	-0.0106
466.7809	-0.0115
466.9823	-0.0065
467.1836	-0.0002
467.3849	0.005
467.5862	-0.0053
467.7875	-0.0011
467.9887	-0.0011
468.19	-0.0032
468.3912	0.0026
468.5924	0.0024
468.7936	-0.0076
468.9948	0.0147
469.196	-0.0101
469.3972	0.0022
469.5983	0.0083
469.7994	-0.0053
470.0006	-0.0141
470.2017	0.0015
470.4027	-0.0003
470.6038	-0.0036
470.8049	-0.0011
471.0059	-0.0023
471.2069	0.0053
471.408	-0.0028
471.6089	-0.0017
471.8099	-0.009
472.0109	-0.0058
472.2119	-0.0175
472.4128	-0.0002
472.6137	-0.0101
472.8146	-0.0077
473.0155	-0.0058
473.2164	-0.0121
473.4173	-0.014
473.6181	0.0077
473.819	-0.0039
474.0198	-0.0073
474.2206	0.0005
474.4214	-0.0047
474.6222	-0.0052
474.8229	-0.0183
475.0237	-0.0036
475.2244	0.0032
475.4251	-0.0069
475.6258	0.0022
475.8265	-0.002
476.0272	-0.0085
476.2278	0.0013
476.4285	-0.0067
476.6291	0.0007
476.8297	-0.0031
477.0303	-0.0096
477.2309	-0.0021
477.4315	0.0038
477.632	-0.0087
477.8326	-0.0033
478.0331	0.0003
478.2336	0.0023
478.4341	-0.0128
478.6346	0.0021
478.8351	-0.0033
479.0355	-0.0053
479.236	-0.007
479.4364	-0.0094
479.6368	0.0013
479.8372	-0.0074
480.0376	-0.0088
480.2379	-0.0026
480.4383	-0.0006
480.6386	-0.015
480.8389	-0.0159
481.0392	-0.01
481.2395	-0.0145
481.4398	0.0024
481.6401	-0.0099
481.8403	-0.0085
482.0405	-0.0103
482.2408	0.0006
482.441	-0.0013
482.6411	0.0057
482.8413	-0.0088
483.0415	-0.0089
483.2416	-0.0036
483.4417	-0.0097
483.6419	-0.0029
483.8419	-0.0077
484.042	-0.0044
484.2421	-0.0096
484.4422	-0.0132
484.6422	-0.0113
484.8422	-0.0131
485.0422	-0.0084
485.2422	-0.0045
485.4422	-0.0066
485.6422	-0.0034
485.8421	-0.0044
486.042	-0.004
486.242	-0.0081
486.4419	-0.0071
486.6417	-0.0074
486.8416	-0.0029
487.0415	-0.0054
487.2413	-0.0094
487.4411	-0.006
487.641	-0.0047
487.8408	-0.0034
488.0405	-0.0059
488.2403	-0.0046
488.4401	-0.0081
488.6398	-0.0108
488.8395	-0.0078
489.0392	-0.0061
489.2389	-0.0008
489.4386	-0.008
489.6383	-0.0061
489.8379	-0.0054
490.0376	-0.0085
490.2372	-0.0096
490.4368	-0.0151
490.6364	0.0016
490.836	-0.0104
491.0355	-0.0072
491.2351	-0.0101
491.4346	-0.0121
491.6341	-0.0111
491.8336	-0.0105
492.0331	-0.0086
492.2326	-0.0104
492.432	-0.0004
492.6315	-0.0083
492.8309	-0.0008
493.0303	-0.0051
493.2297	-0.0082
493.4291	-0.0075
493.6284	-0.0001
493.8278	-0.0079
494.0271	-0.0037
494.2264	-0.0064
494.4257	-0.0025
494.625	-0.0064
494.8243	-0.0107
495.0236	-0.0131
495.2228	-0.0078
495.422	-0.0072
495.6213	-0.0082
495.8205	-0.0067
496.0196	-0.0119
496.2188	-0.0057
496.418	-0.0014
496.6171	-0.0054
496.8162	-0.0104
497.0153	-0.0032
497.2144	-0.0055
497.4135	-0.0026
497.6126	-0.0137
497.8116	0.0002
498.0107	0.0001
498.2097	-0.0047
498.4087	-0.0103
498.6077	-0.0107
498.8067	-0.0111
499.0056	-0.001
499.2046	-0.004
499.4035	-0.0066
499.6024	-0.0101
499.8013	-0.004
500.0002	-0.0084
500.199	-0.0052
500.3979	-0.0049
500.5967	-0.0153
500.7956	-0.0082
500.9944	-0.0096
501.1932	-0.0101
501.3919	-0.0104
501.5907	-0.0103
501.7895	0.0022
501.9882	-0.0117
502.1869	-0.0071
502.3856	-0.0036
502.5843	-0.0113
502.783	-0.0123
502.9816	-0.0098
503.1803	-0.0023
503.3789	-0
503.5775	0.0001
503.7761	-0.0071
503.9747	-0.0078
504.1732	-0.0052
504.3718	0
504.5703	-0.0099
504.7689	-0.0065
504.9674	-0.001
505.1658	-0.0043
505.3643	-0.0073
505.5628	0.0053
505.7612	-0.0039
505.9597	-0.0099
506.1581	-0.0008
506.3565	-0.0077
506.5549	0.0011
506.7532	-0.008
506.9516	-0.001
507.1499	-0.0075
507.3482	-0.0061
507.5465	-0.0069
507.7448	-0.0092
507.9431	-0.0068
508.1414	-0.0084
508.3396	-0.001
508.5379	-0.0014
508.7361	0.0047
508.9343	-0.0085
509.1325	-0.0046
509.3306	0.0044
509.5288	0.0001
509.7269	-0.0073
509.9251	-0.0049
510.1232	-0.0042
510.3213	-0.0066
510.5193	-0.0029
510.7174	-0.0026
510.9154	-0.0061
511.1135	-0.0042
511.3115	-0.0078
511.5095	-0.0136
511.7075	0.0004
511.9055	-0.0071
512.1034	-0.0138
512.3014	-0.0056
512.4993	-0.0057
512.6972	-0.0022
512.8951	-0.0069
513.093	-0.0088
513.2908	-0.0043
513.4887	-0.0042
513.6865	-0.0045
513.8844	-0.0012
514.0822	-0.0015
514.2799	-0.0098
514.4777	-0.0047
514.6755	-0.0047
514.8732	-0.0097
515.0709	-0.0063
515.2687	-0.0059
515.4664	-0.0077
515.664	-0.0026
515.8617	-0.0144
516.0594	-0.0071
516.257	-0.0033
516.4546	-0.0112
516.6522	-0.0063
516.8498	-0.0121
517.0474	-0.0002
517.2449	-0.0078
517.4425	-0.0036
517.64	-0.0006
517.8375	-0.0147
518.035	-0.0031
518.2325	-0.0066
518.43	0.0019
518.6274	-0.0102
518.8249	-0.003
519.0223	-0.0121
519.2197	0.0015
519.4171	-0.0004
519.6145	-0.0029
519.8118	-0.0101
520.0092	-0.0045
520.2065	-0.0129
520.4038	-0.0044
520.6011	-0.0107
520.7984	-0.0082
520.9956	-0.0052
521.1929	-0.0101
521.3901	-0.0099
521.5874	-0.0043
521.7846	0.0039
521.9818	-0.007
522.1789	-0.0077
522.3761	-0.0073
522.5732	-0.0038
522.7704	0.0005
522.9675	-0.0104
523.1646	-0.0046
523.3617	-0.001
523.5587	-0.0046
523.7558	0.0014
523.9528	-0.0121
524.1498	-0.0042
524.3468	-0.002
524.5438	-0.0041
524.7408	-0.0128
524.9378	-0.0079
525.1347	0.0022
525.3316	-0.0017
525.5285	-0.004
525.7254	-0.0109
525.9223	0.0006
526.1192	-0.0018
526.316	0.0015
526.5129	-0.0141
526.7097	-0.0058
526.9065	-0.002
527.1033	-0.0014
527.3	-0.011
527.4968	-0.0146
527.6935	-0.003
527.8903	-0.0049
528.087	-0.011
528.2837	-0.009
528.4804	-0.0064
528.677	-0.005
528.8737	-0.0096
529.0703	-0.0032
529.2669	0.0024
529.4635	-0.0154
529.6601	0.0008
529.8567	-0.0062
530.0532	-0.0001
530.2498	-0.0081
530.4463	-0.0002
530.6428	-0.0041
530.8393	-0.0043
531.0358	-0.0131
531.2322	-0.0068
531.4287	-0.0138
531.6251	-0.0094
531.8215	0
532.0179	-0.0034
532.2143	0.0019
532.4107	0.0007
532.607	-0.0075
532.8034	-0.0077
532.9997	-0.0028
533.196	-0.0051
533.3923	0.0049
533.5886	-0.0031
533.7848	-0.0013
533.9811	-0.0009
534.1773	-0.0089
534.3735	-0.0001
534.5697	-0.0062
534.7659	-0.0041
534.9621	-0.0059
535.1582	-0.0084
535.3544	-0.0095
535.5505	-0.0085
535.7466	-0.006
535.9427	0.0024
536.1387	0.0004
536.3348	0.0037
536.5308	-0.007
536.7269	0.0014
536.9229	0.0027
537.1189	-0.0073
537.3148	-0.0002
537.5108	0.0018
537.7068	-0.0074
537.9027	-0.0106
538.0986	-0.0046
538.2945	-0.0077
538.4904	-0.0063
538.6863	-0.0099
538.8821	-0.0051
539.078	-0.0104
539.2738	-0.0141
539.4696	-0.0069
539.6654	-0.0061
539.8611	-0.0004
540.0569	-0.0039
540.2526	-0.005
540.4484	0.0073
540.6441	0.0005
540.8398	-0.0097
541.0355	-0.005
541.2311	0.0002
541.4268	0.0046
541.6224	0.0014
541.818	-0.0072
542.0136	-0.007
542.2092	-0.0126
542.4048	-0.0055
542.6003	-0.0057
542.7959	-0.002
542.9914	-0.0067
543.1869	-0.0069
543.3824	-0.0068
543.5779	-0.0062
543.7734	-0.0037
543.9688	-0.0113
544.1642	-0.0055
544.3596	-0.0114
544.555	-0.0049
544.7504	-0.0025
544.9458	-0.0016
545.1411	0.0068
545.3365	-0.0096
545.5318	0.004
545.7271	0.0038
545.9224	-0.0043
546.1177	-0.0065
546.3129	-0.0016
546.5081	-0.0008
546.7034	-0.0103
546.8986	-0.0077
547.0938	-0.0045
547.289	-0.0055
547.4841	-0.01
547.6793	-0.0005
547.8744	-0.0055
548.0695	-0.008
548.2646	-0.0066
548.4597	0.0003
548.6548	-0.0056
548.8498	-0.0078
549.0448	0.0051
549.2399	0.0038
549.4349	-0.0053
549.6298	-0.0069
549.8248	-0.0036
550.0198	-0.0051
550.2147	-0.0035
550.4096	-0.0042
550.6045	-0.0052
550.7994	-0.0001
550.9943	-0.0012
551.1892	-0.0062
551.384	-0.0059
551.5788	-0.0075
551.7737	-0.0061
551.9685	-0.0093
552.1632	0.0003
552.358	-0.0106
552.5528	-0.0009
552.7475	-0.0072
552.9422	-0.0053
553.1369	-0.013
553.3316	-0.0009
553.5263	0.0004
553.7209	-0.0061
553.9156	-0.003
554.1102	-0.01
554.3048	-0.0075
554.4994	-0.009
554.694	-0.0017
554.8885	-0.0079
555.0831	-0.0011
555.2776	0.0006
555.4721	-0.0095
555.6666	-0.0072
555.8611	-0.0077
556.0555	-0.0107
556.25	-0.0046
556.4444	-0.0064
556.6388	-0.0136
556.8332	-0.0056
557.0276	-0.0039
557.222	-0.0042
557.4163	-0.0017
557.6107	-0.007
557.805	-0.0059
557.9993	-0.0035
558.1936	-0.0091
558.3879	0.0044
558.5821	-0.0065
558.7764	-0.0106
558.9706	-0.0053
559.1648	-0.0023
559.359	-0.0082
559.5532	-0.0008
559.7473	-0.0107
559.9415	-0.012
560.1356	-0.006
560.3297	-0.0105
560.5238	-0.0029
560.7179	-0.0045
560.9119	0.0022
561.106	0.0002
561.3	-0.0004
561.494	-0.002
561.688	-0.0072
561.882	-0.0073
562.076	-0.005
562.2699	-0.0066
562.4639	-0.0012
562.6578	-0.0112
562.8517	-0.0048
563.0456	-0.0016
563.2395	-0.0064
563.4333	-0.0076
563.6272	-0.0071
563.821	-0.0026
564.0148	0.0021
564.2086	-0.0041
564.4024	-0.0022
564.5961	0.001
564.7899	0.0021
564.9836	-0.0007
565.1773	-0.0002
565.371	-0.0003
565.5647	-0.0049
565.7584	-0.0011
565.952	0.0046
566.1456	-0.0073
566.3393	-0.005
566.5329	-0.0002
566.7264	-0.0036
566.92	-0.0032
567.1136	-0.0038
567.3071	0.003
567.5006	0.0038
567.6941	-0.0036
567.8876	-0.0004
568.0811	-0.0033
568.2745	-0.011
568.468	-0.007
568.6614	-0.0067
568.8548	-0.0083
569.0482	-0.0026
569.2416	-0.0062
569.4349	-0.005
569.6283	-0.0071
569.8216	-0.0068
570.0149	-0.0065
570.2082	-0.0026
570.4015	-0.005
570.5947	-0.0044
570.788	-0.0069
570.9812	-0.0044
571.1744	-0.0125
571.3676	-0.0058
571.5608	-0.0008
571.754	-0.0089
571.9471	-0.0051
572.1402	0.0007
572.3333	-0.0005
572.5264	0.0017
572.7195	-0.0029
572.9126	-0.0041
573.1057	-0.0041
573.2987	0.0007
573.4917	-0.0027
573.6847	-0.0032
573.8777	-0.0065
574.0707	-0.0019
574.2636	-0.0079
574.4566	-0.0048
574.6495	-0.0037
574.8424	-0.0043
575.0353	-0.0049
575.2281	0.0036
575.421	-0.0071
575.6138	-0.0034
575.8067	-0.0031
575.9995	-0.0008
576.1923	-0.0024
576.385	-0.0025
576.5778	-0
576.7706	-0.0004
576.9633	-0.0042
577.156	-0.0022
577.3487	-0.0032
577.5414	0.0021
577.734	0.0024
577.9267	0.0027
578.1193	-0.0048
578.3119	-0.0047
578.5045	-0.0061
578.6971	-0.0042
578.8897	-0.004
579.0822	-0.0055
579.2747	-0.0002
579.4673	-0.0024
579.6598	-0.0026
579.8522	-0.0036
580.0447	-0.0035
580.2372	-0.0031
580.4296	0.0053
580.622	0.0022
580.8144	-0.0042
581.0068	-0.0032
581.1992	0.0029
581.3915	-0.003
581.5839	-0.0019
581.7762	-0.0043
581.9685	0.0017
582.1608	-0.0058
582.353	0.0009
582.5453	-0.0073
582.7375	0.0008
582.9298	-0.0066
583.122	-0.0012
583.3142	0.0016
583.5063	-0.0029
583.6985	-0.0049
583.8906	-0.0023
584.0827	-0.0083
584.2749	-0.006
584.4669	-0.0068
584.659	-0.0073
584.8511	-0.0025
585.0431	-0.0063
585.2352	-0.0064
585.4272	-0.0069
585.6192	-0.0072
585.8111	-0.001
586.0031	0.0006
586.195	-0.0051
586.387	-0
586.5789	-0.0056
586.7708	-0.0073
586.9627	-0.0043
587.1545	-0.0056
587.3464	-0.0035
587.5382	-0.0048
587.73	-0.0038
587.9218	-0.0051
588.1136	0.0012
588.3053	-0.0022
588.4971	-0.0038
588.6888	-0.0014
588.8805	-0.0078
589.0722	0.0011
589.2639	-0.0038
589.4556	-0.0052
589.6472	-0.0066
589.8389	-0.0034
590.0305	-0.0092
590.2221	-0.0054
590.4137	-0.0063
590.6052	0.0001
590.7968	-0.0032
590.9883	-0.0053
591.1798	-0.006
591.3713	0.0011
591.5628	-0.0056
591.7543	-0.0011
591.9458	-0.0023
592.1372	-0.0019
592.3286	-0.0028
592.52	-0.0056
592.7114	0.005
592.9028	-0.005
593.0941	-0.0011
593.2855	0.0004
593.4768	-0.0028
593.6681	-0.0027
593.8594	0.005
594.0506	0.0016
594.2419	0.0019
594.4331	0.0001
594.6244	-0.0031
594.8156	-0.0048
595.0067	-0.0015
595.1979	-0.0024
595.3891	-0.0066
595.5802	-0.0074
595.7713	0.0002
595.9624	0.0018
596.1535	0.0033
596.3446	-0.0038
596.5357	0.0001
596.7267	-0.0046
596.9177	-0.0003
597.1087	-0.0045
597.2997	-0.0004
597.4907	-0.0063
597.6817	-0.0035
597.8726	-0.0035
598.0635	-0.004
598.2544	-0.0099
598.4453	-0.0038
598.6362	-0.0052
598.827	-0.0083
599.0179	-0.004
599.2087	-0.0094
599.3995	-0.0072
599.5903	0.0013
599.7811	-0.0057
599.9718	-0.005
600.1626	0.001
600.3533	-0.0042
600.544	-0.0065
600.7347	0.0044
600.9254	-0.0013
601.116	-0.0052
601.3067	-0.0049
601.4973	-0.0065
601.6879	-0.0034
601.8785	-0.0061
602.0691	-0
602.2596	-0.0019
602.4502	-0.0051
602.6407	-0.0031
602.8312	-0.0047
603.0217	-0.0034
603.2122	-0.0021
603.4027	-0.0013
603.5931	-0.0085
603.7835	-0.0004
603.9739	-0.0021
604.1643	-0.0029
604.3547	-0.0023
604.5451	-0.0034
604.7354	-0.0046
604.9257	-0.0034
605.116	-0.0021
605.3063	0.0016
605.4966	-0.0031
605.6869	-0.0024
605.8771	-0.0039
606.0673	-0.0019
606.2575	-0.0033
606.4477	-0.0046
606.6379	-0.0081
606.8281	-0.0108
607.0182	-0.0055
607.2083	-0.0062
607.3985	-0.0113
607.5885	-0.005
607.7786	-0.0042
607.9687	-0.0015
608.1587	-0.008
608.3488	-0.0041
608.5388	-0.0005
608.7288	-0.0051
608.9187	-0.0032
609.1087	-0.0044
609.2986	-0.0042
609.4886	-0.0003
609.6785	-0.0028
609.8684	-0.0014
610.0582	-0.0038
610.2481	-0.0003
610.4379	-0.0008
610.6278	-0.002
610.8176	0.001
611.0074	-0.006
611.1971	0.0012
611.3869	0.0009
611.5766	-0.0018
611.7664	0.0037
611.9561	-0.0024
612.1458	0.0031
612.3354	-0.0055
612.5251	-0.0056
612.7147	-0.0016
612.9044	-0.005
613.094	-0.0026
613.2836	0.002
613.4731	-0.0058
613.6627	-0.0049
613.8522	-0.0016
614.0417	-0.0031
614.2313	-0.0047
614.4207	-0.0028
614.6102	0.0034
614.7997	-0.0069
614.9891	-0.0023
615.1785	-0.0058
615.3679	-0.0006
615.5573	-0.0032
615.7467	-0.0014
615.9361	-0.0028
616.1254	-0.0013
616.3147	-0.0048
616.504	-0.0045
616.6933	-0.0016
616.8826	-0.0071
617.0718	-0.0078
617.2611	0.0011
617.4503	0.0018
617.6395	-0.0015
617.8287	-0.0019
618.0179	-0.0033
618.207	-0.0018
618.3961	-0.0036
618.5853	-0.0012
618.7744	0.0019
618.9634	0.003
619.1525	-0.0008
619.3416	-0.0107
619.5306	0.0014
619.7196	0.0028
619.9086	-0.0019
620.0976	-0.0001
620.2866	-0.0011
620.4755	-0.004
620.6645	-0.0059
620.8534	-0.006
621.0423	-0.0058
621.2312	-0.0036
621.42	-0.0027
621.6089	-0.0005
621.7977	-0.0005
621.9865	-0.0012
622.1753	-0.0002
622.3641	-0.0004
622.5529	-0.0009
622.7416	-0.0014
622.9303	0.0071
623.1191	-0.0007
623.3078	0.0024
623.4964	0.002
623.6851	0.0071
623.8737	-0.0024
624.0624	-0.0016
624.251	0.0012
624.4396	0.0005
624.6282	-0.0008
624.8167	0.0023
625.0053	-0.0012
625.1938	0.0041
625.3823	0
625.5708	-0.0013
625.7593	-0.0013
625.9477	-0.0075
626.1362	-0.003
626.3246	-0.0026
626.513	-0.0069
626.7014	-0.0051
626.8898	-0.0094
627.0781	-0.0055
627.2665	-0.0036
627.4548	-0.0053
627.6431	-0.0048
627.8314	-0.0057
628.0197	-0.0038
628.2079	0.0002
628.3962	0.0003
628.5844	0.0016
628.7726	0.0015
628.9608	0.0019
629.1489	0.0059
629.3371	0.001
629.5252	0.0044
629.7134	-0.0027
629.9015	-0.0011
630.0895	0.0008
630.2776	-0.0045
630.4657	-0.0001
630.6537	-0.0027
630.8417	-0.0002
631.0297	0.0021
631.2177	0.0019
631.4057	0.0016
631.5936	-0.0015
631.7815	-0.0044
631.9695	-0.0026
632.1574	-0.0073
632.3452	-0.0064
632.5331	-0.0048
632.7209	-0.0013
632.9088	-0.0066
633.0966	-0.005
633.2844	-0.0069
633.4722	0
633.6599	0.0021
633.8477	-0.004
634.0354	-0.0065
634.2231	-0.0068
634.4108	-0.0035
634.5985	-0.0044
634.7861	-0.0069
634.9738	-0.0049
635.1614	-0.0043
635.349	-0.0038
635.5366	-0.0055
635.7242	-0.0039
635.9117	-0.0015
636.0993	-0.006
636.2868	0.0016
636.4743	-0.0044
636.6618	-0.0059
636.8492	-0.0017
637.0367	-0.0027
637.2241	-0.0055
637.4115	-0.0036
637.5989	-0.0037
637.7863	-0.0043
637.9737	-0.0033
638.161	-0.0029
638.3484	-0.0025
638.5357	0.0011
638.723	-0.0013
638.9103	-0.0043
639.0975	0.0015
639.2848	-0.003
639.472	0.0066
639.6592	0.0008
639.8464	-0.0013
640.0336	-0.0035
640.2208	0.0001
640.4079	-0.0035
640.595	0.0024
640.7821	0.0008
640.9692	0.0012
641.1563	0.0015
641.3434	-0.0014
641.5304	-0.0021
641.7174	0.0026
641.9044	0.0033
642.0914	0.0028
642.2784	0.0044
642.4653	0.0053
642.6523	-0.0017
642.8392	0.0044
643.0261	0.006
643.213	-0.001
643.3999	-0.0018
643.5867	-0.0011
643.7735	0.0012
643.9604	-0.0021
644.1472	-0.0047
644.3339	0.0001
644.5207	-0.0009
644.7075	-0.0025
644.8942	-0.0045
645.0809	-0.0004
645.2676	-0.0061
645.4543	-0.0012
645.6409	0.0012
645.8276	-0.0009
646.0142	-0.0052
646.2008	-0.0064
646.3874	0.0003
646.574	-0.0053
646.7605	-0.0012
646.9471	-0.0074
647.1336	-0.0035
647.3201	-0.0046
647.5066	-0.0029
647.6931	0.0023
647.8795	-0.0066
648.0659	-0.003
648.2524	-0.0046
648.4388	-0.004
648.6252	-0.0009
648.8115	-0.0135
648.9979	-0.007
649.1842	-0.0131
649.3705	-0.003
649.5568	-0.0003
649.7431	-0.0031
649.9294	-0.0067
650.1156	-0.0045
650.3018	-0.0066
650.488	-0.0051
650.6742	-0.0097
650.8604	-0.0001
651.0466	0.0003
651.2327	0.0009
651.4188	0.0003
651.6049	0.0063
651.791	-0.0004
651.9771	-0.0029
652.1632	0.0043
652.3492	-0.0011
652.5352	-0.0026
652.7212	0.0004
652.9072	0.001
653.0932	0.0024
653.2791	-0.0023
653.465	-0.0015
653.651	-0.0059
653.8369	-0.0032
654.0227	0.0013
654.2086	-0.0005
654.3944	-0.0102
654.5803	-0.0074
654.7661	-0.006
654.9519	-0.0021
655.1377	-0.003
655.3234	-0.0001
655.5092	-0.0001
655.6949	-0.0001
655.8806	-0.0001
656.0663	-0.0001
656.2519	-0.0001
656.4376	-0.0047
656.6232	-0.0039
656.8088	-0.0033
656.9945	-0.0036
657.18	0.0011
657.3656	-0.0053
657.5511	-0.009
657.7367	-0.0022
657.9222	0.0003
658.1077	0.0012
658.2932	-0.0006
658.4786	-0.0001
658.6641	-0.0011
658.8495	-0.0037
659.0349	-0.0033
659.2203	-0.0072
659.4057	-0.0076
659.591	-0
659.7764	-0.0022
659.9617	-0.0108
660.147	-0.0051
660.3323	-0.0022
660.5176	-0.0102
660.7028	-0.0077
660.888	-0.0026
661.0733	0.0041
661.2585	-0.0076
661.4436	0.0008
661.6288	-0.006
661.8139	0.0019
661.9991	-0.002
662.1842	-0
662.3693	-0.0034
662.5544	-0.0043
662.7394	-0.0038
662.9245	0.0013
663.1095	0.0057
663.2945	-0.005
663.4795	-0.0008
663.6644	-0.0047
663.8494	-0.0049
664.0343	-0.0051
664.2193	-0.0069
664.4042	-0.0094
664.589	-0.0024
664.7739	-0.0043
664.9587	0.0027
665.1436	0.0025
665.3284	-0.0044
665.5132	0.0006
665.698	0.0057
665.8827	-0.0026
666.0675	-0.0021
666.2522	-0.0083
666.4369	-0.0079
666.6216	-0.0089
666.8063	-0.0083
666.9909	-0.0106
667.1756	-0.0042
667.3602	-0.0104
667.5448	-0.0104
667.7294	-0.0085
667.9139	-0.007
668.0985	-0.0125
668.283	-0.0095
668.4675	-0.0162
668.652	-0.0086
668.8365	-0.0082
669.0209	-0.01
669.2054	-0.0057
669.3898	-0.0104
669.5742	-0.0079
669.7586	-0.0024
669.943	-0.0039
670.1273	-0.0071
670.3117	-0.0048
670.496	-0.0066
670.6803	-0.0013
670.8646	-0.0068
671.0488	-0.0001
671.2331	-0.0039
671.4173	-0.0026
671.6015	-0.0044
671.7857	-0.0069
671.9699	-0.0046
672.1541	-0.0089
672.3382	-0.0068
672.5223	-0.0048
672.7064	-0.007
672.8905	-0.011
673.0746	-0.0113
673.2587	-0.0146
673.4427	-0.0156
673.6267	-0.0077
673.8107	-0.0146
673.9947	-0.0141
674.1787	-0.0114
674.3626	-0.0068
674.5465	-0.0039
674.7304	0.001
674.9143	-0.0056
675.0982	0.0009
675.2821	-0.0041
675.4659	-0.0035
675.6497	0.0009
675.8335	-0.0052
676.0173	-0.0074
676.2011	-0.0017
676.3849	-0.006
676.5686	0.0027
676.7523	0.0018
676.936	0.0033
677.1197	-0.0028
677.3034	-0.0073
677.487	-0.0052
677.6706	-0.004
677.8542	-0.0009
678.0378	-0.0003
678.2214	-0.009
678.405	-0.0021
678.5885	-0.0064
678.772	-0.0058
678.9555	0.0004
679.139	-0.0075
679.3225	-0.0059
679.5059	-0.0058
679.6894	-0.0001
679.8728	-0.0005
680.0562	-0.0027
680.2395	-0.0049
680.4229	0.0014
680.6062	0.0016
680.7896	-0.0003
680.9729	-0.0033
681.1562	-0.0008
681.3394	0.0017
681.5227	-0.0035
681.7059	-0.003
681.8891	-0.0033
682.0723	-0.0092
682.2555	-0.0053
682.4387	-0.0041
682.6218	-0.0044
682.805	-0.0052
682.9881	0.0012
683.1712	0.0032
683.3542	-0.0008
683.5373	-0.0057
683.7203	-0.0034
683.9034	-0.0027
684.0864	-0.0049
684.2694	-0.0054
684.4523	-0.0029
684.6353	-0.0024
684.8182	-0.0014
685.0011	-0.0065
685.184	-0.0036
685.3669	-0.0036
685.5498	-0.0007
685.7326	-0.0026
685.9154	-0.0053
686.0982	-0.0034
686.281	-0.0099
686.4638	-0.0038
686.6465	-0.0003
686.8293	-0.0049
687.012	-0.0094
687.1947	-0.0033
687.3774	-0.0048
687.56	-0.007
687.7427	-0.0051
687.9253	-0.0028
688.1079	0.0059
688.2905	-0.0036
688.4731	-0.0063
688.6556	-0.0033
688.8382	0.0001
689.0207	-0.0016
689.2032	-0.0049
689.3857	-0.0014
689.5681	-0.0009
689.7506	0.0011
689.933	-0.0015
690.1154	0.0011
690.2978	-0.0021
690.4802	-0.0022
690.6626	0.0063
690.8449	0.004
691.0272	0.0019
691.2095	0.0011
691.3918	-0.0007
691.5741	-0.0037
691.7563	-0.0005
691.9386	-0.0072
692.1208	-0.0001
692.303	-0.0032
692.4852	-0.0051
692.6673	0.0018
692.8495	-0.0052
693.0316	-0.0057
693.2137	-0.007
693.3958	-0.0008
693.5778	-0.0037
693.7599	-0.0094
693.9419	-0.0092
694.1239	-0.0091
694.3059	-0.0076
694.4879	-0.0071
694.6699	-0.0087
694.8518	-0.0066
695.0337	-0.0081
695.2157	-0.0056
695.3975	-0.0078
695.5794	-0.0045
695.7613	-0.0067
695.9431	-0.0052
696.1249	-0.0009
696.3067	-0.0029
696.4885	0.0001
696.6703	-0.0026
696.852	-0.0067
697.0337	0.0015
697.2154	-0.0019
697.3971	-0.0101
697.5788	-0.0055
697.7605	-0.0039
697.9421	-0.0035
698.1237	-0.0048
698.3053	-0.0019
698.4869	0.0013
698.6685	-0.0015
698.85	-0.0079
699.0315	-0.0033
699.213	0.0002
699.3945	0.004
699.576	0.0069
699.7575	-0.0019
699.9389	0.001
700.1203	-0.0037
700.3017	-0.0056
700.4831	-0.0037
700.6645	-0.0083
700.8458	-0.0089
701.0271	0.0016
701.2084	-0.0097
701.3897	-0.0043
701.571	-0.0032
701.7523	-0.0012
701.9335	0.0001
702.1147	0.0022
702.2959	-0.0031
702.4771	0.0005
702.6583	-0.0027
702.8394	-0.0037
703.0205	-0.0004
703.2016	-0.0033
703.3827	0.004
703.5638	-0.0119
703.7449	-0.0056
703.9259	-0.0072
704.1069	0.0015
704.2879	0.0029
704.4689	-0.0065
704.6499	-0.0048
704.8308	-0.0054
705.0117	-0.0033
705.1927	-0.0037
705.3735	-0.0006
705.5544	0.0005
705.7353	0.0001
705.9161	-0.0025
706.0969	0.0016
706.2777	-0.0003
706.4585	-0.0017
706.6393	-0.0077
706.82	-0.0028
707.0007	-0.005
707.1815	-0.0051
707.3621	-0.0027
707.5428	-0.0054
707.7235	-0.0033
707.9041	-0.0003
708.0847	-0.0059
708.2653	-0.0066
708.4459	-0.0053
708.6265	-0.0078
708.807	-0.0013
708.9875	-0.0009
709.168	-0.01
709.3485	-0.0068
709.529	-0.0024
709.7095	-0.0042
709.8899	-0.006
710.0703	0.0016
710.2507	-0.0037
710.4311	-0.0043
710.6115	-0.0005
710.7918	-0.0048
710.9721	0.0015
711.1524	0.0028
711.3327	-0.0033
711.513	-0.003
711.6932	-0.0073
711.8735	0.0019
712.0537	-0.0067
712.2339	0.0004
712.4141	-0.002
712.5942	0.0027
712.7744	0.0052
712.9545	-0.0049
713.1346	-0.0032
713.3147	0.0062
713.4947	0.0004
713.6748	0.0002
713.8548	-0.0067
714.0348	-0.0028
714.2148	-0.0048
714.3948	-0.0072
714.5748	-0.0121
714.7547	-0.0059
714.9346	-0.0034
715.1145	-0.0004
715.2944	0.0001
715.4743	-0.0017
715.6541	-0.0038
715.834	-0.0016
716.0138	0.0003
716.1936	-0.0005
716.3733	-0.0107
716.5531	0.0017
716.7328	-0.0011
716.9126	-0.0005
717.0923	0.0013
717.2719	-0.0079
717.4516	0.0012
717.6312	0.0043
717.8109	0.0009
717.9905	-0.0037
718.1701	-0.0013
718.3496	0.0006
718.5292	-0.0067
718.7087	-0.0025
718.8882	-0.0039
719.0677	-0.0048
719.2472	-0.0052
719.4267	-0.01
719.6061	-0.0071
719.7856	-0.0016
719.965	-0.0098
720.1443	0.0011
720.3237	-0.0064
720.5031	-0.015
720.6824	-0.008
720.8617	-0.0009
721.041	-0.0009
721.2203	-0.0025
721.3995	-0.0032
721.5788	-0.0115
721.758	-0.0053
721.9372	-0.0013
722.1164	-0.01
722.2956	-0.0142
722.4747	-0.0089
722.6538	-0.0099
722.8329	-0.0068
723.012	-0.0084
723.1911	-0.002
723.3702	-0.0062
723.5492	-0.0008
723.7282	-0.0005
723.9072	-0.001
724.0862	-0.0005
724.2652	-0.001
724.4441	-0.0094
724.623	-0.0068
724.8019	-0.0086
724.9808	0.0021
725.1597	-0.001
725.3385	0.0028
725.5174	0.0018
725.6962	-0.0066
725.875	0.0024
726.0538	0.0039
726.2325	-0.0018
726.4112	-0.0045
726.59	-0.0003
726.7687	-0.005
726.9474	-0.0066
727.126	-0.0058
727.3047	-0.003
727.4833	-0.0002
727.6619	-0.0124
727.8405	-0.0001
728.0191	0.0059
728.1976	-0.0083
728.3762	-0.0092
728.5547	-0.0115
728.7332	-0.0087
728.9116	-0.014
729.0901	-0.0119
729.2686	-0.0091
729.447	-0.0035
729.6254	-0.0062
729.8038	-0.0094
729.9821	-0.0071
730.1605	-0.005
730.3388	-0.0022
730.5171	-0.0076
730.6954	-0.0057
730.8737	-0.0007
731.0519	-0.0017
731.2302	0.0012
731.4084	0.0028
731.5866	0.0011
731.7648	-0.0019
731.9429	0.0021
732.1211	0.0009
732.2992	-0.0019
732.4773	0.0023
732.6554	-0.0063
732.8335	-0.0065
733.0115	-0.0064
733.1896	-0.0074
733.3676	-0.009
733.5456	0.0013
733.7235	-0.0026
733.9015	-0.0028
734.0794	-0.0053
734.2574	-0.0004
734.4353	-0.0027
734.6131	0.0002
734.791	-0.0043
734.9689	-0.0053
735.1467	-0.0023
735.3245	0.0039
735.5023	-0.0075
735.68	-0.006
735.8578	-0.0023
736.0355	0.0014
736.2132	-0.0018
736.3909	-0.0075
736.5686	-0.0038
736.7463	-0.0068
736.9239	-0.0012
737.1015	-0.0083
737.2791	-0.0064
737.4567	-0.0083
737.6343	-0.0001
737.8118	-0.0075
737.9894	-0.0004
738.1669	-0.0027
738.3444	-0.0026
738.5218	0.0052
738.6993	0.0052
738.8767	-0.0004
739.0541	-0.0082
739.2315	-0.0046
739.4089	-0.0009
739.5863	-0.0095
739.7636	-0.005
739.9409	-0.0047
740.1182	0.002
740.2955	-0.0059
740.4728	-0.0001
740.65	0.0012
740.8272	0.0019
741.0044	-0.0022
741.1816	-0.0005
741.3588	0.0029
741.5359	-0.0056
741.7131	-0.0026
741.8902	0.0043
742.0673	-0.0013
742.2444	-0.0056
742.4214	-0.0064
742.5985	0.001
742.7755	-0.0034
742.9525	-0.0021
743.1295	-0.0001
743.3064	-0.0047
743.4834	0.0024
743.6603	-0.0027
743.8372	0.0029
744.0141	-0.0003
744.191	-0.0063
744.3678	0.0001
744.5446	-0.001
744.7215	-0.0092
744.8982	-0.0019
745.075	0
745.2518	-0.0021
745.4285	0.001
745.6052	0.0026
745.7819	-0.0029
745.9586	0.0028
746.1353	-0.0012
746.3119	0.0025
746.4885	0.0012
746.6651	0.0008
746.8417	-0.0031
747.0183	-0.0035
747.1948	-0.0021
747.3714	-0.0075
747.5479	-0.0081
747.7244	-0.0035
747.9008	0.0048
748.0773	0.0048
748.2537	-0.0018
748.4301	0.0013
748.6065	-0.0036
748.7829	0.0046
748.9593	0.0045
749.1356	-0.0056
749.3119	0.0009
749.4882	0.0031
749.6645	-0.0054
749.8408	-0.0044
750.017	-0.0112
750.1933	-0.0026
750.3695	-0.0077
750.5457	-0.0125
750.7218	-0.0023
750.898	-0.0057
751.0741	-0.0125
751.2502	-0.0043
751.4263	-0.0026
751.6024	-0.0093
751.7784	0.0042
751.9545	-0.0041
752.1305	0.0058
752.3065	-0.0076
752.4825	-0.0042
752.6584	-0.0046
752.8344	0.0029
753.0103	-0.0045
753.1862	0.0017
753.3621	0.0006
753.5379	-0.0089
753.7138	-0.0006
753.8896	-0.0093
754.0654	-0.0046
754.2412	-0.0115
754.417	-0.0035
754.5927	-0.0074
754.7685	-0.0093
754.9442	-0.0044
755.1199	-0.0104
755.2956	-0.0075
755.4712	-0.004
755.6469	-0.0079
755.8225	-0.0075
755.9981	-0.008
756.1736	-0.0025
756.3492	-0.0089
756.5248	-0.0064
756.7003	-0.0066
756.8758	-0.0101
757.0513	-0.0163
757.2267	-0.0048
757.4022	-0.0058
757.5776	-0.0061
757.753	-0.0157
757.9284	-0.0101
758.1038	-0.0102
758.2791	-0.015
758.4545	-0.0084
758.6298	-0.0082
758.8051	-0.0104
758.9803	-0.0091
759.1556	-0.0118
759.3308	-0.0094
759.506	-0.012
759.6812	-0.0127
759.8564	-0.0093
760.0316	-0.0076
760.2067	-0.0083
760.3819	-0.009
760.557	-0.009
760.732	-0.0091
760.9071	-0.0134
761.0821	-0.0153
761.2572	-0.0118
761.4322	-0.0147
761.6072	-0.0116
761.7821	-0.0128
761.9571	-0.0097
762.132	-0.0088
762.3069	0.0035
762.4818	-0.0047
762.6567	-0.0135
762.8316	-0.0042
763.0064	-0.0021
763.1812	0.001
763.356	-0.0014
763.5308	0
763.7055	0.0028
763.8803	-0.0032
764.055	-0.0069
764.2297	0.0007
764.4044	-0.0012
764.579	0.004
764.7537	-0.0031
764.9283	-0.0014
765.1029	0.0036
765.2775	0.0059
765.4521	0.008
765.6266	0.0015
765.8011	0.0072
765.9756	-0.0002
766.1501	0.0039
766.3246	-0.0037
766.4991	-0.0054
766.6735	-0.0045
766.8479	-0.0082
767.0223	0.008
767.1967	-0.0003
767.371	-0.0072
767.5454	-0.0077
767.7197	-0.0052
767.894	-0.0008
768.0683	-0.0007
768.2425	-0.0106
768.4168	-0.0025
768.591	0.0022
768.7652	0.0037
768.9394	0.0053
769.1135	0.0033
769.2877	-0.0003
769.4618	0.0083
769.6359	-0.0037
769.81	0.0017
769.984	-0.0063
770.1581	-0.0032
770.3321	0.0029
770.5061	-0.0001
770.6801	0.0012
770.8541	-0.0032
771.028	0.0009
771.202	0.0099
771.3759	0.0007
771.5498	0.0007
771.7236	-0.0035
771.8975	-0.0022
772.0713	-0.0008
772.2451	0.0022
772.4189	0.004
772.5927	-0.0019
772.7665	-0.0042
772.9402	-0.0037
773.1139	-0.0025
773.2876	0.0049
773.4613	-0.0052
773.635	0.0014
773.8086	-0.0038
773.9822	0.0067
774.1558	-0.0034
774.3294	0.0021
774.503	-0.0015
774.6765	-0.0073
774.8501	0.0037
775.0236	-0.0101
775.1971	-0.0029
775.3705	-0.0044
775.544	-0.0077
775.7174	0.0002
775.8908	-0.0055
776.0642	-0.0023
776.2376	0.0003
776.4109	-0.0066
776.5843	0.0057
776.7576	0.0085
776.9309	0.0033
777.1041	-0.002
777.2774	0.0033
777.4506	-0.0045
777.6238	-0.0008
777.797	-0
777.9702	-0.0009
778.1434	-0.0103
778.3165	0.0006
778.4896	-0.0117
778.6627	-0.0065
778.8358	-0.0011
779.0089	-0.0043
779.1819	-0.0014
779.3549	-0.0098
779.5279	-0.005
779.7009	-0.0075
779.8739	0.0038
780.0468	-0.0097
780.2197	-0.0077
780.3926	-0.0052
780.5655	-0.0075
780.7384	-0.0046
780.9112	0.0036
781.0841	0.0027
781.2569	0.0014
781.4297	-0.0086
781.6024	0.001
781.7752	-0.0064
781.9479	-0.0031
782.1206	-0.0025
782.2933	-0.0086
782.466	-0.0047
782.6386	-0.0006
782.8113	-0.0169
782.9839	-0.0097
783.1565	-0.0102
783.329	-0.0047
783.5016	-0.0048
783.6741	-0.0056
783.8466	-0.0131
784.0191	-0.006
784.1916	0.0023
784.3641	-0.004
784.5365	0.0014
784.7089	0.0023
784.8813	0.003
785.0537	0.0075
785.2261	-0.0003
785.3984	0.0055
785.5707	0.0011
785.743	0.0085
785.9153	-0.0001
786.0876	0.0075
786.2598	0.0034
786.432	0.0061
786.6042	0.0024
786.7764	0.0021
786.9486	-0.0001
787.1207	-0.0022
787.2928	-0.0019
787.4649	-0.0028
787.637	-0.0045
787.8091	0.0002
787.9811	0.008
788.1532	-0.0018
788.3252	-0.0086
788.4972	-0.0058
788.6691	-0.0007
788.8411	0.0017
789.013	-0.004
789.1849	-0.0039
789.3568	-0.004
789.5287	-0.0009
789.7005	-0.0004
789.8723	0.0054
790.0442	-0.0017
790.2159	0.0035
790.3877	-0.0096
790.5595	-0.0037
790.7312	0.0043
790.9029	0.0002
791.0746	-0.002
791.2463	-0.0026
791.4179	-0.0097
791.5896	0.0113
791.7612	0.003
791.9328	0.0065
792.1044	-0.0101
792.2759	0.0033
792.4474	-0.0025
792.619	-0.0056
792.7905	-0.0078
792.9619	-0.0046
793.1334	-0.0058
793.3048	-0.0059
793.4762	-0.0052
793.6476	-0.021
793.819	-0.0059
793.9904	-0.0122
794.1617	-0.0175
794.333	-0.009
794.5043	-0.0062
794.6756	0.0104
794.8469	-0.0006
795.0181	-0.0054
795.1893	-0.0039
795.3605	-0.0016
795.5317	-0.0042
795.7029	-0.0092
795.874	-0.0074
796.0452	-0.0104
796.2163	-0.0111
796.3873	-0.0064
796.5584	-0.0052
796.7294	-0.0111
796.9005	-0.0164
797.0715	-0.0049
797.2425	-0.0104
797.4134	-0.0202
797.5844	-0.0162
797.7553	-0.0116
797.9262	-0.006
798.0971	-0.0095
798.2679	-0.0101
798.4388	-0.0158
798.6096	-0.0029
798.7804	-0.0193
798.9512	-0.0144
799.122	-0.0115
799.2927	-0.0207
799.4635	-0.0094
799.6342	-0.0056
799.8049	-0.0108
799.9755	-0.0175
800.1462	-0.0287
800.3168	-0.0167
800.4874	-0.0117
800.658	-0.0124
800.8286	-0.0146
800.9991	-0.0154
801.1696	-0.0082
801.3402	-0.0164
801.5106	-0.0183
801.6811	-0.0184
801.8516	-0.0065
802.022	-0.027
802.1924	-0.0247
802.3628	-0.0175
802.5332	-0.0159
802.7035	-0.015
802.8739	-0.0192
803.0442	-0.0176
803.2145	-0.0173
803.3847	-0.0249
803.555	-0.0163
803.7252	-0.0125
803.8954	-0.0222
804.0656	-0.0106
804.2358	-0.0058
804.4059	-0.0195
804.5761	-0.008
804.7462	-0.0134
804.9163	-0.0106
805.0864	-0.0134
805.2564	-0.017
805.4264	-0.0108
805.5965	-0.0159
805.7665	-0.0064
805.9364	0.0015
806.1064	-0.0013
806.2763	-0.0069
806.4462	-0.0092
806.6161	-0.0093
806.786	-0.0083
806.9559	-0.0073
807.1257	-0.0057
807.2955	-0.0206
807.4653	-0.0049
807.6351	-0.0071
807.8048	0.0021
807.9746	0.0014
808.1443	-0.0091
808.314	-0.0022
808.4837	0.0056
808.6533	0.0034
808.8229	-0.0094
808.9926	0.0026
809.1622	-0.0027
809.3317	0.0271
809.5013	0.0021
809.6708	0.0004
809.8403	-0.0068
810.0098	0.0129
810.1793	-0.0147
810.3488	0.0133
810.5182	-0.0048
810.6876	-0.0043
810.857	-0.0099
811.0264	-0.0128
811.1958	0.0128
811.3651	-0.0131
811.5344	-0.0042
811.7037	-0.0164
811.873	-0.0099
812.0422	-0.0111
812.2115	-0.0095
812.3807	-0.0127
812.5499	-0.0104
812.7191	-0.0154
812.8882	0.0004
813.0574	-0.0081
813.2265	0.0074
813.3956	-0.0124
813.5646	-0.0111
813.7337	-0.0037
813.9027	0.0043
814.0718	-0.011
814.2407	0.0174
814.4097	-0.0029
814.5787	0.0025
814.7476	-0.013
814.9165	0.0025
815.0854	-0.0089
815.2543	-0.0033
815.4232	0.0001
815.592	-0.0025
815.7608	-0.0034
815.9296	0.0033
816.0984	0.0027
816.2671	0.0009
816.4359	-0.0072
816.6046	0.0048
816.7733	-0.0026
816.942	0.0064
817.1106	-0.0049
817.2793	0.0017
817.4479	-0.0129
817.6165	-0.0086
817.785	-0.011
817.9536	-0.0075
818.1221	-0.0156
818.2906	-0.0066
818.4591	-0.0092
818.6276	0.0029
818.7961	-0.0156
818.9645	0.0003
819.1329	-0.0081
819.3013	0.0008
819.4697	-0.0161
819.638	-0.0188
819.8064	-0.007
819.9747	0.018
820.143	0.0001
820.3113	-0.0063
820.4795	0.0061
820.6477	0.0063
820.816	-0.001
820.9842	-0.0091
821.1523	-0.0233
821.3205	-0.0063
821.4886	-0.009
821.6567	-0.0109
821.8248	-0.0056
821.9929	-0.0126
822.1609	0.0025
822.329	0.0002
822.497	-0.0021
822.665	-0.0236
822.833	-0.0243
823.0009	-0.0164
823.1688	-0.0086
823.3367	-0.0011
823.5046	-0.0067
823.6725	-0.0149
823.8404	-0.0082
824.0082	-0.0115
824.176	0.0051
824.3438	-0.0005
824.5116	-0.0002
824.6793	-0.0096
824.847	-0.0134
825.0147	-0.0058
825.1824	-0.0256
825.3501	-0.0046
825.5177	0.001
825.6854	-0.001
825.853	0.0045
826.0206	-0.0032
826.1881	0.0039
826.3557	-0.0009
826.5232	0.0193
826.6907	-0.0017
826.8582	-0.0074
827.0257	-0.0018
827.1931	0.0062
827.3605	0.014
827.528	-0.0022
827.6953	-0.0082
827.8627	-0.0022
828.03	-0.0145
828.1974	-0.0117
828.3647	-0.0122
828.532	-0.0057
828.6992	-0.0016
828.8665	-0.0095
829.0337	-0.0087
829.2009	0.0041
829.3681	-0.0157
829.5352	-0.0243
829.7024	0.0017
829.8695	-0.0248
830.0366	-0.0328
830.2037	-0.006
830.3707	-0.0135
830.5378	-0.0005
830.7048	-0.0343
830.8718	-0.007
831.0388	-0.0096
831.2057	-0.0204
831.3727	-0.0104
831.5396	-0.0005
831.7065	0.0068
831.8734	0.0028
832.0402	-0.0231
832.2071	0.0146
832.3739	0.0196
832.5407	-0.0058
832.7075	-0.005
832.8742	0.0143
833.041	0.0107
833.2077	-0.028
833.3744	-0.0005
833.541	-0.0001
833.7077	-0.0166
833.8743	0.0151
834.0409	-0.0045
834.2075	0.0029
834.3741	-0.0008
834.5407	0.0036
834.7072	-0.0032
834.8737	-0.0061
835.0402	-0.0301
835.2067	-0.0186
835.3731	-0.0101
835.5395	-0.0109
835.706	-0.0101
835.8723	-0.0335
836.0387	-0.0373
836.2051	-0.0165
836.3714	0.0183
836.5377	0.0183
836.704	0.0262
836.8703	-0.0164
837.0365	0.0102
837.2027	-0.015
837.3689	0.0045
837.5351	0.0071
837.7013	-0.0053
837.8674	-0.0031
838.0335	-0.0045
838.1997	0.0065
838.3657	0.0001
838.5318	0.0086
838.6978	-0.0148
838.8639	-0.0087
839.0299	-0.0156
839.1958	-0.0033
839.3618	-0.0014
839.5277	-0.005
839.6937	0.0041
839.8596	-0.0141
840.0254	0.0024
840.1913	0.0052
840.3571	-0.0061
840.523	0.0171
840.6888	0.0179
840.8545	-0.0124
841.0203	-0.0219
841.186	-0.0129
841.3517	-0.0066
841.5174	-0.0189
841.6831	0.0278
841.8488	0.0061
842.0144	0.0148
842.18	-0.0005
842.3456	0.0078
842.5112	0.0192
842.6767	-0.0034
842.8422	0.019
843.0077	-0.0005
843.1732	-0.0049
843.3387	0.0019
843.5042	0.0046
843.6696	-0.0093
843.835	-0.0048
844.0004	-0.0062
844.1657	-0.0053
844.3311	-0.0057
844.4964	-0.0149
844.6617	0.009
844.827	0.0021
844.9923	0.0207
845.1575	0.0128
845.3227	-0.039
845.4879	-0.0017
845.6531	-0.0025
845.8183	-0.027
845.9834	-0.0185
846.1485	0.0045
846.3136	-0.0632
846.4787	-0.0165
846.6438	-0.0287
846.8088	0.0225
846.9738	0.004
847.1388	0.0093
847.3038	0.0305
847.4687	-0.0331
847.6337	0.0065
847.7986	0.0078
847.9635	-0.029
848.1284	-0.0176
848.2932	-0.0101
848.458	0.0276
848.6228	-0.0106
848.7876	-0.0426
848.9524	0.0375
849.1172	-0.0209
849.2819	0.0106
849.4466	-0.0038
849.6113	0.0139
849.7759	-0.0156
849.9406	0.0068
850.1052	0.0121
850.2698	0.0082
850.4344	0.0149
850.599	-0.0132
850.7635	0.003
850.928	-0.0198
851.0925	0.0147
851.257	-0.0148
851.4215	0.0169
851.5859	0.03
851.7503	-0.0184
851.9147	0.018
852.0791	-0.0208
852.2434	-0.0268
852.4078	0.0003
852.5721	-0.0533
852.7364	-0.1028
852.9007	0.033
853.0649	-0.0105
853.2291	0.0244
853.3934	-0.0031
853.5575	-0.0181
853.7217	-0.0076
853.8859	-0.0188
854.05	0.017
854.2141	-0.0117
854.3782	0.0284
854.5423	0.0175
854.7063	0.0036
854.8703	0.0139
855.0343	0.002
855.1983	-0.0072
855.3623	0.0302
855.5262	0.0183
855.6901	-0.0096
855.854	-0.017
856.0179	0.0479
856.1818	0.0014
856.3456	-0.0459
856.5094	-0.0306
856.6732	0.0079
856.837	-0.0419
857.0008	0.0601
857.1645	-0.0172
857.3282	-0.0005
857.4919	-0.0085
857.6556	0.0449
857.8192	0.0016
857.9828	-0.0006
858.1465	0.0559
858.31	-0.019
858.4736	-0.0834
858.6372	-0.0085
858.8007	-0.0144
858.9642	-0.0739
859.1277	-0.0006
859.2911	-0.0281
859.4546	-0.0187
859.618	-0.0036
859.7814	-0.0143
859.9448	-0.0824
860.1081	-0.1351
860.2715	0.0695
860.4348	0.0021
860.5981	-0.0878
860.7614	-0.094
860.9246	-0.0296
861.0879	-0.0373
861.2511	-0.0191
861.4143	-0.0928
861.5774	-0.0466
861.7406	-0.0346
861.9037	-0.2022
862.0668	-0.0342
862.2299	-0.0084
862.393	0.0031
862.556	0.1157
862.7191	-0.0369
862.8821	-0.0891
863.0451	0.0542
863.208	-0.0704
863.371	0.1397
863.5339	-0.0448
863.6968	-0.1407
863.8597	0.1256
864.0225	-0.2071
864.1854	-0.0797
864.3482	-0.2366
864.511	-0.1141
864.6737	-0.0642
864.8365	0.114
864.9992	0.0153
865.1619	-0.0238
865.3246	-0.0847
865.4873	0.1481
865.65	0.0068
865.8126	0.1767
865.9752	-0.1356
866.1378	-0.071
866.3004	0.0652
866.4629	-0.1843
866.6254	0.1431
866.7879	-0.154
866.9504	0.1192
867.1129	-0.0239
867.2753	-0.0044
867.4377	-0.0933
867.6001	-0.2545
867.7625	0.1083
867.9249	0.0101
868.0872	-0.1481
868.2495	-0.1719
868.4118	-0.1685
868.5741	-0.0809
868.7363	0.1083
868.8986	-0.0862
869.0608	0.0194
869.223	-0.1582
869.3851	-0.0351
869.5473	-0.2181
869.7094	-0.1055
869.8715	0.1021
870.0336	-0.195
870.1957	-0.0598
870.3577	-0.0122
870.5197	-0.1615
870.6817	-0.0093
870.8437	-0.2603
871.0057	-0.1283
871.1676	-0.1337
871.3295	-0.0762
871.4914	-0.054
871.6533	-0.323
871.8151	-0.2211
871.977	0.0705
872.1388	-0.0177
872.3006	-0.2267
872.4623	-0.0393
872.6241	-0.0686
872.7858	0.1509
872.9475	-0.1856
873.1092	-0.1759
873.2709	-0.149
873.4325	-0.2801
873.5941	-0.0741
873.7557	0.455
873.9173	-0.1845
874.0789	-0.1286
874.2404	0.1557
874.4019	-0.3712
874.5634	-0.1511
874.7249	-0.3025
874.8863	0.5999
875.0478	-0.0285
875.2092	-0.2531
875.3706	-0.2002
875.5319	-0.0428
875.6933	-0
875.8546	-0.1944
876.0159	0.0932
876.1772	-0.4157
876.3385	-0
876.4997	0.1057
876.6609	-0.2387
876.8221	0.0714
876.9833	-0.499
877.1445	0.0877
877.3056	-0.1186
877.4667	-0.7891
877.6278	0.1872
877.7889	0.2226
877.9499	-0.5766
878.111	0.0315
878.272	0.3708
878.433	0.2501
878.5939	0.3147
878.7549	-0.2911
878.9158	-0.1822
879.0767	0.0572
879.2376	0.1935
879.3984	-0.0653
879.5593	-0.4262
879.7201	-0
879.8809	-0.1027
880.0417	-0.2358
880.2024	-0.1094
880.3632	-0.0193
880.5239	-0
880.6846	-0.3553
880.8452	0.104
881.0059	-0.3684
881.1665	-0
881.3271	-0.2569
881.4877	-0.1333
881.6483	-0
881.8088	-0.1015
881.9693	0.1101
882.1298	0.1101
882.2903	0.1101
