Data from D4ACN5uM440nmA_Absorbance_13-50-25-493.txt Node
Date: Fri Feb 21 13:50:25 GMT 2025
User: LASERRRRR
Spectrometer: FLMT03099
Trigger mode: 0
Integration Time (sec): 1.500000E-2
Scans to average: 1
Electric dark correction enabled: true
Nonlinearity correction enabled: false
Boxcar width: 0
XAxis mode: Wavelengths
Number of Pixels in Spectrum: 3648
>>>>>Begin Spectral Data<<<<<
179.3399	-0.4543
179.5586	-0.4543
179.7771	-0.4543
179.9957	-0.1334
180.2143	-0
180.4329	-0
180.6514	-0
180.8699	0.4739
181.0885	-0
181.307	0.7902
181.5255	-0
181.744	-0
181.9625	0.1265
182.181	0.3529
182.3994	-0.7124
182.6179	-0.5753
182.8363	-0
183.0547	-0.3447
183.2732	0.2403
183.4916	0.4489
183.71	0.1542
183.9284	-0.0159
184.1467	0.0551
184.3651	0.0498
184.5835	0.377
184.8018	0.1621
185.0201	-0.0078
185.2385	0.2699
185.4568	0.309
185.6751	0.1958
185.8934	0.1242
186.1117	0.0683
186.3299	0.2358
186.5482	0.2519
186.7664	0.1037
186.9847	0.3629
187.2029	0.2902
187.4211	0.0459
187.6393	0.198
187.8575	0.1999
188.0757	0.7642
188.2939	0.209
188.512	0.2766
188.7302	0.1501
188.9483	-0
189.1665	-0
189.3846	0.2897
189.6027	0.1344
189.8208	0.3051
190.0389	0.1433
190.257	0.1169
190.475	0.2481
190.6931	0.0141
190.9111	0.2329
191.1292	0.096
191.3472	0.1245
191.5652	0.3024
191.7832	0.1865
192.0012	0.0623
192.2192	0.1677
192.4371	0.1633
192.6551	0.2081
192.873	0.2485
193.091	0.1375
193.3089	0.2474
193.5268	0.1854
193.7447	0.1984
193.9626	0.2391
194.1805	0.2876
194.3984	0.2197
194.6162	0.2733
194.8341	0.3539
195.0519	0.3125
195.2697	0.212
195.4875	0.3741
195.7054	0.2911
195.9231	0.3192
196.1409	0.3799
196.3587	0.2857
196.5765	0.3442
196.7942	0.3576
197.012	0.344
197.2297	0.3555
197.4474	0.399
197.6651	0.3447
197.8828	0.3707
198.1005	0.4347
198.3182	0.3776
198.5358	0.3908
198.7535	0.3965
198.9711	0.3902
199.1888	0.3919
199.4064	0.3953
199.624	0.3653
199.8416	0.3434
200.0592	0.4135
200.2767	0.4086
200.4943	0.4143
200.7119	0.4096
200.9294	0.3894
201.1469	0.3987
201.3645	0.4895
201.582	0.3893
201.7995	0.4629
202.017	0.3935
202.2344	0.4039
202.4519	0.3869
202.6694	0.3751
202.8868	0.4423
203.1042	0.4377
203.3217	0.4075
203.5391	0.3996
203.7565	0.3521
203.9739	0.3662
204.1913	0.3917
204.4086	0.3795
204.626	0.3576
204.8433	0.3463
205.0607	0.3597
205.278	0.3392
205.4953	0.3399
205.7126	0.3498
205.9299	0.3177
206.1472	0.3295
206.3644	0.3579
206.5817	0.3382
206.7989	0.3362
207.0162	0.3071
207.2334	0.3258
207.4506	0.3114
207.6678	0.3058
207.885	0.2997
208.1022	0.3078
208.3194	0.2846
208.5365	0.3109
208.7537	0.2829
208.9708	0.2928
209.1879	0.2871
209.405	0.2817
209.6222	0.2803
209.8392	0.3125
210.0563	0.2871
210.2734	0.2658
210.4905	0.2805
210.7075	0.2519
210.9245	0.2782
211.1416	0.2702
211.3586	0.255
211.5756	0.27
211.7926	0.2634
212.0096	0.2861
212.2265	0.2867
212.4435	0.2638
212.6604	0.2464
212.8774	0.2576
213.0943	0.2482
213.3112	0.2538
213.5281	0.2508
213.745	0.2317
213.9619	0.2487
214.1788	0.2488
214.3956	0.2543
214.6125	0.2609
214.8293	0.2354
215.0461	0.2473
215.2629	0.2556
215.4798	0.2499
215.6965	0.2542
215.9133	0.233
216.1301	0.2511
216.3469	0.2515
216.5636	0.2434
216.7803	0.2419
216.9971	0.262
217.2138	0.2526
217.4305	0.25
217.6472	0.2428
217.8639	0.2592
218.0805	0.2601
218.2972	0.2383
218.5138	0.2576
218.7305	0.2695
218.9471	0.259
219.1637	0.2714
219.3803	0.2571
219.5969	0.2628
219.8135	0.2686
220.0301	0.262
220.2466	0.2502
220.4632	0.2379
220.6797	0.2604
220.8962	0.2489
221.1127	0.2679
221.3292	0.2656
221.5457	0.2769
221.7622	0.2656
221.9787	0.2892
222.1951	0.2909
222.4116	0.2691
222.628	0.2892
222.8444	0.2945
223.0608	0.2847
223.2772	0.2821
223.4936	0.2952
223.71	0.2744
223.9264	0.2865
224.1427	0.2895
224.3591	0.2741
224.5754	0.2809
224.7917	0.2787
225.008	0.2899
225.2243	0.3024
225.4406	0.2811
225.6569	0.3018
225.8732	0.3126
226.0894	0.3137
226.3057	0.3107
226.5219	0.3194
226.7381	0.3223
226.9543	0.3152
227.1705	0.3173
227.3867	0.3166
227.6029	0.3228
227.8191	0.3379
228.0352	0.3335
228.2513	0.3319
228.4675	0.3364
228.6836	0.3487
228.8997	0.336
229.1158	0.357
229.3319	0.3638
229.548	0.3451
229.764	0.3643
229.9801	0.3678
230.1961	0.369
230.4121	0.3626
230.6282	0.3817
230.8442	0.3856
231.0602	0.3783
231.2761	0.3845
231.4921	0.3842
231.7081	0.3881
231.924	0.3967
232.14	0.4047
232.3559	0.4106
232.5718	0.4144
232.7877	0.4165
233.0036	0.4098
233.2195	0.4127
233.4353	0.4096
233.6512	0.417
233.867	0.4329
234.0829	0.4265
234.2987	0.4292
234.5145	0.4379
234.7303	0.4372
234.9461	0.4329
235.1619	0.4404
235.3776	0.4322
235.5934	0.4387
235.8091	0.4396
236.0249	0.4515
236.2406	0.4368
236.4563	0.4446
236.672	0.4387
236.8877	0.4463
237.1034	0.4404
237.319	0.4521
237.5347	0.442
237.7503	0.4441
237.966	0.4567
238.1816	0.4556
238.3972	0.476
238.6128	0.4589
238.8284	0.4746
239.0439	0.4556
239.2595	0.464
239.475	0.4656
239.6906	0.462
239.9061	0.4633
240.1216	0.4562
240.3371	0.4597
240.5526	0.4612
240.7681	0.4529
240.9836	0.4544
241.199	0.4505
241.4145	0.4455
241.6299	0.448
241.8453	0.4511
242.0607	0.4384
242.2761	0.4394
242.4915	0.4288
242.7069	0.4247
242.9223	0.4208
243.1376	0.4073
243.353	0.3982
243.5683	0.4092
243.7836	0.3949
243.9989	0.3842
244.2142	0.3773
244.4295	0.382
244.6448	0.362
244.86	0.3592
245.0753	0.354
245.2905	0.3412
245.5057	0.3404
245.721	0.3406
245.9362	0.327
246.1514	0.3212
246.3665	0.3154
246.5817	0.3061
246.7969	0.3014
247.012	0.2874
247.2271	0.2953
247.4423	0.2884
247.6574	0.281
247.8725	0.2723
248.0876	0.273
248.3026	0.2611
248.5177	0.2515
248.7328	0.2566
248.9478	0.2521
249.1628	0.2523
249.3779	0.2375
249.5929	0.2363
249.8079	0.2404
250.0228	0.2324
250.2378	0.2261
250.4528	0.2244
250.6677	0.2281
250.8827	0.2148
251.0976	0.2173
251.3125	0.2185
251.5274	0.2131
251.7423	0.2051
251.9572	0.2086
252.172	0.2021
252.3869	0.2136
252.6017	0.2006
252.8166	0.2051
253.0314	0.1979
253.2462	0.1949
253.461	0.1964
253.6758	0.201
253.8906	0.1961
254.1053	0.1943
254.3201	0.1969
254.5348	0.1926
254.7496	0.179
254.9643	0.1899
255.179	0.1856
255.3937	0.185
255.6083	0.1848
255.823	0.1849
256.0377	0.1856
256.2523	0.1841
256.467	0.1863
256.6816	0.1778
256.8962	0.1863
257.1108	0.1851
257.3254	0.1767
257.54	0.1788
257.7545	0.1846
257.9691	0.1822
258.1836	0.1765
258.3981	0.1754
258.6127	0.1727
258.8272	0.1797
259.0417	0.1727
259.2561	0.1737
259.4706	0.1738
259.6851	0.1808
259.8995	0.1751
260.114	0.1753
260.3284	0.1748
260.5428	0.1791
260.7572	0.1706
260.9716	0.1858
261.186	0.1734
261.4003	0.1708
261.6147	0.174
261.829	0.1778
262.0433	0.1764
262.2577	0.1786
262.472	0.1771
262.6863	0.1886
262.9005	0.1779
263.1148	0.1786
263.3291	0.1788
263.5433	0.1824
263.7576	0.1798
263.9718	0.1766
264.186	0.1768
264.4002	0.1778
264.6144	0.1816
264.8286	0.1803
265.0427	0.183
265.2569	0.1742
265.471	0.1821
265.6851	0.1811
265.8993	0.1816
266.1134	0.1822
266.3275	0.1816
266.5415	0.1848
266.7556	0.1895
266.9697	0.1809
267.1837	0.1867
267.3978	0.1818
267.6118	0.1792
267.8258	0.1821
268.0398	0.1827
268.2538	0.1889
268.4677	0.1788
268.6817	0.1789
268.8957	0.1784
269.1096	0.173
269.3235	0.1801
269.5374	0.1837
269.7514	0.1769
269.9652	0.1819
270.1791	0.1715
270.393	0.174
270.6068	0.1791
270.8207	0.1717
271.0345	0.1797
271.2483	0.1649
271.4622	0.1731
271.676	0.1772
271.8897	0.1752
272.1035	0.1803
272.3173	0.1794
272.531	0.1724
272.7448	0.1806
272.9585	0.1693
273.1722	0.1737
273.3859	0.176
273.5996	0.1785
273.8133	0.1771
274.0269	0.1732
274.2406	0.1762
274.4542	0.1784
274.6679	0.1842
274.8815	0.1837
275.0951	0.181
275.3087	0.1763
275.5223	0.1781
275.7358	0.1806
275.9494	0.1831
276.1629	0.1802
276.3765	0.1812
276.59	0.1699
276.8035	0.1764
277.017	0.1876
277.2305	0.1828
277.444	0.1816
277.6574	0.1884
277.8709	0.1867
278.0843	0.1872
278.2978	0.1903
278.5112	0.1868
278.7246	0.1788
278.938	0.1879
279.1513	0.1836
279.3647	0.1801
279.5781	0.1835
279.7914	0.1872
280.0047	0.1866
280.2181	0.1838
280.4314	0.1832
280.6447	0.1865
280.8579	0.1832
281.0712	0.1802
281.2845	0.1817
281.4977	0.1851
281.711	0.1813
281.9242	0.1853
282.1374	0.1792
282.3506	0.1859
282.5638	0.1814
282.7769	0.1745
282.9901	0.18
283.2033	0.1847
283.4164	0.1803
283.6295	0.1794
283.8426	0.181
284.0557	0.1847
284.2688	0.1821
284.4819	0.1851
284.695	0.1831
284.908	0.1829
285.1211	0.1845
285.3341	0.1865
285.5471	0.1835
285.7601	0.1864
285.9731	0.1875
286.1861	0.1843
286.3991	0.1885
286.612	0.1856
286.825	0.1891
287.0379	0.1874
287.2508	0.1851
287.4637	0.1867
287.6766	0.1912
287.8895	0.1944
288.1024	0.1916
288.3152	0.1962
288.5281	0.1829
288.7409	0.1925
288.9538	0.1899
289.1666	0.1872
289.3794	0.1781
289.5922	0.1866
289.8049	0.1863
290.0177	0.1903
290.2304	0.1944
290.4432	0.1944
290.6559	0.1961
290.8686	0.1941
291.0813	0.1943
291.294	0.186
291.5067	0.1872
291.7194	0.1891
291.932	0.1871
292.1447	0.1882
292.3573	0.1945
292.5699	0.1951
292.7825	0.1881
292.9951	0.1848
293.2077	0.1901
293.4203	0.1952
293.6328	0.1939
293.8454	0.1937
294.0579	0.1849
294.2704	0.1939
294.4829	0.1884
294.6954	0.19
294.9079	0.19
295.1204	0.1886
295.3328	0.195
295.5453	0.1954
295.7577	0.1887
295.9701	0.1924
296.1825	0.1887
296.3949	0.1891
296.6073	0.1854
296.8197	0.1899
297.0321	0.1971
297.2444	0.1883
297.4567	0.191
297.6691	0.1848
297.8814	0.1876
298.0937	0.1914
298.306	0.1957
298.5182	0.1958
298.7305	0.195
298.9428	0.1873
299.155	0.1877
299.3672	0.1933
299.5794	0.1876
299.7916	0.1958
300.0038	0.1936
300.216	0.1872
300.4282	0.1854
300.6403	0.1982
300.8525	0.1897
301.0646	0.1948
301.2767	0.1929
301.4888	0.1891
301.7009	0.192
301.913	0.1899
302.125	0.1894
302.3371	0.1896
302.5491	0.193
302.7612	0.1956
302.9732	0.1896
303.1852	0.1914
303.3972	0.1889
303.6092	0.1892
303.8211	0.1929
304.0331	0.1851
304.245	0.1907
304.457	0.1832
304.6689	0.1855
304.8808	0.1858
305.0927	0.1867
305.3046	0.1859
305.5164	0.1841
305.7283	0.1806
305.9401	0.1801
306.152	0.1779
306.3638	0.1774
306.5756	0.1821
306.7874	0.1711
306.9992	0.1659
307.2109	0.1731
307.4227	0.1719
307.6344	0.1807
307.8462	0.172
308.0579	0.1701
308.2696	0.1687
308.4813	0.1605
308.693	0.1634
308.9046	0.1671
309.1163	0.1653
309.328	0.1648
309.5396	0.1603
309.7512	0.1605
309.9628	0.1548
310.1744	0.1535
310.386	0.1496
310.5976	0.1479
310.8091	0.1472
311.0207	0.148
311.2322	0.1487
311.4437	0.1437
311.6552	0.1439
311.8667	0.1474
312.0782	0.1412
312.2897	0.1452
312.5012	0.1492
312.7126	0.1376
312.924	0.1394
313.1355	0.1355
313.3469	0.1371
313.5583	0.1369
313.7696	0.1286
313.981	0.1379
314.1924	0.1276
314.4037	0.1324
314.6151	0.1303
314.8264	0.136
315.0377	0.1334
315.249	0.1365
315.4603	0.1281
315.6716	0.1307
315.8828	0.1301
316.0941	0.1292
316.3053	0.1246
316.5165	0.1281
316.7277	0.125
316.9389	0.1304
317.1501	0.1294
317.3613	0.1226
317.5724	0.127
317.7836	0.1291
317.9947	0.1232
318.2058	0.1252
318.417	0.1255
318.6281	0.1193
318.8391	0.1295
319.0502	0.1264
319.2613	0.1273
319.4723	0.1287
319.6834	0.1324
319.8944	0.122
320.1054	0.1294
320.3164	0.123
320.5274	0.1228
320.7383	0.1276
320.9493	0.124
321.1602	0.1242
321.3712	0.1244
321.5821	0.1229
321.793	0.1326
322.0039	0.1289
322.2148	0.1281
322.4257	0.1262
322.6365	0.122
322.8474	0.1287
323.0582	0.1293
323.269	0.1283
323.4798	0.1229
323.6906	0.1215
323.9014	0.1287
324.1122	0.1274
324.3229	0.128
324.5337	0.132
324.7444	0.1263
324.9551	0.1276
325.1658	0.1269
325.3765	0.1336
325.5872	0.1298
325.7979	0.1308
326.0085	0.129
326.2192	0.1332
326.4298	0.1304
326.6404	0.1356
326.851	0.1286
327.0616	0.1281
327.2722	0.1334
327.4828	0.1252
327.6933	0.1379
327.9039	0.1325
328.1144	0.1297
328.3249	0.1321
328.5354	0.1313
328.7459	0.1318
328.9564	0.1312
329.1669	0.1403
329.3773	0.1352
329.5878	0.1333
329.7982	0.1385
330.0086	0.1316
330.219	0.1322
330.4294	0.1373
330.6398	0.1338
330.8502	0.1444
331.0605	0.1374
331.2708	0.1337
331.4812	0.1407
331.6915	0.136
331.9018	0.1407
332.1121	0.1488
332.3224	0.1383
332.5326	0.1326
332.7429	0.1379
332.9531	0.1438
333.1633	0.1299
333.3735	0.1333
333.5837	0.1384
333.7939	0.1407
334.0041	0.1425
334.2143	0.138
334.4244	0.1488
334.6346	0.1399
334.8447	0.1409
335.0548	0.1401
335.2649	0.148
335.475	0.1429
335.685	0.142
335.8951	0.1428
336.1051	0.1461
336.3152	0.1423
336.5252	0.1379
336.7352	0.1447
336.9452	0.1425
337.1552	0.1461
337.3652	0.1405
337.5751	0.1424
337.7851	0.1374
337.995	0.147
338.2049	0.1363
338.4148	0.1416
338.6247	0.1448
338.8346	0.1384
339.0445	0.1411
339.2543	0.1415
339.4642	0.1431
339.674	0.1376
339.8838	0.1463
340.0936	0.1435
340.3034	0.1441
340.5132	0.146
340.7229	0.1423
340.9327	0.1509
341.1424	0.1403
341.3522	0.1406
341.5619	0.1508
341.7716	0.1452
341.9813	0.1449
342.1909	0.1505
342.4006	0.1523
342.6102	0.1517
342.8199	0.1453
343.0295	0.1522
343.2391	0.1507
343.4487	0.1543
343.6583	0.1622
343.8679	0.1535
344.0774	0.1475
344.287	0.1526
344.4965	0.1563
344.706	0.1593
344.9155	0.1597
345.125	0.1572
345.3345	0.1668
345.544	0.1658
345.7534	0.1631
345.9629	0.1641
346.1723	0.1691
346.3817	0.1548
346.5911	0.1652
346.8005	0.1645
347.0099	0.1664
347.2193	0.1641
347.4286	0.1713
347.638	0.1676
347.8473	0.1673
348.0566	0.1668
348.2659	0.1733
348.4752	0.1748
348.6845	0.1756
348.8937	0.172
349.103	0.1777
349.3122	0.1744
349.5214	0.172
349.7306	0.1773
349.9398	0.1757
350.149	0.1719
350.3582	0.178
350.5674	0.1808
350.7765	0.1781
350.9856	0.1764
351.1948	0.1796
351.4039	0.1731
351.613	0.1813
351.822	0.1807
352.0311	0.1713
352.2402	0.1817
352.4492	0.1814
352.6582	0.1789
352.8672	0.1839
353.0762	0.1774
353.2852	0.1858
353.4942	0.1907
353.7032	0.1814
353.9121	0.184
354.1211	0.193
354.33	0.1866
354.5389	0.1826
354.7478	0.1848
354.9567	0.1818
355.1655	0.1842
355.3744	0.183
355.5833	0.1865
355.7921	0.1879
356.0009	0.1893
356.2097	0.1865
356.4185	0.1844
356.6273	0.1783
356.8361	0.1889
357.0448	0.1924
357.2536	0.181
357.4623	0.1859
357.671	0.1851
357.8797	0.1951
358.0884	0.1934
358.2971	0.1945
358.5057	0.1984
358.7144	0.2013
358.923	0.2009
359.1316	0.1908
359.3402	0.1941
359.5488	0.1998
359.7574	0.2048
359.966	0.1996
360.1746	0.1954
360.3831	0.2065
360.5916	0.2038
360.8002	0.203
361.0087	0.2021
361.2172	0.2059
361.4256	0.2085
361.6341	0.2065
361.8426	0.21
362.051	0.2126
362.2594	0.2051
362.4678	0.2108
362.6762	0.2171
362.8846	0.2119
363.093	0.2172
363.3014	0.218
363.5097	0.2122
363.718	0.2176
363.9264	0.2131
364.1347	0.2297
364.343	0.2266
364.5513	0.2173
364.7595	0.2313
364.9678	0.2147
365.176	0.2238
365.3842	0.221
365.5925	0.2232
365.8007	0.2182
366.0089	0.2356
366.217	0.2291
366.4252	0.2307
366.6333	0.2263
366.8415	0.2349
367.0496	0.2301
367.2577	0.2338
367.4658	0.2225
367.6739	0.2284
367.882	0.2387
368.09	0.2295
368.2981	0.2323
368.5061	0.2379
368.7141	0.2347
368.9221	0.2426
369.1301	0.2391
369.3381	0.2477
369.5461	0.2442
369.754	0.2402
369.962	0.2428
370.1699	0.2454
370.3778	0.2591
370.5857	0.2484
370.7936	0.2541
371.0015	0.243
371.2093	0.2442
371.4172	0.2474
371.625	0.2532
371.8328	0.2468
372.0406	0.2588
372.2484	0.2534
372.4562	0.2478
372.664	0.2536
372.8717	0.2579
373.0795	0.2586
373.2872	0.2526
373.4949	0.2595
373.7026	0.2458
373.9103	0.2488
374.118	0.258
374.3256	0.2623
374.5333	0.2585
374.7409	0.2591
374.9485	0.2558
375.1561	0.2626
375.3637	0.261
375.5713	0.2736
375.7789	0.2627
375.9864	0.2625
376.194	0.2705
376.4015	0.2573
376.609	0.2669
376.8165	0.2736
377.024	0.2675
377.2315	0.2664
377.4389	0.2662
377.6464	0.2739
377.8538	0.2745
378.0612	0.2808
378.2686	0.2733
378.476	0.2806
378.6834	0.2656
378.8908	0.279
379.0981	0.2801
379.3055	0.2737
379.5128	0.2707
379.7201	0.2843
379.9274	0.2783
380.1347	0.2811
380.342	0.2791
380.5492	0.2829
380.7565	0.2762
380.9637	0.2846
381.1709	0.2781
381.3781	0.2953
381.5853	0.2836
381.7925	0.2875
381.9997	0.2909
382.2068	0.2867
382.4139	0.2871
382.6211	0.2933
382.8282	0.289
383.0353	0.2926
383.2424	0.2931
383.4494	0.2882
383.6565	0.2908
383.8635	0.2877
384.0706	0.2942
384.2776	0.2917
384.4846	0.3
384.6916	0.2962
384.8986	0.2955
385.1055	0.2986
385.3125	0.3003
385.5194	0.2904
385.7263	0.2869
385.9333	0.2987
386.1402	0.2921
386.347	0.296
386.5539	0.2961
386.7608	0.2868
386.9676	0.2959
387.1744	0.2921
387.3813	0.3053
387.5881	0.2941
387.7948	0.2972
388.0016	0.3028
388.2084	0.2901
388.4151	0.2925
388.6219	0.2942
388.8286	0.2861
389.0353	0.292
389.242	0.2798
389.4487	0.2848
389.6553	0.2744
389.862	0.2879
390.0686	0.2868
390.2753	0.2863
390.4819	0.294
390.6885	0.2811
390.8951	0.2899
391.1016	0.2913
391.3082	0.2813
391.5147	0.2763
391.7213	0.2755
391.9278	0.27
392.1343	0.2822
392.3408	0.2826
392.5473	0.2786
392.7537	0.28
392.9602	0.2727
393.1666	0.2805
393.373	0.2764
393.5794	0.2758
393.7858	0.2721
393.9922	0.2732
394.1986	0.2648
394.4049	0.2722
394.6113	0.267
394.8176	0.2737
395.0239	0.2556
395.2302	0.2603
395.4365	0.2642
395.6428	0.2624
395.8491	0.2554
396.0553	0.2614
396.2615	0.2583
396.4678	0.2635
396.674	0.254
396.8802	0.2485
397.0863	0.2513
397.2925	0.2585
397.4987	0.2445
397.7048	0.255
397.9109	0.2498
398.117	0.2588
398.3231	0.2542
398.5292	0.2463
398.7353	0.2479
398.9413	0.2519
399.1474	0.254
399.3534	0.2471
399.5594	0.2623
399.7654	0.2461
399.9714	0.2427
400.1774	0.2469
400.3833	0.2573
400.5893	0.2465
400.7952	0.257
401.0011	0.2489
401.207	0.25
401.4129	0.2457
401.6188	0.2553
401.8247	0.2557
402.0305	0.2422
402.2364	0.2461
402.4422	0.2552
402.648	0.2449
402.8538	0.2497
403.0596	0.2419
403.2654	0.2476
403.4711	0.2313
403.6768	0.2511
403.8826	0.2533
404.0883	0.2554
404.294	0.25
404.4997	0.2502
404.7054	0.2435
404.911	0.2506
405.1167	0.2538
405.3223	0.2451
405.5279	0.2515
405.7335	0.2453
405.9391	0.243
406.1447	0.2449
406.3502	0.2461
406.5558	0.2435
406.7613	0.2479
406.9668	0.2604
407.1724	0.2533
407.3778	0.2443
407.5833	0.2432
407.7888	0.2527
407.9942	0.2501
408.1997	0.2507
408.4051	0.2467
408.6105	0.252
408.8159	0.2365
409.0213	0.2486
409.2267	0.2572
409.432	0.248
409.6374	0.251
409.8427	0.2574
410.048	0.2505
410.2533	0.248
410.4586	0.2365
410.6639	0.2484
410.8691	0.2435
411.0744	0.2478
411.2796	0.2535
411.4848	0.25
411.69	0.2325
411.8952	0.2524
412.1004	0.2489
412.3056	0.2359
412.5107	0.2542
412.7158	0.2525
412.921	0.2432
413.1261	0.2353
413.3312	0.2434
413.5362	0.2468
413.7413	0.2437
413.9464	0.2363
414.1514	0.2455
414.3564	0.2344
414.5614	0.245
414.7664	0.2407
414.9714	0.2405
415.1764	0.2424
415.3813	0.239
415.5863	0.2476
415.7912	0.2448
415.9961	0.2467
416.201	0.2443
416.4059	0.2497
416.6108	0.236
416.8156	0.2369
417.0205	0.2379
417.2253	0.2375
417.4301	0.2429
417.6349	0.2397
417.8397	0.2405
418.0445	0.2478
418.2492	0.2454
418.454	0.2356
418.6587	0.2385
418.8634	0.236
419.0681	0.2363
419.2728	0.2338
419.4775	0.2457
419.6822	0.2325
419.8868	0.2325
420.0915	0.2329
420.2961	0.2226
420.5007	0.2263
420.7053	0.2303
420.9099	0.2314
421.1144	0.2297
421.319	0.2277
421.5235	0.2232
421.728	0.2361
421.9325	0.226
422.137	0.2221
422.3415	0.2163
422.546	0.2119
422.7504	0.2234
422.9549	0.2273
423.1593	0.2167
423.3637	0.2198
423.5681	0.2206
423.7725	0.2214
423.9769	0.2307
424.1812	0.2176
424.3856	0.2236
424.5899	0.2113
424.7942	0.2153
424.9985	0.2184
425.2028	0.2177
425.4071	0.2152
425.6113	0.2168
425.8156	0.2093
426.0198	0.2127
426.224	0.2167
426.4282	0.2028
426.6324	0.2112
426.8366	0.2053
427.0407	0.1988
427.2449	0.1932
427.449	0.1983
427.6531	0.2177
427.8572	0.2074
428.0613	0.2002
428.2654	0.2041
428.4694	0.1857
428.6735	0.1837
428.8775	0.183
429.0815	0.1904
429.2855	0.1844
429.4895	0.1886
429.6935	0.1868
429.8975	0.1834
430.1014	0.1931
430.3053	0.1937
430.5093	0.1761
430.7132	0.1792
430.9171	0.1812
431.1209	0.1799
431.3248	0.1625
431.5286	0.1681
431.7325	0.1869
431.9363	0.169
432.1401	0.1747
432.3439	0.1774
432.5477	0.1493
432.7514	0.1673
432.9552	0.1616
433.1589	0.1568
433.3627	0.163
433.5664	0.1592
433.7701	0.1615
433.9737	0.1637
434.1774	0.16
434.3811	0.1453
434.5847	0.1515
434.7883	0.1459
434.9919	0.1394
435.1955	0.1572
435.3991	0.1466
435.6027	0.1376
435.8062	0.153
436.0098	0.1353
436.2133	0.1374
436.4168	0.1317
436.6203	0.1286
436.8238	0.1347
437.0272	0.1337
437.2307	0.1289
437.4341	0.1306
437.6375	0.1332
437.841	0.1288
438.0443	0.1251
438.2477	0.1183
438.4511	0.1136
438.6545	0.123
438.8578	0.1108
439.0611	0.1266
439.2644	0.1151
439.4677	0.1195
439.671	0.1015
439.8743	0.1174
440.0775	0.0996
440.2808	0.1126
440.484	0.1056
440.6872	0.1022
440.8904	0.1026
441.0936	0.1068
441.2967	0.0948
441.4999	0.0954
441.703	0.0937
441.9062	0.1047
442.1093	0.106
442.3124	0.0916
442.5155	0.0919
442.7185	0.0826
442.9216	0.0954
443.1246	0.09
443.3276	0.0808
443.5307	0.0794
443.7337	0.0808
443.9366	0.0829
444.1396	0.0755
444.3426	0.0762
444.5455	0.076
444.7484	0.0728
444.9513	0.0757
445.1542	0.0738
445.3571	0.0758
445.56	0.0602
445.7628	0.0671
445.9657	0.0674
446.1685	0.0711
446.3713	0.0714
446.5741	0.0756
446.7769	0.0703
446.9797	0.0672
447.1824	0.0637
447.3852	0.0544
447.5879	0.057
447.7906	0.0432
447.9933	0.06
448.196	0.0529
448.3986	0.0497
448.6013	0.0418
448.8039	0.057
449.0066	0.0544
449.2092	0.0567
449.4118	0.0484
449.6143	0.0535
449.8169	0.0478
450.0195	0.0505
450.222	0.0552
450.4245	0.0537
450.627	0.0426
450.8295	0.0463
451.032	0.0374
451.2345	0.0428
451.4369	0.0406
451.6394	0.0321
451.8418	0.0404
452.0442	0.042
452.2466	0.0321
452.449	0.0476
452.6513	0.0389
452.8537	0.0298
453.056	0.0293
453.2583	0.0352
453.4607	0.0314
453.663	0.0371
453.8652	0.032
454.0675	0.0438
454.2697	0.0298
454.472	0.0225
454.6742	0.0367
454.8764	0.041
455.0786	0.0262
455.2808	0.0247
455.4829	0.0269
455.6851	0.0295
455.8872	0.0253
456.0893	0.0296
456.2915	0.0255
456.4935	0.0359
456.6956	0.0204
456.8977	0.022
457.0997	0.0293
457.3018	0.0195
457.5038	0.0306
457.7058	0.0297
457.9078	0.0224
458.1098	0.0154
458.3117	0.0307
458.5137	0.0137
458.7156	0.0284
458.9175	0.0296
459.1194	0.0176
459.3213	0.0247
459.5232	0.0253
459.725	0.0306
459.9269	0.0206
460.1287	0.0152
460.3305	0.0158
460.5323	0.0211
460.7341	0.017
460.9359	0.0062
461.1376	0.0222
461.3394	0.0258
461.5411	0.0195
461.7428	0.0197
461.9445	0.0131
462.1462	0.0119
462.3479	0.012
462.5495	0.0128
462.7512	0.0304
462.9528	0.0078
463.1544	0.0097
463.356	0.0129
463.5576	0.0166
463.7592	0.0097
463.9607	0.0132
464.1623	0.0139
464.3638	0.0073
464.5653	0.0161
464.7668	0.0194
464.9683	0.0188
465.1697	0.0124
465.3712	0.0112
465.5726	0.0091
465.7741	0.0213
465.9755	0.013
466.1769	0.0119
466.3782	0.0059
466.5796	0.017
466.7809	0.0159
466.9823	0.0169
467.1836	0.0067
467.3849	0.0122
467.5862	0.0093
467.7875	0.0084
467.9887	0.0151
468.19	0.0099
468.3912	0.0187
468.5924	0.0123
468.7936	0.0088
468.9948	0.0126
469.196	0.0115
469.3972	0.0022
469.5983	0.0098
469.7994	0.023
470.0006	0.0031
470.2017	0.0154
470.4027	0.0208
470.6038	0.0108
470.8049	0.0168
471.0059	0.0132
471.2069	0.013
471.408	0.0137
471.6089	0.0084
471.8099	0.0094
472.0109	0.0075
472.2119	0.0156
472.4128	0.0034
472.6137	0.0108
472.8146	0.0144
473.0155	0.0196
473.2164	0.012
473.4173	-0.0001
473.6181	0.0031
473.819	0.0057
474.0198	-0.0031
474.2206	0.0031
474.4214	0.006
474.6222	0.0041
474.8229	0.0075
475.0237	0.0149
475.2244	0.0149
475.4251	0.0081
475.6258	0.006
475.8265	0.0102
476.0272	0.0036
476.2278	0.0067
476.4285	0.0076
476.6291	0.0083
476.8297	0.0127
477.0303	-0.0024
477.2309	0.0089
477.4315	0.0135
477.632	0.0009
477.8326	0.0083
478.0331	0.015
478.2336	0.0092
478.4341	0.0078
478.6346	0.0079
478.8351	0.0058
479.0355	0.0154
479.236	0.0128
479.4364	0.0075
479.6368	0.009
479.8372	0.008
480.0376	0.0039
480.2379	0.0112
480.4383	0.0113
480.6386	0.0005
480.8389	0.0009
481.0392	0.0099
481.2395	0.0055
481.4398	0.0141
481.6401	0.0054
481.8403	0.0079
482.0405	0.0035
482.2408	0.004
482.441	0.0158
482.6411	0.0074
482.8413	0.0063
483.0415	0.0218
483.2416	0.0087
483.4417	0.0116
483.6419	0.0003
483.8419	0.0092
484.042	0.0055
484.2421	0.0033
484.4422	0.0068
484.6422	0.001
484.8422	0.0017
485.0422	0.0048
485.2422	0.004
485.4422	0.0034
485.6422	0.0042
485.8421	0.005
486.042	0.0116
486.242	0.0007
486.4419	0.006
486.6417	0.0002
486.8416	0.0055
487.0415	0.0025
487.2413	0.0058
487.4411	0.0039
487.641	0.0047
487.8408	0.0105
488.0405	0.0127
488.2403	0.0028
488.4401	0.0025
488.6398	0.0063
488.8395	0.0056
489.0392	0.0067
489.2389	0.006
489.4386	0
489.6383	0.0115
489.8379	0.0025
490.0376	0.0095
490.2372	0.0028
490.4368	-0
490.6364	-0.005
490.836	-0.0001
491.0355	-0.001
491.2351	0.0075
491.4346	0.0071
491.6341	0.004
491.8336	0.0079
492.0331	0.0001
492.2326	0.0115
492.432	0.0048
492.6315	0.0092
492.8309	0.0097
493.0303	0.0114
493.2297	0.007
493.4291	0.0009
493.6284	0.0152
493.8278	0.0049
494.0271	0.0101
494.2264	0.0005
494.4257	0.0054
494.625	0.0055
494.8243	-0.0018
495.0236	0.0136
495.2228	0.0156
495.422	0.0082
495.6213	0.0054
495.8205	0.0099
496.0196	0.0049
496.2188	0.0019
496.418	0.0068
496.6171	0.0004
496.8162	0.0126
497.0153	0.0082
497.2144	0.012
497.4135	0.0035
497.6126	0.0006
497.8116	0.0034
498.0107	0.0137
498.2097	0.0112
498.4087	-0.0025
498.6077	0.0006
498.8067	0.0113
499.0056	0.0043
499.2046	0.0079
499.4035	0.007
499.6024	-0
499.8013	0.0101
500.0002	0.0058
500.199	0.017
500.3979	0.0013
500.5967	0.002
500.7956	0.0065
500.9944	0.0025
501.1932	0.0106
501.3919	0.0059
501.5907	0.013
501.7895	0.0023
501.9882	0.0062
502.1869	0.0038
502.3856	0.0075
502.5843	0.0049
502.783	0.0019
502.9816	0.0107
503.1803	0.0075
503.3789	0.0157
503.5775	0.0091
503.7761	0.004
503.9747	0.0081
504.1732	-0.0013
504.3718	0.0167
504.5703	0.0081
504.7689	-0.0046
504.9674	0.0052
505.1658	0.0033
505.3643	0.0074
505.5628	0.0081
505.7612	0.0117
505.9597	-0.0027
506.1581	-0.001
506.3565	0.0063
506.5549	0.005
506.7532	-0.0019
506.9516	0.0072
507.1499	0.0082
507.3482	0.006
507.5465	0.0009
507.7448	0.0097
507.9431	0.0141
508.1414	0.0068
508.3396	0.0004
508.5379	0.0011
508.7361	0.008
508.9343	0.0061
509.1325	0.0141
509.3306	-0.0022
509.5288	-0.006
509.7269	0.0015
509.9251	0.0062
510.1232	0.0055
510.3213	0.0136
510.5193	0.0096
510.7174	-0.0012
510.9154	0.0131
511.1135	0.0071
511.3115	0.0072
511.5095	0.0001
511.7075	0.0017
511.9055	0.0103
512.1034	0.0088
512.3014	0.0011
512.4993	0.0058
512.6972	0.0043
512.8951	0.0078
513.093	0.0074
513.2908	0.0159
513.4887	0.0017
513.6865	0.009
513.8844	0.0033
514.0822	0.0079
514.2799	0.01
514.4777	0.0066
514.6755	0.007
514.8732	0.0094
515.0709	0.0089
515.2687	0.004
515.4664	0.0098
515.664	0.0166
515.8617	0.014
516.0594	0.0131
516.257	0.0066
516.4546	0.0151
516.6522	0.0011
516.8498	0.0129
517.0474	0.0125
517.2449	0.0089
517.4425	0.0107
517.64	0.0116
517.8375	0.0057
518.035	0.0023
518.2325	-0.0012
518.43	0.0021
518.6274	0.0081
518.8249	-0.0028
519.0223	0.0112
519.2197	0.0139
519.4171	0.0036
519.6145	0.0121
519.8118	-0.0049
520.0092	0.0103
520.2065	0.0106
520.4038	0.0073
520.6011	0.0103
520.7984	0.0031
520.9956	0.0097
521.1929	0.0102
521.3901	0.0081
521.5874	0.0122
521.7846	-0.0017
521.9818	0.0127
522.1789	0.0017
522.3761	0.0102
522.5732	0.01
522.7704	-0.0094
522.9675	-0.0064
523.1646	0.0038
523.3617	0.0159
523.5587	0.0005
523.7558	0.0058
523.9528	0.0179
524.1498	0.0017
524.3468	0.0082
524.5438	0.0081
524.7408	0.0053
524.9378	0.0096
525.1347	0.012
525.3316	0.0042
525.5285	0.006
525.7254	0.0145
525.9223	0.0175
526.1192	0.0035
526.316	0.0044
526.5129	0.0082
526.7097	0.0048
526.9065	0.0019
527.1033	0.0108
527.3	0.007
527.4968	0.0043
527.6935	0.0053
527.8903	0.0065
528.087	-0.0006
528.2837	0.0118
528.4804	0.0081
528.677	0.0095
528.8737	0.0083
529.0703	-0.0006
529.2669	0.0086
529.4635	-0.0039
529.6601	0.0014
529.8567	0.0093
530.0532	0.0053
530.2498	-0.0044
530.4463	-0.011
530.6428	0.0089
530.8393	0.0132
531.0358	0.0061
531.2322	0.0071
531.4287	-0.0002
531.6251	-0.0003
531.8215	0.0053
532.0179	0.0073
532.2143	0.0068
532.4107	0.0115
532.607	-0.0007
532.8034	0.0028
532.9997	0.0056
533.196	0.0101
533.3923	0.0118
533.5886	0.0113
533.7848	0.0075
533.9811	0.0032
534.1773	0.0075
534.3735	0.0084
534.5697	0.0141
534.7659	0.0015
534.9621	0.0037
535.1582	0.004
535.3544	0.0058
535.5505	0.0114
535.7466	0.008
535.9427	-0.0031
536.1387	0.009
536.3348	0.0013
536.5308	0.0049
536.7269	-0.0033
536.9229	0.0043
537.1189	0.011
537.3148	0.0061
537.5108	0.0026
537.7068	0.0057
537.9027	0.0071
538.0986	0.0206
538.2945	-0.0064
538.4904	0.0051
538.6863	0.0069
538.8821	0.0146
539.078	0.0093
539.2738	0.0052
539.4696	0.0025
539.6654	0.0066
539.8611	0.0088
540.0569	-0.0024
540.2526	0.014
540.4484	0.0019
540.6441	0.0115
540.8398	0.01
541.0355	0.0004
541.2311	0.011
541.4268	0.0183
541.6224	0.0087
541.818	0.0122
542.0136	0.0105
542.2092	0.016
542.4048	0.0091
542.6003	0.0006
542.7959	0.0104
542.9914	0.0109
543.1869	0.018
543.3824	-0.0027
543.5779	0.0087
543.7734	0.0213
543.9688	0.0197
544.1642	0.0061
544.3596	0.0064
544.555	0.0066
544.7504	0.0147
544.9458	0.0098
545.1411	0.0118
545.3365	0.0007
545.5318	0.0003
545.7271	0.0092
545.9224	0.0024
546.1177	0.0062
546.3129	0.0052
546.5081	-0.002
546.7034	0.0032
546.8986	0.0064
547.0938	0.0051
547.289	0.0039
547.4841	0.0079
547.6793	0.0089
547.8744	0.0136
548.0695	0.0039
548.2646	0.0098
548.4597	0.0098
548.6548	0.0158
548.8498	0.0032
549.0448	0.0042
549.2399	0.0188
549.4349	0.001
549.6298	0.0087
549.8248	0.0082
550.0198	0.0078
550.2147	0.0119
550.4096	-0.0035
550.6045	0.0102
550.7994	0.0004
550.9943	0.0135
551.1892	-0.0073
551.384	0.0144
551.5788	0.0131
551.7737	0.0103
551.9685	0.0114
552.1632	0.0047
552.358	0.0024
552.5528	0.0133
552.7475	0.0094
552.9422	-0.0013
553.1369	0.02
553.3316	0.0045
553.5263	0.01
553.7209	0.0093
553.9156	0.0085
554.1102	0.0068
554.3048	0.0014
554.4994	0.0068
554.694	0.0126
554.8885	0.0075
555.0831	0.0142
555.2776	-0.0018
555.4721	0.0061
555.6666	0.0053
555.8611	0.0049
556.0555	0.0131
556.25	0.0108
556.4444	0.0054
556.6388	0.0008
556.8332	0.0143
557.0276	-0.0045
557.222	0.003
557.4163	0.0095
557.6107	0.0022
557.805	-0.0005
557.9993	0.0023
558.1936	0
558.3879	0.0086
558.5821	0.005
558.7764	0.0033
558.9706	-0.0011
559.1648	0.0074
559.359	0.0029
559.5532	0.0094
559.7473	-0.0028
559.9415	-0.0075
560.1356	0.0173
560.3297	0.0054
560.5238	0.0091
560.7179	0.0005
560.9119	0.0038
561.106	0.0021
561.3	-0.0015
561.494	-0.0055
561.688	0.0009
561.882	0.0052
562.076	0.0099
562.2699	0.0183
562.4639	0.0097
562.6578	0.0077
562.8517	0.0088
563.0456	0.0111
563.2395	0.0114
563.4333	0.0033
563.6272	0.0011
563.821	-0.0015
564.0148	0.0097
564.2086	-0.0024
564.4024	0.0147
564.5961	0.012
564.7899	0.0171
564.9836	0.003
565.1773	0.0094
565.371	0.0087
565.5647	-0.0008
565.7584	0.0156
565.952	0.0043
566.1456	0.0034
566.3393	0.0098
566.5329	0.0047
566.7264	0.0033
566.92	0.0015
567.1136	0.0041
567.3071	-0.0047
567.5006	0.0176
567.6941	0.0057
567.8876	0.0033
568.0811	0.0204
568.2745	-0.0037
568.468	0.0072
568.6614	0.0059
568.8548	0.0084
569.0482	0.0066
569.2416	0.0086
569.4349	0.0069
569.6283	0.0027
569.8216	0.0086
570.0149	0.0024
570.2082	0.0101
570.4015	0.0036
570.5947	0.0043
570.788	0.0079
570.9812	0.0033
571.1744	0.0042
571.3676	0.0046
571.5608	0.0047
571.754	0.0126
571.9471	0.0125
572.1402	0.0091
572.3333	0.0078
572.5264	0.003
572.7195	0.0019
572.9126	0.0046
573.1057	0.0085
573.2987	0.0047
573.4917	0.0059
573.6847	0.0071
573.8777	0.0052
574.0707	0.0062
574.2636	0.0046
574.4566	0.0046
574.6495	-0.0003
574.8424	0.0088
575.0353	0.0106
575.2281	0.0049
575.421	0.0008
575.6138	0.0018
575.8067	0.0088
575.9995	0.0031
576.1923	0.0058
576.385	0.0093
576.5778	0.0074
576.7706	0.0064
576.9633	0.0057
577.156	0.0009
577.3487	0.0022
577.5414	0.0049
577.734	0.0042
577.9267	0.0048
578.1193	0.0091
578.3119	0.0051
578.5045	0.0042
578.6971	-0.0003
578.8897	0.003
579.0822	0.009
579.2747	0.002
579.4673	0.0048
579.6598	0.0051
579.8522	0.0023
580.0447	0.0022
580.2372	0.0105
580.4296	0.0107
580.622	0.0033
580.8144	0.0068
581.0068	0.0031
581.1992	0.0045
581.3915	0.0001
581.5839	0.0055
581.7762	0.0035
581.9685	0.0035
582.1608	0.0068
582.353	0.0026
582.5453	0.0041
582.7375	0.006
582.9298	0.0002
583.122	0.0029
583.3142	0.0072
583.5063	0.0041
583.6985	0.0036
583.8906	0.0091
584.0827	0.0038
584.2749	0.0027
584.4669	0.0047
584.659	0.0046
584.8511	0.013
585.0431	0.0062
585.2352	0.0043
585.4272	0.0056
585.6192	0.007
585.8111	-0.0017
586.0031	0.0032
586.195	0.0032
586.387	0.003
586.5789	0.0066
586.7708	0.0064
586.9627	0.0056
587.1545	0.0047
587.3464	0.0089
587.5382	0.002
587.73	0.0066
587.9218	0.002
588.1136	0.0007
588.3053	0.0048
588.4971	0.002
588.6888	-0.0002
588.8805	0.0021
589.0722	0.0068
589.2639	0.0083
589.4556	0.0124
589.6472	0.0082
589.8389	0.0075
590.0305	0.006
590.2221	0.0074
590.4137	0.0022
590.6052	0.0062
590.7968	0.0056
590.9883	0.0074
591.1798	0.0043
591.3713	0.0037
591.5628	0.0059
591.7543	0.0037
591.9458	-0.002
592.1372	-0.001
592.3286	0.0023
592.52	0.0076
592.7114	0.0057
592.9028	0.01
593.0941	0.0037
593.2855	0.0059
593.4768	0.0129
593.6681	0.0052
593.8594	0.0077
594.0506	0.0013
594.2419	0.0119
594.4331	0.0017
594.6244	0.0023
594.8156	0.0054
595.0067	0.0005
595.1979	0.0036
595.3891	0.0042
595.5802	0.007
595.7713	0.0081
595.9624	0.0098
596.1535	0.0084
596.3446	0.0033
596.5357	0.0028
596.7267	-0.0005
596.9177	-0.0052
597.1087	0.0055
597.2997	0.0075
597.4907	0.0016
597.6817	0.0066
597.8726	0.0062
598.0635	-0.0008
598.2544	0.0087
598.4453	0.0044
598.6362	0.0062
598.827	0.0024
599.0179	0.0063
599.2087	0.0077
599.3995	0.0072
599.5903	0.0091
599.7811	0.0117
599.9718	0.0055
600.1626	0.0053
600.3533	0.0003
600.544	0.005
600.7347	0.0091
600.9254	0.0113
601.116	0.0099
601.3067	0
601.4973	0.007
601.6879	0.0044
601.8785	0.0118
602.0691	0.0045
602.2596	0.003
602.4502	0.0039
602.6407	0.0067
602.8312	0.0096
603.0217	0.005
603.2122	0.0104
603.4027	0.0046
603.5931	0.0053
603.7835	0.007
603.9739	-0.0013
604.1643	0.0053
604.3547	0.0022
604.5451	0.0145
604.7354	0.0008
604.9257	-0.0018
605.116	0.0033
605.3063	0.0101
605.4966	-0.0021
605.6869	0.0084
605.8771	0.0096
606.0673	0.0038
606.2575	0.0056
606.4477	0.0121
606.6379	0.0018
606.8281	0.0017
607.0182	0.0064
607.2083	0.0026
607.3985	-0.001
607.5885	-0.0029
607.7786	0.0092
607.9687	0.011
608.1587	0.0125
608.3488	0.0065
608.5388	0.0035
608.7288	-0.002
608.9187	0.002
609.1087	0.0073
609.2986	0.0077
609.4886	0.0065
609.6785	0.0063
609.8684	0.0001
610.0582	0.0031
610.2481	-0.003
610.4379	0.0061
610.6278	0.0071
610.8176	0.0039
611.0074	0.0029
611.1971	0.0039
611.3869	0.0115
611.5766	-0.0022
611.7664	0.0109
611.9561	0.0094
612.1458	0.009
612.3354	0.0059
612.5251	0.0051
612.7147	0.0038
612.9044	0.0006
613.094	0.0069
613.2836	0.0031
613.4731	-0.0046
613.6627	0.0106
613.8522	0.0082
614.0417	0.0047
614.2313	0.0048
614.4207	0.0128
614.6102	0.0151
614.7997	0.0088
614.9891	0.0017
615.1785	0.0038
615.3679	0.0083
615.5573	0.002
615.7467	0.0031
615.9361	0.0064
616.1254	0.0135
616.3147	0.0075
616.504	0.0033
616.6933	0.0083
616.8826	0.0068
617.0718	0.0136
617.2611	0.0016
617.4503	-0.0001
617.6395	0.0073
617.8287	0.0064
618.0179	0.0027
618.207	0.0103
618.3961	0.0052
618.5853	0.0053
618.7744	-0.0033
618.9634	0.011
619.1525	0.0017
619.3416	0.0011
619.5306	0.0075
619.7196	0.0111
619.9086	0.0076
620.0976	-0.0017
620.2866	0.0087
620.4755	0.0078
620.6645	0.0189
620.8534	0.0036
621.0423	0.0011
621.2312	-0.0066
621.42	0.0023
621.6089	0.0051
621.7977	0.0105
621.9865	0.0031
622.1753	-0.0017
622.3641	0.0014
622.5529	0.0029
622.7416	0.0023
622.9303	-0.0004
623.1191	0.0004
623.3078	0.0093
623.4964	0.0027
623.6851	0.0111
623.8737	-0.0016
624.0624	-0.0072
624.251	0.0077
624.4396	0.0073
624.6282	0.01
624.8167	0.0016
625.0053	0.0086
625.1938	0.0068
625.3823	0.0026
625.5708	0.0009
625.7593	0.0074
625.9477	0.0024
626.1362	0.0077
626.3246	0.003
626.513	0.005
626.7014	0.0151
626.8898	0.0128
627.0781	0.0163
627.2665	0.0116
627.4548	-0.0008
627.6431	0.0056
627.8314	0.0191
628.0197	0.0085
628.2079	0.0126
628.3962	0.0038
628.5844	0.0034
628.7726	-0.0042
628.9608	0.0012
629.1489	0.0151
629.3371	0.0062
629.5252	0.0045
629.7134	0.0078
629.9015	0.0141
630.0895	0.0002
630.2776	0.0062
630.4657	0.017
630.6537	0.0126
630.8417	0.0052
631.0297	0.0044
631.2177	0.0142
631.4057	0.0018
631.5936	0.0079
631.7815	0.0016
631.9695	0.0218
632.1574	0.0094
632.3452	0.0142
632.5331	0.015
632.7209	0.0124
632.9088	-0.0023
633.0966	0.0188
633.2844	0.0068
633.4722	0.0031
633.6599	0.0139
633.8477	-0.003
634.0354	0.0065
634.2231	-0.0155
634.4108	0.0217
634.5985	0.0047
634.7861	-0.0005
634.9738	-0.0046
635.1614	0.0062
635.349	0.0002
635.5366	0.0031
635.7242	0.0113
635.9117	0.0089
636.0993	0.0049
636.2868	0.0003
636.4743	0.0006
636.6618	-0.011
636.8492	0.014
637.0367	0.0012
637.2241	0.0069
637.4115	0.0218
637.5989	-0.0025
637.7863	0.0362
637.9737	0.0036
638.161	0.0052
638.3484	-0.0132
638.5357	0.018
638.723	0.0283
638.9103	0.0016
639.0975	0.0072
639.2848	0.0068
639.472	0.0212
639.6592	-0.0125
639.8464	0.0104
640.0336	0.0073
640.2208	-0.0029
640.4079	-0.0066
640.595	-0.0111
640.7821	0.0133
640.9692	0.0031
641.1563	0.0091
641.3434	-0.0107
641.5304	0.0261
641.7174	0.0143
641.9044	0.007
642.0914	0.0068
642.2784	-0.0126
642.4653	-0.0141
642.6523	0.0119
642.8392	-0.0062
643.0261	0.0122
643.213	-0.0055
643.3999	0.0155
643.5867	0.0021
643.7735	-0.0043
643.9604	0.0148
644.1472	0.0134
644.3339	0.0067
644.5207	-0.0046
644.7075	-0.0031
644.8942	0.0153
645.0809	0.0093
645.2676	0.0049
645.4543	-0.0024
645.6409	0.0242
645.8276	0.0153
646.0142	0.0008
646.2008	-0.0011
646.3874	-0.0036
646.574	-0.011
646.7605	0.0152
646.9471	0.0073
647.1336	-0.0286
647.3201	0.0002
647.5066	0.0212
647.6931	0.0107
647.8795	0.0073
648.0659	0.0106
648.2524	0.0167
648.4388	0.005
648.6252	0.016
648.8115	0.0029
648.9979	0.0262
649.1842	0.0033
649.3705	0.0162
649.5568	-0.0052
649.7431	0.0002
649.9294	-0.0014
650.1156	-0.006
650.3018	0.0163
650.488	0.0108
650.6742	0.0139
650.8604	0.0077
651.0466	-0.0089
651.2327	-0.0077
651.4188	0.0032
651.6049	0.0166
651.791	0.0008
651.9771	-0.0057
652.1632	0.0145
652.3492	0.0089
652.5352	0.0211
652.7212	0.0107
652.9072	-0.0081
653.0932	0.0163
653.2791	-0.0054
653.465	0.0166
653.651	0.001
653.8369	0.013
654.0227	0.0127
654.2086	0.0026
654.3944	0.0044
654.5803	0.0053
654.7661	-0.0027
654.9519	0.0003
655.1377	0.0001
655.3234	0.0001
655.5092	0.0001
655.6949	0.0001
655.8806	0.0001
656.0663	0.0001
656.2519	0.0001
656.4376	0.0001
656.6232	0.0001
656.8088	0.0001
656.9945	0.0001
657.18	0.0001
657.3656	0.0001
657.5511	0.0001
657.7367	0.0001
657.9222	0.0001
658.1077	0.0001
658.2932	0.0001
658.4786	0.0001
658.6641	0.0001
658.8495	0.0001
659.0349	0.0001
659.2203	0.0001
659.4057	0.0001
659.591	0.1423
659.7764	0.0325
659.9617	0.0078
660.147	0.0075
660.3323	0.0109
660.5176	0.0128
660.7028	-0.0031
660.888	0.0124
661.0733	0.0186
661.2585	-0.0005
661.4436	0.0273
661.6288	0.0274
661.8139	-0.0013
661.9991	-0.021
662.1842	-0.0091
662.3693	0.0193
662.5544	0.0105
662.7394	0.0363
662.9245	-0.0011
663.1095	-0.0131
663.2945	0.0042
663.4795	-0.0086
663.6644	-0
663.8494	0.0153
664.0343	0.0268
664.2193	-0.0213
664.4042	-0
664.589	0.0185
664.7739	0.0097
664.9587	-0.0182
665.1436	-0.0053
665.3284	-0.0089
665.5132	-0.0204
665.698	0.0192
665.8827	0.002
666.0675	-0.0188
666.2522	0.0196
666.4369	-0.0039
666.6216	0.0208
666.8063	-0.0074
666.9909	0.0119
667.1756	0.003
667.3602	-0.0173
667.5448	0.038
667.7294	0.0113
667.9139	0.0003
668.0985	0.0244
668.283	0.0149
668.4675	0.0237
668.652	0.0211
668.8365	-0.0007
669.0209	0.001
669.2054	0.0038
669.3898	-0.0146
669.5742	0.0237
669.7586	0.0225
669.943	0.0089
670.1273	0.007
670.3117	0.0287
670.496	0.0074
670.6803	0.0027
670.8646	-0.0044
671.0488	0.0188
671.2331	-0.0037
671.4173	0.0038
671.6015	0.0012
671.7857	0.0162
671.9699	0.0091
672.1541	0.0038
672.3382	0.0049
672.5223	0.0002
672.7064	0.0058
672.8905	0.0104
673.0746	0.0079
673.2587	0.0189
673.4427	0.0161
673.6267	0.0201
673.8107	0.0207
673.9947	0.0217
674.1787	0.0211
674.3626	0.0076
674.5465	0.0103
674.7304	-0.0175
674.9143	-0.0035
675.0982	-0.0079
675.2821	-0.004
675.4659	-0.0012
675.6497	-0.0012
675.8335	0.0063
676.0173	0.0028
676.2011	0.0161
676.3849	-0.0186
676.5686	0.0267
676.7523	0.008
676.936	0.016
677.1197	-0.0005
677.3034	0.0446
677.487	0.0089
677.6706	0.0081
677.8542	0.0007
678.0378	0.0122
678.2214	0.0167
678.405	-0.003
678.5885	0.0113
678.772	-0.0028
678.9555	-0.0044
679.139	0.0012
679.3225	0.0044
679.5059	-0.0074
679.6894	0.016
679.8728	0.0006
680.0562	0.0088
680.2395	-0.0054
680.4229	-0.0052
680.6062	0.0092
680.7896	0.0076
680.9729	0.0306
681.1562	-0.0132
681.3394	0.0059
681.5227	0.0083
681.7059	0.0261
681.8891	0.0132
682.0723	-0.0067
682.2555	0.0246
682.4387	0.0117
682.6218	0.0197
682.805	0.0308
682.9881	0.0011
683.1712	0.0135
683.3542	0.0214
683.5373	-0.0037
683.7203	0.0018
683.9034	0.0162
684.0864	0.0058
684.2694	-0.0014
684.4523	0.0042
684.6353	0.0135
684.8182	-0
685.0011	0.0266
685.184	-0.0054
685.3669	0.0354
685.5498	-0.0068
685.7326	-0.0022
685.9154	0.0139
686.0982	0.0254
686.281	-0.0118
686.4638	0.0244
686.6465	0.0142
686.8293	-0.0081
687.012	0.0107
687.1947	0.0011
687.3774	0.0135
687.56	-0.0029
687.7427	0.0172
687.9253	-0.0155
688.1079	0.0217
688.2905	-0.0027
688.4731	0.0364
688.6556	-0.0045
688.8382	-0.0149
689.0207	0.0102
689.2032	0.0215
689.3857	-0.0029
689.5681	-0.0033
689.7506	0.0176
689.933	-0.0037
690.1154	0.0215
690.2978	-0.0118
690.4802	0.0062
690.6626	0.0101
690.8449	0.0201
691.0272	0.0036
691.2095	-0.0203
691.3918	0.0153
691.5741	0.0081
691.7563	0.0281
691.9386	0.0054
692.1208	-0
692.303	0.0156
692.4852	0.0067
692.6673	0.0037
692.8495	-0
693.0316	-0.0043
693.2137	0.0084
693.3958	0.0108
693.5778	0.0059
693.7599	-0.0256
693.9419	-0.014
694.1239	0.0007
694.3059	0.0257
694.4879	0.0057
694.6699	-0.0051
694.8518	0.0046
695.0337	-0.0019
695.2157	0.0206
695.3975	0.0029
695.5794	-0.0178
695.7613	-0
695.9431	-0.0136
696.1249	0.0218
696.3067	-0.0159
696.4885	0.008
696.6703	0.0065
696.852	-0.0141
697.0337	0.0175
697.2154	0.0173
697.3971	-0.0017
697.5788	0.0159
697.7605	-0.0017
697.9421	0.0092
698.1237	0.0312
698.3053	-0.0131
698.4869	0.0143
698.6685	-0.0024
698.85	0.0212
699.0315	-0.0114
699.213	0.0133
699.3945	0.0124
699.576	0.0061
699.7575	0.0062
699.9389	-0.013
700.1203	0.0134
700.3017	0.0152
700.4831	0.0668
700.6645	0.0327
700.8458	-0.002
701.0271	0.0228
701.2084	0.0155
701.3897	0.0117
701.571	0.0123
701.7523	0.0042
701.9335	0.0213
702.1147	0.0143
702.2959	0.0003
702.4771	-0.0065
702.6583	0.0032
702.8394	-0.0278
703.0205	0.012
703.2016	0.0047
703.3827	0.0043
703.5638	-0.0189
703.7449	0.0371
703.9259	0.0215
704.1069	-0.0227
704.2879	0.0229
704.4689	-0.0031
704.6499	0.0032
704.8308	0.0263
705.0117	-0.0076
705.1927	0.029
705.3735	0.0048
705.5544	0.0063
705.7353	-0.0013
705.9161	-0.0261
706.0969	0.0385
706.2777	0.0061
706.4585	0.0046
706.6393	0.0178
706.82	-0.007
707.0007	-0.0048
707.1815	0.0099
707.3621	0.0275
707.5428	0.0052
707.7235	-0.0139
707.9041	0.0176
708.0847	0.0126
708.2653	0.0499
708.4459	-0.0056
708.6265	0.0143
708.807	0.0042
708.9875	-0.0087
709.168	0.0086
709.3485	0.0121
709.529	0.0266
709.7095	-0
709.8899	0.0207
710.0703	0.0275
710.2507	-0.0019
710.4311	-0.0095
710.6115	0.0504
710.7918	0.0358
710.9721	0.0145
711.1524	-0.0004
711.3327	-0.0245
711.513	-0.0122
711.6932	-0.01
711.8735	0.0258
712.0537	-0.0219
712.2339	0.0081
712.4141	0.027
712.5942	0.0066
712.7744	0.022
712.9545	0.0239
713.1346	0.0143
713.3147	0.0152
713.4947	-0.0041
713.6748	-0.0135
713.8548	0.0203
714.0348	0.0182
714.2148	0.0235
714.3948	0.0293
714.5748	0.007
714.7547	-0.0016
714.9346	0.0302
715.1145	0.0186
715.2944	-0.0248
715.4743	0.0131
715.6541	0.0021
715.834	0.0423
716.0138	0.0408
716.1936	0.0129
716.3733	0.0025
716.5531	0.0192
716.7328	0.011
716.9126	0.0264
717.0923	-0.0312
717.2719	0.011
717.4516	0.0032
717.6312	-0.0133
717.8109	0.0094
717.9905	0.0049
718.1701	0.0265
718.3496	0.0176
718.5292	0.0126
718.7087	-0.0011
718.8882	0.0239
719.0677	-0.0112
719.2472	-0.0022
719.4267	0.0075
719.6061	-0.0322
719.7856	0.0441
719.965	0.0242
720.1443	-0.0004
720.3237	0.0008
720.5031	0.0042
720.6824	0.0057
720.8617	0.0075
721.041	0.0139
721.2203	-0.0028
721.3995	-0.0004
721.5788	0.0008
721.758	0.0042
721.9372	-0.0024
722.1164	-0
722.2956	0.0044
722.4747	0.0303
722.6538	0.0315
722.8329	0.0252
723.012	0.0227
723.1911	-0.003
723.3702	0.0309
723.5492	0.0188
723.7282	-0.0017
723.9072	0.0173
724.0862	-0.0153
724.2652	0.0394
724.4441	0.0062
724.623	0.0068
724.8019	0.0152
724.9808	0.0132
725.1597	0.0124
725.3385	0.0169
725.5174	-0.007
725.6962	0.0135
725.875	0.0193
726.0538	0.0007
726.2325	0.0388
726.4112	-0.0215
726.59	-0.0088
726.7687	-0.026
726.9474	0.0061
727.126	0.003
727.3047	-0.0093
727.4833	0.0308
727.6619	-0.0004
727.8405	-0.0118
728.0191	0.022
728.1976	0.0014
728.3762	0.0301
728.5547	0.0137
728.7332	0.0048
728.9116	0.0148
729.0901	0.0226
729.2686	0.0176
729.447	-0.0016
729.6254	0.0003
729.8038	0.0239
729.9821	-0.0103
730.1605	0.0072
730.3388	0.0058
730.5171	0.0143
730.6954	-0.0012
730.8737	0.0131
731.0519	-0.0058
731.2302	0.0269
731.4084	-0.012
731.5866	0.0091
731.7648	0.0057
731.9429	0.0132
732.1211	-0.0154
732.2992	0.0171
732.4773	0.0066
732.6554	-0.0172
732.8335	0.0233
733.0115	0.0158
733.1896	-0.0024
733.3676	0.0153
733.5456	-0.0137
733.7235	-0.0159
733.9015	0.0195
734.0794	-0.0135
734.2574	-0.0099
734.4353	0.0172
734.6131	0.0124
734.791	-0.0011
734.9689	0.0017
735.1467	0.0067
735.3245	0.0136
735.5023	0.0087
735.68	0.0072
735.8578	-0.004
736.0355	0.0119
736.2132	0.0072
736.3909	0.0207
736.5686	0.0107
736.7463	-0.0207
736.9239	0.0227
737.1015	0.008
737.2791	0.0148
737.4567	0.0054
737.6343	-0.0057
737.8118	0.0246
737.9894	0.0103
738.1669	-0.0056
738.3444	0.0321
738.5218	0.0012
738.6993	0.0069
738.8767	0.0147
739.0541	0.0091
739.2315	0.0005
739.4089	0.0453
739.5863	-0.0019
739.7636	0.0052
739.9409	-0
740.1182	0.0129
740.2955	0.0402
740.4728	-0.0174
740.65	0.0061
740.8272	0.0222
741.0044	-0.0156
741.1816	0.0472
741.3588	-0.0252
741.5359	0.0076
741.7131	-0.0026
741.8902	0.0208
742.0673	-0.0213
742.2444	0.0341
742.4214	0.0309
742.5985	0.0192
742.7755	0.0258
742.9525	-0.0095
743.1295	-0.0431
743.3064	0.0078
743.4834	-0.0165
743.6603	0.0237
743.8372	-0.0387
744.0141	0.0361
744.191	0.0162
744.3678	-0.037
744.5446	0.0082
744.7215	0.0242
744.8982	0.026
745.075	0.0248
745.2518	-0.0143
745.4285	0.017
745.6052	-0.0229
745.7819	0.0416
745.9586	0.0082
746.1353	-0.0248
746.3119	-0.0019
746.4885	0.012
746.6651	0.0026
746.8417	0.0168
747.0183	0.0308
747.1948	0.0149
747.3714	0.0301
747.5479	0.0087
747.7244	-0.0034
747.9008	-0.0006
748.0773	0.0212
748.2537	-0.0038
748.4301	0.0265
748.6065	-0.0067
748.7829	-0.0467
748.9593	0.0081
749.1356	-0.0044
749.3119	0.0058
749.4882	0.0264
749.6645	0.0232
749.8408	0.0307
750.017	0.0117
750.1933	-0.0266
750.3695	0.0262
750.5457	-0.0094
750.7218	-0.006
750.898	0.0044
751.0741	0.0103
751.2502	0.0166
751.4263	-0.0257
751.6024	0.0092
751.7784	0.0074
751.9545	0.015
752.1305	-0.0071
752.3065	0.0158
752.4825	-0.0032
752.6584	0.0155
752.8344	0.0173
753.0103	-0.005
753.1862	0.0328
753.3621	0.0086
753.5379	-0.0093
753.7138	0.0106
753.8896	0.0354
754.0654	0.0074
754.2412	0.0087
754.417	0.0129
754.5927	0.0014
754.7685	0.0061
754.9442	0.0148
755.1199	0.01
755.2956	-0.0073
755.4712	0.0084
755.6469	-0.0034
755.8225	0.0079
755.9981	0.0245
756.1736	0.0219
756.3492	0.0199
756.5248	0.0339
756.7003	-0.0039
756.8758	0.0039
757.0513	0.0002
757.2267	0.0039
757.4022	-0.0098
757.5776	-0.0006
757.753	0.0172
757.9284	0.0019
758.1038	0.0156
758.2791	0.0047
758.4545	-0.0136
758.6298	0.0321
758.8051	0.022
758.9803	0.0101
759.1556	-0.0014
759.3308	0.0036
759.506	0.0139
759.6812	-0.0045
759.8564	0.0108
760.0316	-0.0018
760.2067	0.0085
760.3819	-0.001
760.557	0.0104
760.732	0.0059
760.9071	0.016
761.0821	0.0059
761.2572	0.0169
761.4322	0.0144
761.6072	0.0227
761.7821	-0.042
761.9571	0.0157
762.132	0.0155
762.3069	0.0387
762.4818	0.0171
762.6567	0.0063
762.8316	0.0249
763.0064	0.0115
763.1812	-0.0021
763.356	-0.0042
763.5308	0.0219
763.7055	0.0016
763.8803	0.0215
764.055	0.0028
764.2297	-0.0075
764.4044	0.0067
764.579	-0.0032
764.7537	0.0066
764.9283	0.0059
765.1029	0.015
765.2775	0.0018
765.4521	-0.0086
765.6266	-0.0129
765.8011	0.0134
765.9756	0.0128
766.1501	-0.0042
766.3246	0.0218
766.4991	0.0252
766.6735	0.0398
766.8479	0.0054
767.0223	0.0264
767.1967	0.008
767.371	0.0088
767.5454	0.0226
767.7197	0.0139
767.894	0.009
768.0683	0.0032
768.2425	0.0279
768.4168	0.0037
768.591	0.0085
768.7652	0.0103
768.9394	-0.0301
769.1135	0.0154
769.2877	0.005
769.4618	0.0445
769.6359	0.0275
769.81	0.0176
769.984	0.003
770.1581	0.003
770.3321	0.0276
770.5061	-0.0029
770.6801	0.0139
770.8541	0.0119
771.028	0.0158
771.202	0.0257
771.3759	0.0039
771.5498	0.0344
771.7236	0.0004
771.8975	0.0273
772.0713	-0.0153
772.2451	0.0154
772.4189	0.0005
772.5927	0.0052
772.7665	-0.0094
772.9402	0.0505
773.1139	0.0061
773.2876	-0.0109
773.4613	0.004
773.635	0.0454
773.8086	0.0352
773.9822	0.0221
774.1558	0.0564
774.3294	-0.0081
774.503	0.0235
774.6765	0.0369
774.8501	0.0027
775.0236	0.0683
775.1971	-0.015
775.3705	0.0086
775.544	-0.033
775.7174	0.0235
775.8908	-0.0146
776.0642	0.0324
776.2376	0.0196
776.4109	0.0034
776.5843	-0.0289
776.7576	0.0279
776.9309	0.0008
777.1041	-0.0199
777.2774	0.0344
777.4506	0.0009
777.6238	-0.0305
777.797	0.0253
777.9702	0.0174
778.1434	0.0228
778.3165	0.0056
778.4896	-0
778.6627	0.0259
778.8358	0.0064
779.0089	-0.0071
779.1819	0.0458
779.3549	0.0275
779.5279	-0.0153
779.7009	0.0357
779.8739	0.0436
780.0468	0.0064
780.2197	0.006
780.3926	-0.0303
780.5655	0.0242
780.7384	0.0249
780.9112	0.0206
781.0841	0.0189
781.2569	0.0165
781.4297	-0.0023
781.6024	0.0032
781.7752	0.0297
781.9479	0.0386
782.1206	-0.0073
782.2933	0.0245
782.466	0.0174
782.6386	-0.0079
782.8113	0.007
782.9839	-0.0268
783.1565	0.0174
783.329	0.0023
783.5016	-0.0017
783.6741	-0.0191
783.8466	0.062
784.0191	0.0655
784.1916	-0.026
784.3641	-0.0117
784.5365	0.0299
784.7089	-0.0451
784.8813	0.0557
785.0537	0.0364
785.2261	0.0045
785.3984	-0.0021
785.5707	-0.0223
785.743	0.0253
785.9153	0.0067
786.0876	-0.0215
786.2598	0.006
786.432	0.0308
786.6042	0.0534
786.7764	-0.0149
786.9486	0.0177
787.1207	0.0469
787.2928	0.05
787.4649	-0.0282
787.637	0.0174
787.8091	-0.0058
787.9811	0.0308
788.1532	0.0063
788.3252	-0.0052
788.4972	0.029
788.6691	0.0234
788.8411	0.0305
789.013	0.0251
789.1849	-0.0014
789.3568	-0.0078
789.5287	0.0644
789.7005	-0.0482
789.8723	-0.0019
790.0442	0.0111
790.2159	-0.0031
790.3877	0.0559
790.5595	0.0612
790.7312	0.0257
790.9029	0.0363
791.0746	0.0293
791.2463	-0.0546
791.4179	0.0053
791.5896	0.0079
791.7612	0.0236
791.9328	-0.0195
792.1044	0.0519
792.2759	-0.0568
792.4474	0.0389
792.619	-0.0672
792.7905	0.0532
792.9619	0.0311
793.1334	0.086
793.3048	0.0403
793.4762	0.0278
793.6476	-0.0645
793.819	0.0149
793.9904	-0.0207
794.1617	-0.042
794.333	0.0058
794.5043	0.0321
794.6756	0.0159
794.8469	0.0369
795.0181	-0.0227
795.1893	0.0536
795.3605	0.0389
795.5317	0.0008
795.7029	-0.0205
795.874	0.0066
796.0452	0.0494
796.2163	0.0914
796.3873	0.0693
796.5584	0.0457
796.7294	-0.0274
796.9005	0.115
797.0715	0.043
797.2425	0.0518
797.4134	0.0245
797.5844	0.005
797.7553	-0.0398
797.9262	0.0908
798.0971	0.0973
798.2679	0.0473
798.4388	0.0184
798.6096	-0.0213
798.7804	0.0844
798.9512	0.0626
799.122	-0.0676
799.2927	0.0393
799.4635	-0.0477
799.6342	0.0285
799.8049	0.0216
799.9755	0.0016
800.1462	0.0167
800.3168	0.0605
800.4874	-0.0728
800.658	0.03
800.8286	0.0909
800.9991	0.0127
801.1696	-0.0336
801.3402	-0.0633
801.5106	-0.0625
801.6811	0.0144
801.8516	-0
802.022	-0.0663
802.1924	-0.0417
802.3628	0.016
802.5332	0.0558
802.7035	0.1194
802.8739	0.0178
803.0442	0.0494
803.2145	-0.0192
803.3847	0.0405
803.555	0.0145
803.7252	-0.0157
803.8954	-0.0347
804.0656	0.0721
804.2358	0.0111
804.4059	0.0526
804.5761	0.0154
804.7462	-0.0186
804.9163	0.0193
805.0864	0.0124
805.2564	-0.0363
805.4264	0.0134
805.5965	0.1265
805.7665	0.0415
805.9364	-0.0675
806.1064	-0.0228
806.2763	0.0478
806.4462	0.0669
806.6161	0.0188
806.786	0.0542
806.9559	0.0219
807.1257	0.0061
807.2955	-0.0429
807.4653	0.0654
807.6351	0.0644
807.8048	-0.0353
807.9746	-0.0086
808.1443	-0.0185
808.314	0.034
808.4837	0.0687
808.6533	-0.0062
808.8229	0.0361
808.9926	0.0565
809.1622	0.0291
809.3317	-0.0218
809.5013	0.0187
809.6708	0.0363
809.8403	0.0301
810.0098	-0.0035
810.1793	0.0487
810.3488	0.0217
810.5182	0.0983
810.6876	0.0058
810.857	0.0491
811.0264	-0.0173
811.1958	0.0636
811.3651	0.0119
811.5344	0.0685
811.7037	0.0989
811.873	0.095
812.0422	-0.1775
812.2115	0.0289
812.3807	-0.183
812.5499	-0.0077
812.7191	-0.069
812.8882	0.0258
813.0574	0.0497
813.2265	0.0805
813.3956	-0.0263
813.5646	0.1163
813.7337	0.0452
813.9027	-0.0837
814.0718	-0.0416
814.2407	-0.0173
814.4097	0.042
814.5787	0.0851
814.7476	-0.0442
814.9165	0.0186
815.0854	-0.0075
815.2543	0.0995
815.4232	0.171
815.592	0.1704
815.7608	-0.1005
815.9296	0.093
816.0984	0.1161
816.2671	-0.2229
816.4359	0.1496
816.6046	0.1026
816.7733	0.0247
816.942	-0.0528
817.1106	0.242
817.2793	-0.0029
817.4479	0.0217
817.6165	0.0191
817.785	0.0844
817.9536	-0.0764
818.1221	-0.0082
818.2906	-0.0535
818.4591	0.0444
818.6276	-0.0441
818.7961	-0.0187
818.9645	0.06
819.1329	0.2782
819.3013	0.0541
819.4697	0.3258
819.638	0.24
819.8064	-0.0033
819.9747	0.1851
820.143	-0.1351
820.3113	0.1895
820.4795	-0.0238
820.6477	0.1184
820.816	0.1398
820.9842	0.112
821.1523	0.0648
821.3205	0.1453
821.4886	-0.0558
821.6567	0.0147
821.8248	0.21
821.9929	-0.2008
822.1609	-0.1065
822.329	0.2653
822.497	0.0663
822.665	0.0814
822.833	0.1621
823.0009	-0.0206
823.1688	0.0736
823.3367	-0.0896
823.5046	-0.0081
823.6725	-0.0939
823.8404	-0.0411
824.0082	-0.007
824.176	0.2084
824.3438	0.1938
824.5116	-0.0126
824.6793	0.0938
824.847	0.0693
825.0147	-0.061
825.1824	0.07
825.3501	0.1697
825.5177	-0.0171
825.6854	-0.082
825.853	-0.0586
826.0206	-0.0379
826.1881	-0.1568
826.3557	-0.0035
826.5232	0.0519
826.6907	0.0742
826.8582	-0.0043
827.0257	0.2272
827.1931	0.1617
827.3605	-0.0833
827.528	-0.0628
827.6953	-0.0434
827.8627	-0.0737
828.03	0.042
828.1974	-0.1012
828.3647	0.1466
828.532	0.0619
828.6992	0.1466
828.8665	-0.2954
829.0337	0.0964
829.2009	0.0119
829.3681	0.0651
829.5352	-0.2397
829.7024	0.1434
829.8695	-0.0222
830.0366	0.158
830.2037	0.1767
830.3707	0.0094
830.5378	-0.0421
830.7048	0.1225
830.8718	0.1538
831.0388	0.1015
831.2057	-0.0462
831.3727	-0
831.5396	0.046
831.7065	-0.9303
831.8734	0.1217
832.0402	0.1349
832.2071	-0.1813
832.3739	1.0207
832.5407	-1.3979
832.7075	-0.233
832.8742	0.6732
833.041	0.6132
833.2077	-0.0174
833.3744	0.1161
833.541	-0.1101
833.7077	-0.1852
833.8743	0.0631
834.0409	0.0621
834.2075	0.1639
834.3741	0.0071
834.5407	0.0475
834.7072	0.1136
834.8737	0.0152
835.0402	0.7728
835.2067	-0.013
835.3731	0.0829
835.5395	-0.0455
835.706	-0.207
835.8723	0.0434
836.0387	1.0241
836.2051	0.1426
836.3714	0.3472
836.5377	-0.0524
836.704	0.1077
836.8703	-0.0292
837.0365	-0.7595
837.2027	0.5174
837.3689	-0.0744
837.5351	1.0496
837.7013	0.1683
837.8674	-0
838.0335	0.0734
838.1997	0.1039
838.3657	-0
838.5318	-0
838.6978	-0
838.8639	-0.1388
839.0299	-0.1679
839.1958	0.1333
839.3618	-0
839.5277	0.5911
839.6937	0.4263
839.8596	-0.3033
840.0254	-0.1043
840.1913	-0.1224
840.3571	-0.056
840.523	-1.1139
840.6888	0.1038
840.8545	-0.4337
841.0203	-0
841.186	-0.0621
841.3517	-0.1805
841.5174	0.1345
841.6831	0.215
841.8488	-0.13
842.0144	-0.1035
842.18	0.0939
842.3456	-0.559
842.5112	-1.1993
842.6767	0.143
842.8422	-0.1501
843.0077	0.0663
843.1732	-0.6189
843.3387	0.1404
843.5042	-0
843.6696	0.7092
843.835	0.4391
844.0004	-0.0661
844.1657	-0
844.3311	-0.3462
844.4964	-0
844.6617	0.506
844.827	0.519
844.9923	0.116
845.1575	-0.0444
845.3227	0.3095
845.4879	-0.3464
845.6531	0.2695
845.8183	0.178
845.9834	-0
846.1485	0.2729
846.3136	-0.1777
846.4787	0.0398
846.6438	-0.1162
846.8088	0.5755
846.9738	-0
847.1388	0.0359
847.3038	0.5444
847.4687	0.6081
847.6337	-0.195
847.7986	-0
847.9635	0.2004
848.1284	0.2382
848.2932	0.126
848.458	-0
848.6228	0.0778
848.7876	0.5429
848.9524	0.7208
849.1172	-1.6067
849.2819	-0
849.4466	0.3418
849.6113	0.1657
849.7759	-0
849.9406	0.2855
850.1052	-1.4193
850.2698	-0
850.4344	1.1139
850.599	-0.2455
850.7635	0.5402
850.928	-0
851.0925	-0
851.257	-0
851.4215	-0
851.5859	-0.0398
851.7503	-0
851.9147	1.3979
852.0791	-0.2233
852.2434	0.2845
852.4078	0.5429
852.5721	0.1025
852.7364	0.1628
852.9007	-0.1011
853.0649	-0
853.2291	0.3991
853.3934	-0
853.5575	-0
853.7217	0.8651
853.8859	-0.4609
854.05	-0.4502
854.2141	0.3345
854.3782	0.4743
854.5423	0.0254
854.7063	0.6436
854.8703	-0.1065
855.0343	0.6794
855.1983	0.2091
855.3623	0.8326
855.5262	-0
855.6901	0.1423
855.854	0.1714
856.0179	-0.0155
856.1818	0.7155
856.3456	-0
856.5094	-0
856.6732	-0
856.837	-1.1628
857.0008	0.1152
857.1645	0.545
857.3282	-0.737
857.4919	0.2061
857.6556	-0.0468
857.8192	-0.1848
857.9828	0.0869
858.1465	0.257
858.31	-0
858.4736	-0.6395
858.6372	-0.065
858.8007	0.0259
858.9642	0.2809
859.1277	0.4935
859.2911	-0.1415
859.4546	-1.5955
859.618	-0
859.7814	-0.3495
859.9448	0.4728
860.1081	-0
860.2715	-1.2587
860.4348	1.3266
860.5981	-0
860.7614	-0
860.9246	-0.0251
861.0879	-0
861.2511	-0
861.4143	-0
861.5774	-0
861.7406	-0.5612
861.9037	-0
862.0668	-1.0597
862.2299	0.1426
862.393	-0
862.556	-0
862.7191	-0.0765
862.8821	0.1271
863.0451	0.5935
863.208	-0
863.371	-0
863.5339	0.4765
863.6968	-0
863.8597	-0
864.0225	-0
864.1854	-0.3656
864.3482	0.6463
864.511	-0
864.6737	0.0336
864.8365	0.0365
864.9992	-0
865.1619	-0.027
865.3246	-2.1079
865.4873	-0
865.65	1.0432
865.8126	-0
865.9752	-0.4642
866.1378	0.1947
866.3004	-0.3607
866.4629	-1.2587
866.6254	0.4027
866.7879	1.5476
866.9504	-0.1976
867.1129	0.6096
867.2753	-0.2978
867.4377	0.5225
867.6001	-0.6362
867.7625	0.112
867.9249	-0
868.0872	-0
868.2495	1.3979
868.4118	-0
868.5741	-0.286
868.7363	-0
868.8986	0.0549
869.0608	-0.1084
869.223	-0.3231
869.3851	-0.7674
869.5473	0.0548
869.7094	-0
869.8715	-0
870.0336	0.0055
870.1957	-0
870.3577	0.3912
870.5197	0.0475
870.6817	-1.0049
870.8437	0.4091
871.0057	0.6527
871.1676	0.5394
871.3295	-0
871.4914	-1.0253
871.6533	-0.0312
871.8151	0.197
871.977	-0
872.1388	0.8797
872.3006	-0.6373
872.4623	-0
872.6241	-0
872.7858	0.7386
872.9475	-0.138
873.1092	0.1334
873.2709	0.5047
873.4325	-1.7974
873.5941	1.1139
873.7557	0.2514
873.9173	-0
874.0789	-0
874.2404	-0
874.4019	0.1443
874.5634	-0
874.7249	0.6526
874.8863	-0.2698
875.0478	0.6945
875.2092	0.9803
875.3706	-0.0713
875.5319	-0
875.6933	-0
875.8546	-0
876.0159	-0
876.1772	-0.2111
876.3385	-0
876.4997	0.5179
876.6609	-0
876.8221	-0
876.9833	-0.3254
877.1445	0.2613
877.3056	-0
877.4667	-0.6817
877.6278	-0
877.7889	-0.34
877.9499	-0
878.111	0.6096
878.272	-0.3203
878.433	0.1035
878.5939	0.457
878.7549	-0
878.9158	-0
879.0767	-0.2262
879.2376	-0
879.3984	1.3556
879.5593	0.4283
879.7201	-0
879.8809	-0
880.0417	0.4157
880.2024	0.178
880.3632	-0.6487
880.5239	0.4748
880.6846	-0.6296
880.8452	0.0859
881.0059	-0
881.1665	0.7204
881.3271	0.3053
881.4877	0.9484
881.6483	-1.1139
881.8088	-0
881.9693	-0.9063
882.1298	-0.9063
882.2903	-0.9063
