Data from D4ACN5uM440nmA_Absorbance_13-50-26-497.txt Node
Date: Fri Feb 21 13:50:26 GMT 2025
User: LASERRRRR
Spectrometer: FLMT03099
Trigger mode: 0
Integration Time (sec): 1.500000E-2
Scans to average: 1
Electric dark correction enabled: true
Nonlinearity correction enabled: false
Boxcar width: 0
XAxis mode: Wavelengths
Number of Pixels in Spectrum: 3648
>>>>>Begin Spectral Data<<<<<
179.3399	-0.9013
179.5586	-0.9013
179.7771	-0.9013
179.9957	-0.1717
180.2143	-0
180.4329	-0.2302
180.6514	-0
180.8699	-0.1954
181.0885	-0.0955
181.307	0.0385
181.5255	0.1083
181.744	0.1379
181.9625	0.1804
182.181	-0.6667
182.3994	-0.1907
182.6179	-0.2952
182.8363	-0
183.0547	0.8744
183.2732	0.0595
183.4916	0.3066
183.71	0.1508
183.9284	0.0613
184.1467	0.2309
184.3651	0.0652
184.5835	0.1093
184.8018	0.2964
185.0201	0.3326
185.2385	0.193
185.4568	-0.0091
185.6751	0.1965
185.8934	0.0971
186.1117	-0.2628
186.3299	0.2687
186.5482	0.1908
186.7664	0.4087
186.9847	-0.0174
187.2029	0.1888
187.4211	0.1512
187.6393	0.1468
187.8575	0.0962
188.0757	0.1263
188.2939	0.1798
188.512	0.2613
188.7302	0.3433
188.9483	0.5887
189.1665	0.4443
189.3846	0.1304
189.6027	0.1424
189.8208	0.3612
190.0389	-0.0051
190.257	0.2724
190.475	0.0628
190.6931	-0.0131
190.9111	0.0688
191.1292	0.1437
191.3472	0.1219
191.5652	0.2294
191.7832	0.1374
192.0012	0.1771
192.2192	0.1851
192.4371	0.1665
192.6551	0.1683
192.873	0.1461
193.091	0.0841
193.3089	0.2132
193.5268	0.2164
193.7447	0.1662
193.9626	0.2738
194.1805	0.2637
194.3984	0.1299
194.6162	0.2407
194.8341	0.3087
195.0519	0.2544
195.2697	0.3364
195.4875	0.3305
195.7054	0.2683
195.9231	0.2623
196.1409	0.3223
196.3587	0.2783
196.5765	0.3262
196.7942	0.3712
197.012	0.3181
197.2297	0.3324
197.4474	0.4009
197.6651	0.3639
197.8828	0.3264
198.1005	0.3968
198.3182	0.3727
198.5358	0.3859
198.7535	0.4041
198.9711	0.4014
199.1888	0.3425
199.4064	0.4316
199.624	0.3687
199.8416	0.376
200.0592	0.4137
200.2767	0.4109
200.4943	0.4679
200.7119	0.4028
200.9294	0.4436
201.1469	0.4353
201.3645	0.4208
201.582	0.3636
201.7995	0.3881
202.017	0.3913
202.2344	0.442
202.4519	0.4257
202.6694	0.4099
202.8868	0.3833
203.1042	0.388
203.3217	0.3653
203.5391	0.3882
203.7565	0.3459
203.9739	0.3643
204.1913	0.3703
204.4086	0.3467
204.626	0.3336
204.8433	0.3706
205.0607	0.3643
205.278	0.3428
205.4953	0.3486
205.7126	0.3667
205.9299	0.3278
206.1472	0.3129
206.3644	0.3397
206.5817	0.3326
206.7989	0.3358
207.0162	0.31
207.2334	0.3548
207.4506	0.2867
207.6678	0.2999
207.885	0.3204
208.1022	0.3198
208.3194	0.3114
208.5365	0.3003
208.7537	0.2999
208.9708	0.2976
209.1879	0.2805
209.405	0.3029
209.6222	0.2756
209.8392	0.2851
210.0563	0.2872
210.2734	0.2662
210.4905	0.2558
210.7075	0.2651
210.9245	0.2527
211.1416	0.2656
211.3586	0.2759
211.5756	0.2584
211.7926	0.2742
212.0096	0.2698
212.2265	0.255
212.4435	0.2712
212.6604	0.2507
212.8774	0.2353
213.0943	0.2518
213.3112	0.2434
213.5281	0.2419
213.745	0.2229
213.9619	0.2514
214.1788	0.2685
214.3956	0.2439
214.6125	0.2437
214.8293	0.2574
215.0461	0.2389
215.2629	0.2427
215.4798	0.2358
215.6965	0.2429
215.9133	0.2343
216.1301	0.2489
216.3469	0.2376
216.5636	0.2447
216.7803	0.2406
216.9971	0.247
217.2138	0.245
217.4305	0.266
217.6472	0.2276
217.8639	0.2567
218.0805	0.2375
218.2972	0.2545
218.5138	0.2646
218.7305	0.2572
218.9471	0.2402
219.1637	0.2748
219.3803	0.2652
219.5969	0.2311
219.8135	0.2655
220.0301	0.2508
220.2466	0.2569
220.4632	0.2409
220.6797	0.2536
220.8962	0.2605
221.1127	0.2633
221.3292	0.2552
221.5457	0.252
221.7622	0.2617
221.9787	0.2852
222.1951	0.2624
222.4116	0.2644
222.628	0.287
222.8444	0.2792
223.0608	0.2649
223.2772	0.2861
223.4936	0.284
223.71	0.2856
223.9264	0.2796
224.1427	0.2742
224.3591	0.2938
224.5754	0.2976
224.7917	0.2942
225.008	0.2874
225.2243	0.2991
225.4406	0.2943
225.6569	0.3022
225.8732	0.3094
226.0894	0.3124
226.3057	0.3046
226.5219	0.3161
226.7381	0.3144
226.9543	0.3022
227.1705	0.3108
227.3867	0.3176
227.6029	0.3314
227.8191	0.3252
228.0352	0.3381
228.2513	0.3459
228.4675	0.3465
228.6836	0.3436
228.8997	0.3348
229.1158	0.3574
229.3319	0.3557
229.548	0.3546
229.764	0.3552
229.9801	0.3639
230.1961	0.3729
230.4121	0.3697
230.6282	0.3865
230.8442	0.3954
231.0602	0.383
231.2761	0.375
231.4921	0.3873
231.7081	0.385
231.924	0.4025
232.14	0.4053
232.3559	0.4096
232.5718	0.4125
232.7877	0.4066
233.0036	0.4164
233.2195	0.4108
233.4353	0.4162
233.6512	0.4158
233.867	0.4199
234.0829	0.4226
234.2987	0.4233
234.5145	0.4374
234.7303	0.4333
234.9461	0.4359
235.1619	0.4392
235.3776	0.4305
235.5934	0.4356
235.8091	0.4386
236.0249	0.4469
236.2406	0.4411
236.4563	0.4502
236.672	0.4293
236.8877	0.4477
237.1034	0.4474
237.319	0.4404
237.5347	0.4468
237.7503	0.4428
237.966	0.4543
238.1816	0.4467
238.3972	0.4583
238.6128	0.4675
238.8284	0.4585
239.0439	0.457
239.2595	0.4595
239.475	0.4612
239.6906	0.4537
239.9061	0.4626
240.1216	0.4656
240.3371	0.4597
240.5526	0.4526
240.7681	0.4597
240.9836	0.4506
241.199	0.4581
241.4145	0.452
241.6299	0.4483
241.8453	0.4422
242.0607	0.4416
242.2761	0.4366
242.4915	0.4317
242.7069	0.4263
242.9223	0.4224
243.1376	0.4114
243.353	0.4167
243.5683	0.4063
243.7836	0.392
243.9989	0.3807
244.2142	0.3803
244.4295	0.374
244.6448	0.37
244.86	0.3528
245.0753	0.36
245.2905	0.3432
245.5057	0.3415
245.721	0.3432
245.9362	0.3395
246.1514	0.3278
246.3665	0.3134
246.5817	0.3027
246.7969	0.2984
247.012	0.2889
247.2271	0.2959
247.4423	0.2905
247.6574	0.2812
247.8725	0.2777
248.0876	0.2747
248.3026	0.2718
248.5177	0.2511
248.7328	0.2591
248.9478	0.2519
249.1628	0.2478
249.3779	0.2425
249.5929	0.2422
249.8079	0.2328
250.0228	0.2333
250.2378	0.2356
250.4528	0.2264
250.6677	0.2259
250.8827	0.2115
251.0976	0.2089
251.3125	0.2176
251.5274	0.2136
251.7423	0.2128
251.9572	0.2061
252.172	0.2092
252.3869	0.2041
252.6017	0.2022
252.8166	0.2022
253.0314	0.1954
253.2462	0.1949
253.461	0.2006
253.6758	0.2002
253.8906	0.1928
254.1053	0.1912
254.3201	0.1933
254.5348	0.1826
254.7496	0.1866
254.9643	0.1892
255.179	0.1855
255.3937	0.194
255.6083	0.193
255.823	0.1878
256.0377	0.1875
256.2523	0.1858
256.467	0.1838
256.6816	0.1814
256.8962	0.1835
257.1108	0.1856
257.3254	0.178
257.54	0.1754
257.7545	0.177
257.9691	0.1781
258.1836	0.1753
258.3981	0.1772
258.6127	0.1706
258.8272	0.186
259.0417	0.172
259.2561	0.1725
259.4706	0.1788
259.6851	0.1814
259.8995	0.1784
260.114	0.1806
260.3284	0.1753
260.5428	0.1818
260.7572	0.176
260.9716	0.1805
261.186	0.1762
261.4003	0.1722
261.6147	0.1773
261.829	0.1793
262.0433	0.1795
262.2577	0.1832
262.472	0.1834
262.6863	0.1836
262.9005	0.1761
263.1148	0.1768
263.3291	0.1842
263.5433	0.1803
263.7576	0.1867
263.9718	0.1807
264.186	0.1808
264.4002	0.184
264.6144	0.1858
264.8286	0.1848
265.0427	0.1899
265.2569	0.1937
265.471	0.1863
265.6851	0.1878
265.8993	0.1836
266.1134	0.1894
266.3275	0.1895
266.5415	0.1905
266.7556	0.188
266.9697	0.1908
267.1837	0.1892
267.3978	0.1899
267.6118	0.1829
267.8258	0.1907
268.0398	0.1921
268.2538	0.1897
268.4677	0.1899
268.6817	0.1884
268.8957	0.1797
269.1096	0.175
269.3235	0.1837
269.5374	0.1882
269.7514	0.1831
269.9652	0.1834
270.1791	0.1756
270.393	0.1815
270.6068	0.1893
270.8207	0.1794
271.0345	0.1795
271.2483	0.1745
271.4622	0.1829
271.676	0.185
271.8897	0.175
272.1035	0.1819
272.3173	0.1809
272.531	0.1779
272.7448	0.1867
272.9585	0.177
273.1722	0.1816
273.3859	0.1805
273.5996	0.1822
273.8133	0.1814
274.0269	0.1771
274.2406	0.1817
274.4542	0.1809
274.6679	0.1873
274.8815	0.1856
275.0951	0.1927
275.3087	0.189
275.5223	0.1852
275.7358	0.1892
275.9494	0.1881
276.1629	0.1922
276.3765	0.1936
276.59	0.1934
276.8035	0.1884
277.017	0.1989
277.2305	0.1912
277.444	0.1922
277.6574	0.1936
277.8709	0.1987
278.0843	0.1977
278.2978	0.1971
278.5112	0.191
278.7246	0.1933
278.938	0.1897
279.1513	0.1917
279.3647	0.1948
279.5781	0.1948
279.7914	0.1896
280.0047	0.1938
280.2181	0.191
280.4314	0.1934
280.6447	0.1923
280.8579	0.1815
281.0712	0.1913
281.2845	0.1854
281.4977	0.1867
281.711	0.1855
281.9242	0.1928
282.1374	0.1897
282.3506	0.1903
282.5638	0.1808
282.7769	0.1846
282.9901	0.1806
283.2033	0.1848
283.4164	0.186
283.6295	0.1811
283.8426	0.1866
284.0557	0.1847
284.2688	0.1849
284.4819	0.1815
284.695	0.1935
284.908	0.1828
285.1211	0.1905
285.3341	0.1799
285.5471	0.1877
285.7601	0.1858
285.9731	0.1878
286.1861	0.1863
286.3991	0.1881
286.612	0.1899
286.825	0.1896
287.0379	0.1862
287.2508	0.1898
287.4637	0.1884
287.6766	0.1885
287.8895	0.1843
288.1024	0.1863
288.3152	0.1857
288.5281	0.1828
288.7409	0.1836
288.9538	0.1872
289.1666	0.1914
289.3794	0.1801
289.5922	0.1852
289.8049	0.1857
290.0177	0.1877
290.2304	0.1823
290.4432	0.194
290.6559	0.1869
290.8686	0.1905
291.0813	0.19
291.294	0.1885
291.5067	0.1874
291.7194	0.1863
291.932	0.1864
292.1447	0.1867
292.3573	0.1856
292.5699	0.1882
292.7825	0.1781
292.9951	0.1825
293.2077	0.1825
293.4203	0.1841
293.6328	0.1846
293.8454	0.192
294.0579	0.1834
294.2704	0.1914
294.4829	0.1844
294.6954	0.187
294.9079	0.1914
295.1204	0.1813
295.3328	0.1901
295.5453	0.1867
295.7577	0.1857
295.9701	0.1881
296.1825	0.1922
296.3949	0.1858
296.6073	0.1801
296.8197	0.1893
297.0321	0.1895
297.2444	0.1832
297.4567	0.1841
297.6691	0.1789
297.8814	0.1889
298.0937	0.1896
298.306	0.1812
298.5182	0.1915
298.7305	0.186
298.9428	0.187
299.155	0.1859
299.3672	0.1863
299.5794	0.1875
299.7916	0.1907
300.0038	0.187
300.216	0.1844
300.4282	0.1908
300.6403	0.1916
300.8525	0.1854
301.0646	0.1907
301.2767	0.1908
301.4888	0.1868
301.7009	0.1895
301.913	0.1876
302.125	0.1878
302.3371	0.1894
302.5491	0.1907
302.7612	0.1968
302.9732	0.1927
303.1852	0.1914
303.3972	0.1881
303.6092	0.1909
303.8211	0.1909
304.0331	0.1862
304.245	0.1812
304.457	0.1809
304.6689	0.1823
304.8808	0.1801
305.0927	0.1862
305.3046	0.1808
305.5164	0.1761
305.7283	0.1741
305.9401	0.1756
306.152	0.1749
306.3638	0.18
306.5756	0.1817
306.7874	0.1679
306.9992	0.1717
307.2109	0.1667
307.4227	0.1634
307.6344	0.1762
307.8462	0.1644
308.0579	0.1684
308.2696	0.1658
308.4813	0.166
308.693	0.1603
308.9046	0.1657
309.1163	0.158
309.328	0.1613
309.5396	0.1587
309.7512	0.157
309.9628	0.1552
310.1744	0.155
310.386	0.1485
310.5976	0.1517
310.8091	0.1501
311.0207	0.1466
311.2322	0.1481
311.4437	0.1428
311.6552	0.1486
311.8667	0.1465
312.0782	0.1417
312.2897	0.1515
312.5012	0.148
312.7126	0.1368
312.924	0.1417
313.1355	0.1403
313.3469	0.1376
313.5583	0.1375
313.7696	0.1374
313.981	0.1472
314.1924	0.1361
314.4037	0.1367
314.6151	0.1329
314.8264	0.1395
315.0377	0.1379
315.249	0.1343
315.4603	0.1329
315.6716	0.1352
315.8828	0.1339
316.0941	0.1411
316.3053	0.1261
316.5165	0.1285
316.7277	0.1286
316.9389	0.1392
317.1501	0.1332
317.3613	0.1305
317.5724	0.1302
317.7836	0.1246
317.9947	0.1283
318.2058	0.1299
318.417	0.1298
318.6281	0.1253
318.8391	0.1336
319.0502	0.1331
319.2613	0.1303
319.4723	0.1305
319.6834	0.137
319.8944	0.1298
320.1054	0.1289
320.3164	0.1251
320.5274	0.132
320.7383	0.1314
320.9493	0.1346
321.1602	0.1256
321.3712	0.1257
321.5821	0.125
321.793	0.1343
322.0039	0.133
322.2148	0.1319
322.4257	0.1238
322.6365	0.1291
322.8474	0.13
323.0582	0.1366
323.269	0.1301
323.4798	0.1281
323.6906	0.1282
323.9014	0.1314
324.1122	0.1219
324.3229	0.132
324.5337	0.1369
324.7444	0.1355
324.9551	0.1356
325.1658	0.1293
325.3765	0.1364
325.5872	0.1377
325.7979	0.1288
326.0085	0.1378
326.2192	0.1327
326.4298	0.1385
326.6404	0.135
326.851	0.1338
327.0616	0.1327
327.2722	0.1345
327.4828	0.1399
327.6933	0.1449
327.9039	0.1345
328.1144	0.1368
328.3249	0.1417
328.5354	0.1398
328.7459	0.1423
328.9564	0.1372
329.1669	0.1427
329.3773	0.1413
329.5878	0.1439
329.7982	0.1446
330.0086	0.1405
330.219	0.1388
330.4294	0.1467
330.6398	0.1402
330.8502	0.1444
331.0605	0.1439
331.2708	0.1498
331.4812	0.1448
331.6915	0.1448
331.9018	0.1422
332.1121	0.1463
332.3224	0.1401
332.5326	0.1446
332.7429	0.145
332.9531	0.1455
333.1633	0.1373
333.3735	0.1381
333.5837	0.1466
333.7939	0.1492
334.0041	0.1506
334.2143	0.1504
334.4244	0.1509
334.6346	0.1458
334.8447	0.1474
335.0548	0.1455
335.2649	0.1477
335.475	0.147
335.685	0.1505
335.8951	0.1402
336.1051	0.1437
336.3152	0.1467
336.5252	0.1413
336.7352	0.1436
336.9452	0.1445
337.1552	0.1442
337.3652	0.1439
337.5751	0.1476
337.7851	0.1463
337.995	0.145
338.2049	0.1419
338.4148	0.1495
338.6247	0.1407
338.8346	0.1444
339.0445	0.1485
339.2543	0.1495
339.4642	0.1491
339.674	0.1464
339.8838	0.1484
340.0936	0.1494
340.3034	0.1437
340.5132	0.1473
340.7229	0.1522
340.9327	0.1571
341.1424	0.1533
341.3522	0.1464
341.5619	0.1526
341.7716	0.1558
341.9813	0.1544
342.1909	0.1601
342.4006	0.1509
342.6102	0.1547
342.8199	0.1525
343.0295	0.1481
343.2391	0.1605
343.4487	0.154
343.6583	0.1645
343.8679	0.1548
344.0774	0.1549
344.287	0.1607
344.4965	0.1661
344.706	0.1628
344.9155	0.1505
345.125	0.1599
345.3345	0.1731
345.544	0.1673
345.7534	0.1614
345.9629	0.1699
346.1723	0.1678
346.3817	0.1609
346.5911	0.1759
346.8005	0.179
347.0099	0.1684
347.2193	0.17
347.4286	0.1784
347.638	0.1734
347.8473	0.1767
348.0566	0.177
348.2659	0.1738
348.4752	0.1724
348.6845	0.1735
348.8937	0.1755
349.103	0.1744
349.3122	0.1763
349.5214	0.1782
349.7306	0.1797
349.9398	0.1733
350.149	0.178
350.3582	0.1771
350.5674	0.1835
350.7765	0.1845
350.9856	0.1768
351.1948	0.1776
351.4039	0.1819
351.613	0.1842
351.822	0.1868
352.0311	0.1839
352.2402	0.1858
352.4492	0.1883
352.6582	0.1888
352.8672	0.1816
353.0762	0.1844
353.2852	0.1837
353.4942	0.1886
353.7032	0.1886
353.9121	0.1791
354.1211	0.1836
354.33	0.1832
354.5389	0.1843
354.7478	0.1758
354.9567	0.1862
355.1655	0.1786
355.3744	0.1832
355.5833	0.1845
355.7921	0.1866
356.0009	0.1851
356.2097	0.1753
356.4185	0.1831
356.6273	0.1753
356.8361	0.1897
357.0448	0.1848
357.2536	0.1875
357.4623	0.1898
357.671	0.1894
357.8797	0.1951
358.0884	0.1829
358.2971	0.1981
358.5057	0.1917
358.7144	0.1888
358.923	0.1899
359.1316	0.1939
359.3402	0.1968
359.5488	0.1905
359.7574	0.2013
359.966	0.2007
360.1746	0.182
360.3831	0.2026
360.5916	0.1894
360.8002	0.2012
361.0087	0.2019
361.2172	0.2038
361.4256	0.2018
361.6341	0.1989
361.8426	0.1972
362.051	0.2005
362.2594	0.2066
362.4678	0.199
362.6762	0.21
362.8846	0.2126
363.093	0.2064
363.3014	0.2125
363.5097	0.208
363.718	0.2136
363.9264	0.2128
364.1347	0.2119
364.343	0.2136
364.5513	0.2091
364.7595	0.2222
364.9678	0.2079
365.176	0.2225
365.3842	0.2232
365.5925	0.2172
365.8007	0.2102
366.0089	0.2212
366.217	0.22
366.4252	0.2162
366.6333	0.2183
366.8415	0.2243
367.0496	0.2154
367.2577	0.2241
367.4658	0.2259
367.6739	0.2155
367.882	0.2288
368.09	0.2197
368.2981	0.2271
368.5061	0.2293
368.7141	0.2217
368.9221	0.237
369.1301	0.234
369.3381	0.231
369.5461	0.2269
369.754	0.2345
369.962	0.2361
370.1699	0.2309
370.3778	0.2365
370.5857	0.2416
370.7936	0.2304
371.0015	0.232
371.2093	0.2358
371.4172	0.2367
371.625	0.245
371.8328	0.2374
372.0406	0.2479
372.2484	0.2312
372.4562	0.2427
372.664	0.242
372.8717	0.2451
373.0795	0.2529
373.2872	0.25
373.4949	0.2482
373.7026	0.239
373.9103	0.2423
374.118	0.2449
374.3256	0.251
374.5333	0.2385
374.7409	0.2477
374.9485	0.2473
375.1561	0.2543
375.3637	0.2448
375.5713	0.2531
375.7789	0.2517
375.9864	0.2532
376.194	0.2597
376.4015	0.2595
376.609	0.2556
376.8165	0.2546
377.024	0.2504
377.2315	0.2585
377.4389	0.2509
377.6464	0.2649
377.8538	0.2593
378.0612	0.2617
378.2686	0.2486
378.476	0.2666
378.6834	0.2582
378.8908	0.2635
379.0981	0.2701
379.3055	0.268
379.5128	0.2551
379.7201	0.2658
379.9274	0.2676
380.1347	0.2633
380.342	0.2771
380.5492	0.2607
380.7565	0.2631
380.9637	0.2638
381.1709	0.2658
381.3781	0.2684
381.5853	0.2683
381.7925	0.2718
381.9997	0.2726
382.2068	0.276
382.4139	0.2733
382.6211	0.2684
382.8282	0.2746
383.0353	0.2744
383.2424	0.274
383.4494	0.2748
383.6565	0.2759
383.8635	0.275
384.0706	0.276
384.2776	0.2744
384.4846	0.2782
384.6916	0.2739
384.8986	0.2804
385.1055	0.2822
385.3125	0.2775
385.5194	0.2815
385.7263	0.2684
385.9333	0.2772
386.1402	0.2801
386.347	0.2735
386.5539	0.2766
386.7608	0.2667
386.9676	0.2786
387.1744	0.2805
387.3813	0.2735
387.5881	0.275
387.7948	0.278
388.0016	0.2783
388.2084	0.2854
388.4151	0.2771
388.6219	0.27
388.8286	0.2737
389.0353	0.2757
389.242	0.28
389.4487	0.2689
389.6553	0.2604
389.862	0.2623
390.0686	0.279
390.2753	0.2779
390.4819	0.2634
390.6885	0.2674
390.8951	0.2729
391.1016	0.2693
391.3082	0.2763
391.5147	0.2651
391.7213	0.2592
391.9278	0.2642
392.1343	0.2609
392.3408	0.2589
392.5473	0.2549
392.7537	0.2569
392.9602	0.2542
393.1666	0.253
393.373	0.2548
393.5794	0.2547
393.7858	0.2606
393.9922	0.247
394.1986	0.2525
394.4049	0.2511
394.6113	0.2463
394.8176	0.2524
395.0239	0.2459
395.2302	0.2502
395.4365	0.2411
395.6428	0.2461
395.8491	0.2475
396.0553	0.2351
396.2615	0.2565
396.4678	0.2519
396.674	0.2378
396.8802	0.2434
397.0863	0.2431
397.2925	0.2392
397.4987	0.2395
397.7048	0.2498
397.9109	0.2411
398.117	0.2332
398.3231	0.233
398.5292	0.2326
398.7353	0.2272
398.9413	0.2296
399.1474	0.2371
399.3534	0.2401
399.5594	0.233
399.7654	0.2293
399.9714	0.2417
400.1774	0.2316
400.3833	0.2365
400.5893	0.2271
400.7952	0.2371
401.0011	0.2232
401.207	0.2326
401.4129	0.2307
401.6188	0.23
401.8247	0.2399
402.0305	0.2294
402.2364	0.2396
402.4422	0.2375
402.648	0.231
402.8538	0.236
403.0596	0.2239
403.2654	0.2307
403.4711	0.2344
403.6768	0.2354
403.8826	0.2345
404.0883	0.2279
404.294	0.2325
404.4997	0.2371
404.7054	0.2269
404.911	0.2316
405.1167	0.2393
405.3223	0.2339
405.5279	0.2364
405.7335	0.2244
405.9391	0.2277
406.1447	0.2361
406.3502	0.2279
406.5558	0.2425
406.7613	0.2235
406.9668	0.2326
407.1724	0.2207
407.3778	0.2343
407.5833	0.2271
407.7888	0.2298
407.9942	0.2336
408.1997	0.2313
408.4051	0.2238
408.6105	0.235
408.8159	0.2279
409.0213	0.2367
409.2267	0.2335
409.432	0.2254
409.6374	0.2326
409.8427	0.2347
410.048	0.2292
410.2533	0.226
410.4586	0.2315
410.6639	0.2341
410.8691	0.2203
411.0744	0.231
411.2796	0.2265
411.4848	0.2394
411.69	0.2223
411.8952	0.2298
412.1004	0.2305
412.3056	0.2296
412.5107	0.235
412.7158	0.2334
412.921	0.2237
413.1261	0.2271
413.3312	0.2325
413.5362	0.2319
413.7413	0.2259
413.9464	0.2216
414.1514	0.2252
414.3564	0.227
414.5614	0.2271
414.7664	0.2153
414.9714	0.2228
415.1764	0.2381
415.3813	0.2193
415.5863	0.2326
415.7912	0.2221
415.9961	0.2243
416.201	0.2241
416.4059	0.2347
416.6108	0.223
416.8156	0.2297
417.0205	0.224
417.2253	0.2238
417.4301	0.2307
417.6349	0.2272
417.8397	0.2297
418.0445	0.2208
418.2492	0.2149
418.454	0.2242
418.6587	0.2246
418.8634	0.2179
419.0681	0.2266
419.2728	0.2098
419.4775	0.2297
419.6822	0.2221
419.8868	0.2161
420.0915	0.2106
420.2961	0.2115
420.5007	0.2188
420.7053	0.2131
420.9099	0.2222
421.1144	0.2142
421.319	0.2065
421.5235	0.2112
421.728	0.2153
421.9325	0.2089
422.137	0.2093
422.3415	0.2099
422.546	0.212
422.7504	0.2167
422.9549	0.2103
423.1593	0.1991
423.3637	0.2023
423.5681	0.2135
423.7725	0.2108
423.9769	0.2086
424.1812	0.1989
424.3856	0.2015
424.5899	0.2072
424.7942	0.2023
424.9985	0.1922
425.2028	0.208
425.4071	0.2008
425.6113	0.196
425.8156	0.1968
426.0198	0.1998
426.224	0.1974
426.4282	0.1972
426.6324	0.1909
426.8366	0.1864
427.0407	0.1901
427.2449	0.1895
427.449	0.1898
427.6531	0.1869
427.8572	0.1895
428.0613	0.1887
428.2654	0.1818
428.4694	0.1793
428.6735	0.1753
428.8775	0.1772
429.0815	0.1793
429.2855	0.1762
429.4895	0.176
429.6935	0.1777
429.8975	0.1601
430.1014	0.1794
430.3053	0.1716
430.5093	0.1706
430.7132	0.1678
430.9171	0.171
431.1209	0.1686
431.3248	0.1511
431.5286	0.1587
431.7325	0.1673
431.9363	0.1571
432.1401	0.1523
432.3439	0.1583
432.5477	0.1481
432.7514	0.1559
432.9552	0.1539
433.1589	0.146
433.3627	0.1492
433.5664	0.1475
433.7701	0.1553
433.9737	0.1552
434.1774	0.1523
434.3811	0.1467
434.5847	0.1422
434.7883	0.1452
434.9919	0.133
435.1955	0.1404
435.3991	0.1395
435.6027	0.1321
435.8062	0.1517
436.0098	0.1275
436.2133	0.1247
436.4168	0.1391
436.6203	0.1248
436.8238	0.1277
437.0272	0.1265
437.2307	0.1208
437.4341	0.122
437.6375	0.1221
437.841	0.1096
438.0443	0.1167
438.2477	0.1107
438.4511	0.106
438.6545	0.1103
438.8578	0.1115
439.0611	0.1127
439.2644	0.112
439.4677	0.1081
439.671	0.0988
439.8743	0.1087
440.0775	0.1013
440.2808	0.105
440.484	0.0945
440.6872	0.0988
440.8904	0.0868
441.0936	0.0965
441.2967	0.0845
441.4999	0.0873
441.703	0.0945
441.9062	0.0929
442.1093	0.0904
442.3124	0.0928
442.5155	0.0896
442.7185	0.0835
442.9216	0.0819
443.1246	0.0794
443.3276	0.0828
443.5307	0.0815
443.7337	0.0727
443.9366	0.0673
444.1396	0.0696
444.3426	0.0811
444.5455	0.0696
444.7484	0.0725
444.9513	0.0758
445.1542	0.0714
445.3571	0.0717
445.56	0.0653
445.7628	0.0656
445.9657	0.074
446.1685	0.0643
446.3713	0.0602
446.5741	0.0625
446.7769	0.0646
446.9797	0.0587
447.1824	0.0558
447.3852	0.0407
447.5879	0.0593
447.7906	0.0513
447.9933	0.0618
448.196	0.0436
448.3986	0.0524
448.6013	0.0489
448.8039	0.0552
449.0066	0.0515
449.2092	0.0539
449.4118	0.0451
449.6143	0.0439
449.8169	0.0491
450.0195	0.0396
450.222	0.0519
450.4245	0.0532
450.627	0.0419
450.8295	0.0446
451.032	0.045
451.2345	0.0373
451.4369	0.0488
451.6394	0.0428
451.8418	0.0452
452.0442	0.032
452.2466	0.0354
452.449	0.0399
452.6513	0.0353
452.8537	0.027
453.056	0.039
453.2583	0.0346
453.4607	0.0286
453.663	0.0386
453.8652	0.0311
454.0675	0.035
454.2697	0.0303
454.472	0.0254
454.6742	0.0294
454.8764	0.0283
455.0786	0.0286
455.2808	0.02
455.4829	0.0311
455.6851	0.0254
455.8872	0.0241
456.0893	0.0231
456.2915	0.0224
456.4935	0.029
456.6956	0.0302
456.8977	0.0207
457.0997	0.0264
457.3018	0.021
457.5038	0.0319
457.7058	0.0232
457.9078	0.0234
458.1098	0.028
458.3117	0.021
458.5137	0.0135
458.7156	0.0319
458.9175	0.0216
459.1194	0.0159
459.3213	0.0121
459.5232	0.0276
459.725	0.0175
459.9269	0.0143
460.1287	0.0052
460.3305	0.0188
460.5323	0.0135
460.7341	0.0193
460.9359	0.015
461.1376	0.0179
461.3394	0.0189
461.5411	0.0246
461.7428	0.0256
461.9445	0.0058
462.1462	0.0108
462.3479	0.0094
462.5495	0.0082
462.7512	0.0247
462.9528	0.0084
463.1544	0.0085
463.356	0.004
463.5576	0.0228
463.7592	0.0127
463.9607	0.0153
464.1623	0.0101
464.3638	0.0064
464.5653	0.0192
464.7668	0.0136
464.9683	0.0133
465.1697	0.0082
465.3712	0.0028
465.5726	0.0125
465.7741	0.0186
465.9755	0.0178
466.1769	0.0107
466.3782	0.0072
466.5796	0.0154
466.7809	0.0151
466.9823	0.012
467.1836	0.0134
467.3849	0.0162
467.5862	0.0003
467.7875	-0.0018
467.9887	0.0112
468.19	0.0124
468.3912	0.0233
468.5924	0.0018
468.7936	0.0123
468.9948	0.0141
469.196	0.0026
469.3972	-0.0013
469.5983	0.0166
469.7994	0.023
470.0006	0.007
470.2017	0.0052
470.4027	0.0135
470.6038	0.0122
470.8049	0.0146
471.0059	0.0077
471.2069	0.0153
471.408	0.0159
471.6089	0.0019
471.8099	0.0102
472.0109	0.0183
472.2119	0.0283
472.4128	0.0139
472.6137	0.0167
472.8146	0.007
473.0155	0.0178
473.2164	0.0033
473.4173	0.0014
473.6181	0.0035
473.819	0.0022
474.0198	-0.0006
474.2206	0.006
474.4214	0.0039
474.6222	0.0011
474.8229	0.0047
475.0237	0.0119
475.2244	0.0133
475.4251	0.0025
475.6258	0.003
475.8265	0.0071
476.0272	-0.002
476.2278	0.003
476.4285	-0.0007
476.6291	0.0129
476.8297	0.0118
477.0303	0.0075
477.2309	0.0117
477.4315	0.0059
477.632	0.0025
477.8326	0.0046
478.0331	0.0134
478.2336	0.0048
478.4341	0.0128
478.6346	0.0022
478.8351	-0.0034
479.0355	0.0083
479.236	0.009
479.4364	0.006
479.6368	0.0044
479.8372	0.0052
480.0376	0.0072
480.2379	0.0046
480.4383	0.0077
480.6386	-0.0061
480.8389	0.0042
481.0392	0.0027
481.2395	0.0121
481.4398	0.0093
481.6401	0.0072
481.8403	0.0047
482.0405	0.0044
482.2408	0.0049
482.441	0.0138
482.6411	0.0078
482.8413	0.0057
483.0415	0.0108
483.2416	0.0063
483.4417	0.0044
483.6419	0.0087
483.8419	0.014
484.042	0.0025
484.2421	-0.0015
484.4422	0.0054
484.6422	0.0081
484.8422	0.0014
485.0422	0.0049
485.2422	0.0016
485.4422	0.0057
485.6422	0.0026
485.8421	-0.0004
486.042	0.0136
486.242	0.0007
486.4419	0.0067
486.6417	0.001
486.8416	0.0053
487.0415	0.0033
487.2413	-0.0001
487.4411	0.0048
487.641	0.0043
487.8408	0.0078
488.0405	0.0089
488.2403	-0.0029
488.4401	0.0108
488.6398	0.0045
488.8395	0.0063
489.0392	0.0044
489.2389	0.0067
489.4386	-0
489.6383	0.0063
489.8379	-0.0018
490.0376	0.0051
490.2372	0.0005
490.4368	0.0009
490.6364	0.006
490.836	0.0004
491.0355	0.0007
491.2351	0.005
491.4346	0.0085
491.6341	-0.0016
491.8336	0.0066
492.0331	0.0043
492.2326	0.0127
492.432	-0.0031
492.6315	0.0136
492.8309	0.0035
493.0303	0.0014
493.2297	0.008
493.4291	0.0113
493.6284	0.0097
493.8278	0.0017
494.0271	0.0058
494.2264	-0.0027
494.4257	0.0039
494.625	0.002
494.8243	-0.0065
495.0236	0.0102
495.2228	0.0096
495.422	0.0046
495.6213	0.0099
495.8205	0.0108
496.0196	0.0067
496.2188	0.0069
496.418	0.0037
496.6171	0.0091
496.8162	0.0019
497.0153	0.0075
497.2144	0.0069
497.4135	0.0036
497.6126	0.0021
497.8116	-0.0018
498.0107	0.0043
498.2097	0.0052
498.4087	0.0078
498.6077	-0.0009
498.8067	-0.0026
499.0056	-0.0004
499.2046	0.0137
499.4035	0.0075
499.6024	-0.0003
499.8013	0.0133
500.0002	0.0061
500.199	0.0075
500.3979	-0.0033
500.5967	0.0027
500.7956	0.0026
500.9944	0.0109
501.1932	0.0096
501.3919	0.0082
501.5907	0.0092
501.7895	0.0019
501.9882	0.0057
502.1869	0.0123
502.3856	0.0083
502.5843	0.0098
502.783	0.0106
502.9816	0.0084
503.1803	0.0092
503.3789	0.0093
503.5775	0.0123
503.7761	0.0047
503.9747	0.0028
504.1732	-0.0023
504.3718	0.0142
504.5703	0.001
504.7689	-0.0069
504.9674	0.0063
505.1658	0.0038
505.3643	0.0076
505.5628	0.0086
505.7612	0.005
505.9597	-0.0047
506.1581	-0.001
506.3565	0.006
506.5549	0.0006
506.7532	0.0018
506.9516	0.0055
507.1499	0.0054
507.3482	0.006
507.5465	0.0029
507.7448	0.0107
507.9431	0.0058
508.1414	-0.0005
508.3396	0.0077
508.5379	-0.0018
508.7361	-0.0026
508.9343	0.008
509.1325	0.0077
509.3306	0.003
509.5288	-0.008
509.7269	0.0021
509.9251	0.0077
510.1232	0.0086
510.3213	0.0007
510.5193	0.0008
510.7174	0.0008
510.9154	0.0039
511.1135	-0.0028
511.3115	0.0072
511.5095	0.0025
511.7075	0.0095
511.9055	0.0087
512.1034	0.0004
512.3014	0.0031
512.4993	0.0016
512.6972	0.0011
512.8951	0.007
513.093	0.0051
513.2908	0.0074
513.4887	0.009
513.6865	0.0004
513.8844	0.0077
514.0822	0.0094
514.2799	-0.0015
514.4777	-0.0055
514.6755	0.0093
514.8732	0.0064
515.0709	0.0114
515.2687	0.0054
515.4664	0.017
515.664	0.0098
515.8617	0.0094
516.0594	0.0006
516.257	0.0016
516.4546	0.0207
516.6522	0.0039
516.8498	0.0104
517.0474	0.0113
517.2449	0.0021
517.4425	0.0102
517.64	0.0047
517.8375	0.0141
518.035	-0.0018
518.2325	0.0076
518.43	0.005
518.6274	0.0048
518.8249	0.0113
519.0223	0.0123
519.2197	0.0034
519.4171	0.0044
519.6145	0.0131
519.8118	-0.0067
520.0092	0.0012
520.2065	0.0087
520.4038	0.0073
520.6011	0.007
520.7984	0.0038
520.9956	0.0078
521.1929	0.0094
521.3901	0.0052
521.5874	0.0124
521.7846	-0.0003
521.9818	0.0015
522.1789	0.0023
522.3761	0.0132
522.5732	0.0023
522.7704	-0.0016
522.9675	-0.0019
523.1646	0.0041
523.3617	0.0085
523.5587	0.0049
523.7558	0.0203
523.9528	0.0098
524.1498	0.0047
524.3468	0.0078
524.5438	0.0011
524.7408	0.0068
524.9378	0.0159
525.1347	0.0071
525.3316	0.0058
525.5285	0.0067
525.7254	0.0085
525.9223	0.0067
526.1192	0.0023
526.316	0.0154
526.5129	0.0062
526.7097	0.0024
526.9065	0.0117
527.1033	-0.0002
527.3	-0.0007
527.4968	0.0121
527.6935	-0.005
527.8903	0.0075
528.087	0.0077
528.2837	0.0151
528.4804	0.0013
528.677	-0.0015
528.8737	0.0003
529.0703	0.0069
529.2669	0.0108
529.4635	0.0002
529.6601	0.0041
529.8567	0.0001
530.0532	0.0142
530.2498	0.0093
530.4463	-0.0086
530.6428	0.0011
530.8393	0.007
531.0358	0.0015
531.2322	-0.0006
531.4287	-0.0012
531.6251	-0.0043
531.8215	0.0038
532.0179	0.0042
532.2143	0.0076
532.4107	0.0083
532.607	-0.0005
532.8034	-0.0003
532.9997	-0.0021
533.196	0.0077
533.3923	0.0108
533.5886	0.003
533.7848	0.0053
533.9811	0.0145
534.1773	0.0046
534.3735	0.0031
534.5697	-0.0055
534.7659	0.0056
534.9621	0.0136
535.1582	0.0053
535.3544	0.012
535.5505	0.0049
535.7466	0.0145
535.9427	0.0078
536.1387	0.0006
536.3348	0.0091
536.5308	0.0006
536.7269	0.0084
536.9229	0.0023
537.1189	0.0091
537.3148	-0.0001
537.5108	0.0094
537.7068	0.0152
537.9027	-0.0046
538.0986	0.0102
538.2945	0.0085
538.4904	-0.0055
538.6863	0.0073
538.8821	0.0126
539.078	0.0039
539.2738	0.0048
539.4696	-0.0032
539.6654	0.0042
539.8611	0.005
540.0569	0.0063
540.2526	0.0235
540.4484	0.0002
540.6441	0.0044
540.8398	0.0096
541.0355	0.0003
541.2311	0.0046
541.4268	0.0166
541.6224	0.0136
541.818	0.0069
542.0136	0.0161
542.2092	0.0171
542.4048	0.0089
542.6003	0.0071
542.7959	0.0018
542.9914	-0.0055
543.1869	0.0043
543.3824	0.011
543.5779	0.0095
543.7734	0.015
543.9688	0.0064
544.1642	-0.0045
544.3596	0.0041
544.555	0.0039
544.7504	0.0112
544.9458	0.0031
545.1411	0.0065
545.3365	0.0086
545.5318	0.0055
545.7271	0.0088
545.9224	-0.0018
546.1177	0.0067
546.3129	0.0036
546.5081	0.0038
546.7034	-0.0027
546.8986	0.0092
547.0938	0.0106
547.289	0.0173
547.4841	0.0004
547.6793	0.0101
547.8744	0.0101
548.0695	-0.0098
548.2646	0.0117
548.4597	-0.0031
548.6548	0.0128
548.8498	0.0071
549.0448	0.0149
549.2399	0.0164
549.4349	-0.0033
549.6298	0.0023
549.8248	0.0025
550.0198	0.0111
550.2147	0.0006
550.4096	0.0019
550.6045	0.0064
550.7994	0.0041
550.9943	0.0198
551.1892	-0.009
551.384	0.0067
551.5788	0.0066
551.7737	0.002
551.9685	0.0064
552.1632	-0.0005
552.358	0.0003
552.5528	0.0094
552.7475	0.0052
552.9422	0.0053
553.1369	0.0203
553.3316	0.0089
553.5263	0.0113
553.7209	0.0058
553.9156	0.0066
554.1102	-0.0007
554.3048	0.0009
554.4994	0.0097
554.694	0.0075
554.8885	0.014
555.0831	0.0086
555.2776	0.0085
555.4721	0.0164
555.6666	0.01
555.8611	0.0013
556.0555	0.0201
556.25	0.0077
556.4444	0.0012
556.6388	0.0023
556.8332	0.0042
557.0276	0.0047
557.222	-0.0033
557.4163	0
557.6107	0.007
557.805	-0.0024
557.9993	0.0133
558.1936	0.0038
558.3879	0.008
558.5821	0.0043
558.7764	0.0099
558.9706	0.0004
559.1648	0.0119
559.359	-0.007
559.5532	-0.0043
559.7473	-0.0034
559.9415	0.01
560.1356	0.0128
560.3297	0.0009
560.5238	0.0115
560.7179	-0.0096
560.9119	0.0044
561.106	-0.0007
561.3	0.0074
561.494	-0.0078
561.688	0.0011
561.882	0.0084
562.076	0.0043
562.2699	0.018
562.4639	0.0088
562.6578	0.0046
562.8517	-0.0017
563.0456	0.0046
563.2395	0.0157
563.4333	0.0034
563.6272	0.0034
563.821	-0.0015
564.0148	-0.0015
564.2086	0.0056
564.4024	0.0163
564.5961	0.0097
564.7899	0.0099
564.9836	0.0073
565.1773	0.0131
565.371	0.0035
565.5647	0.0121
565.7584	0.018
565.952	0.0057
566.1456	-0.0003
566.3393	0.0113
566.5329	0.0078
566.7264	0.0048
566.92	0.0052
567.1136	0.0041
567.3071	-0.0005
567.5006	0.0107
567.6941	0.0046
567.8876	0.0048
568.0811	0.0175
568.2745	-0.0009
568.468	0.0062
568.6614	0.0119
568.8548	0.0099
569.0482	0.006
569.2416	0.0057
569.4349	0.004
569.6283	0.0068
569.8216	0.0077
570.0149	0.0012
570.2082	0.0098
570.4015	0.0055
570.5947	0.0061
570.788	0.0068
570.9812	0.004
571.1744	0.003
571.3676	0.0103
571.5608	0.0012
571.754	0.0162
571.9471	0.0119
572.1402	0.0037
572.3333	0.0086
572.5264	0.005
572.7195	-0.0005
572.9126	0.0064
573.1057	0.0116
573.2987	0.0063
573.4917	0.0028
573.6847	0.0017
573.8777	0.0115
574.0707	0.0044
574.2636	0.0032
574.4566	0.0015
574.6495	0.0009
574.8424	0.0062
575.0353	0.0084
575.2281	0.01
575.421	0.0029
575.6138	0.0032
575.8067	0.0035
575.9995	0.0066
576.1923	0.0057
576.385	0.0042
576.5778	0.0091
576.7706	0.0045
576.9633	0.007
577.156	-0.0029
577.3487	0.0034
577.5414	0.0017
577.734	0.0018
577.9267	0.0076
578.1193	0.0077
578.3119	0.0059
578.5045	0.0048
578.6971	-0.0006
578.8897	0.0024
579.0822	0.0112
579.2747	0.0058
579.4673	0.0052
579.6598	0.0069
579.8522	0.0039
580.0447	0.0059
580.2372	0.0105
580.4296	0.0043
580.622	0.0021
580.8144	0.0055
581.0068	0.0038
581.1992	0.0033
581.3915	-0
581.5839	0.0059
581.7762	0.0023
581.9685	0.004
582.1608	0.0022
582.353	0.0053
582.5453	0.0021
582.7375	0.0068
582.9298	-0.0011
583.122	-0.0004
583.3142	0.0034
583.5063	0.0042
583.6985	0.0019
583.8906	0.0065
584.0827	0.009
584.2749	0.0051
584.4669	0.0039
584.659	0.0079
584.8511	0.0082
585.0431	0.0083
585.2352	0.0028
585.4272	0.0056
585.6192	0.0046
585.8111	0.0002
586.0031	0.0045
586.195	0.0042
586.387	0.0022
586.5789	0.01
586.7708	0.0076
586.9627	0.0073
587.1545	0.0066
587.3464	0.005
587.5382	0.0037
587.73	0.0091
587.9218	0.0004
588.1136	-0.0004
588.3053	0.0043
588.4971	0.0019
588.6888	0.0031
588.8805	0.0047
589.0722	0.0135
589.2639	0.006
589.4556	0.0051
589.6472	0.0102
589.8389	0.0018
590.0305	0.0066
590.2221	0.0082
590.4137	-0.001
590.6052	0.0033
590.7968	0.0016
590.9883	0.0071
591.1798	0.0091
591.3713	-0.0004
591.5628	0.0014
591.7543	0.0033
591.9458	0.0061
592.1372	0.0089
592.3286	0.0029
592.52	0.0058
592.7114	0.0028
592.9028	0.0091
593.0941	0.0089
593.2855	0.0021
593.4768	0.0114
593.6681	0.0073
593.8594	0.007
594.0506	0.006
594.2419	0.0044
594.4331	0.0048
594.6244	0.0015
594.8156	0.0004
595.0067	-0.0024
595.1979	-0.0008
595.3891	0.005
595.5802	0.0104
595.7713	0.0072
595.9624	0.0107
596.1535	0.0111
596.3446	0.0025
596.5357	0.0043
596.7267	0.0036
596.9177	0.003
597.1087	0.0029
597.2997	0.0056
597.4907	-0.0028
597.6817	0.0103
597.8726	0.0122
598.0635	-0.0009
598.2544	0.0071
598.4453	0.0052
598.6362	-0.0005
598.827	-0.0002
599.0179	0.01
599.2087	0.0058
599.3995	0.0071
599.5903	0.0121
599.7811	0.0134
599.9718	-0.0006
600.1626	0.0011
600.3533	0.0003
600.544	0.0047
600.7347	0.005
600.9254	0.0113
601.116	0.0032
601.3067	0.0064
601.4973	0.0067
601.6879	0.006
601.8785	0.0105
602.0691	0.006
602.2596	0.0083
602.4502	0.0086
602.6407	0.006
602.8312	0.0054
603.0217	0.0039
603.2122	0.0061
603.4027	0.0028
603.5931	0.0031
603.7835	0.0081
603.9739	0.0036
604.1643	0.0079
604.3547	0.0063
604.5451	0.0122
604.7354	-0.0044
604.9257	0.0017
605.116	0.0013
605.3063	0.0063
605.4966	0.0017
605.6869	0.0058
605.8771	0.0033
606.0673	0.0091
606.2575	0.0027
606.4477	0.0095
606.6379	0.0029
606.8281	-0.0001
607.0182	0.0008
607.2083	0.0067
607.3985	-0.0008
607.5885	0.0003
607.7786	0.0037
607.9687	0.0078
608.1587	0.0063
608.3488	0.0108
608.5388	0.0009
608.7288	-0.0001
608.9187	-0.0014
609.1087	0.0098
609.2986	0.0028
609.4886	0.0061
609.6785	0.0122
609.8684	-0.0066
610.0582	-0.0014
610.2481	-0.0012
610.4379	0.0019
610.6278	0.0002
610.8176	0.0116
611.0074	0.0014
611.1971	0.0104
611.3869	-0.001
611.5766	-0.0039
611.7664	0.0095
611.9561	0.009
612.1458	0.0034
612.3354	0.0075
612.5251	-0.0031
612.7147	0.0095
612.9044	-0.0017
613.094	0.0063
613.2836	0.0056
613.4731	0.0102
613.6627	0.0038
613.8522	0.0002
614.0417	0.0044
614.2313	0.0025
614.4207	0.0089
614.6102	0.0148
614.7997	0.0124
614.9891	0.0066
615.1785	-0.0012
615.3679	0.0078
615.5573	0.0025
615.7467	0.0043
615.9361	0.0053
616.1254	0.0115
616.3147	0.0077
616.504	0.0054
616.6933	0.0034
616.8826	-0.0022
617.0718	0.013
617.2611	0.0107
617.4503	0.0016
617.6395	0.0086
617.8287	0.0133
618.0179	0.006
618.207	0.0104
618.3961	0.0032
618.5853	0.0077
618.7744	0.0189
618.9634	0.0198
619.1525	0.0053
619.3416	0.0033
619.5306	0.0133
619.7196	0.0067
619.9086	0.0002
620.0976	-0.0062
620.2866	0.0144
620.4755	-0.0007
620.6645	0.0114
620.8534	0.0067
621.0423	0.0043
621.2312	0.0012
621.42	0.0046
621.6089	-0.0008
621.7977	0.0113
621.9865	-0.003
622.1753	0.0004
622.3641	-0.0037
622.5529	-0.0055
622.7416	-0.0053
622.9303	0.0003
623.1191	0.0099
623.3078	0.0051
623.4964	-0.0019
623.6851	0.0048
623.8737	0.0007
624.0624	-0.0104
624.251	0.0078
624.4396	0.0044
624.6282	0.0154
624.8167	0.0081
625.0053	0.0191
625.1938	0.0103
625.3823	0.0126
625.5708	0.0055
625.7593	-0.003
625.9477	0.0091
626.1362	-0.0021
626.3246	-0.0013
626.513	-0.0069
626.7014	0.0097
626.8898	0.0074
627.0781	0.0006
627.2665	0.01
627.4548	0.0047
627.6431	0.0102
627.8314	0.009
628.0197	0.0115
628.2079	-0.0001
628.3962	0.0031
628.5844	0.0064
628.7726	0.004
628.9608	0.0086
629.1489	0.0004
629.3371	-0.0009
629.5252	0.007
629.7134	0.0005
629.9015	0.0171
630.0895	-0.004
630.2776	0.0077
630.4657	0.014
630.6537	0.0069
630.8417	-0.0171
631.0297	-0.0032
631.2177	0.0011
631.4057	0.0106
631.5936	-0.0087
631.7815	0.0026
631.9695	0.0288
632.1574	0.0115
632.3452	0.0119
632.5331	0.009
632.7209	0.0166
632.9088	-0.0068
633.0966	0.012
633.2844	0.007
633.4722	0.0063
633.6599	0.0145
633.8477	0.0079
634.0354	0.0197
634.2231	-0.0128
634.4108	0.006
634.5985	0.0121
634.7861	-0.0019
634.9738	0.0027
635.1614	0.0002
635.349	0.0059
635.5366	0.0095
635.7242	-0.0035
635.9117	0.015
636.0993	0.0014
636.2868	-0.0057
636.4743	0.0045
636.6618	-0.0017
636.8492	0.0093
637.0367	0.003
637.2241	0.0034
637.4115	0.023
637.5989	0.0029
637.7863	0.0216
637.9737	0.0041
638.161	0.0113
638.3484	-0.0018
638.5357	0.0002
638.723	0.0081
638.9103	-0.0135
639.0975	-0.0116
639.2848	0.0242
639.472	0.0127
639.6592	-0.0099
639.8464	0.0178
640.0336	0.0089
640.2208	-0.0009
640.4079	0.0059
640.595	-0.0049
640.7821	0.0063
640.9692	0.0025
641.1563	0.0259
641.3434	0.0052
641.5304	0.0174
641.7174	0.0019
641.9044	0.0075
642.0914	0.0165
642.2784	-0.0014
642.4653	-0.0063
642.6523	0.008
642.8392	-0.0039
643.0261	0.0147
643.213	0.0031
643.3999	0.0217
643.5867	0.0026
643.7735	0.0125
643.9604	0.0039
644.1472	0.009
644.3339	-0.0032
644.5207	0.0088
644.7075	0.0094
644.8942	-0.007
645.0809	0.0012
645.2676	-0.0209
645.4543	0
645.6409	0.0056
645.8276	0.0146
646.0142	0.0038
646.2008	-0.0078
646.3874	-0.0044
646.574	-0.0008
646.7605	0.0037
646.9471	-0.016
647.1336	-0.0331
647.3201	0.0008
647.5066	0.0103
647.6931	0.0087
647.8795	0.0106
648.0659	0.0138
648.2524	0.0327
648.4388	0.016
648.6252	0.0151
648.8115	0.0019
648.9979	0.0077
649.1842	0.0139
649.3705	0.0085
649.5568	-0.0078
649.7431	-0.0074
649.9294	-0.0067
650.1156	0.0091
650.3018	0.0056
650.488	0.0055
650.6742	0.0089
650.8604	0.0185
651.0466	-0.0067
651.2327	-0.0035
651.4188	0.0003
651.6049	0.0205
651.791	0.0058
651.9771	0.025
652.1632	0.0036
652.3492	0.0036
652.5352	0.011
652.7212	0.0101
652.9072	-0.0042
653.0932	0.0151
653.2791	0.008
653.465	-0.0139
653.651	0.009
653.8369	0.0094
654.0227	-0.0052
654.2086	0.0162
654.3944	0.0123
654.5803	0.0075
654.7661	0.0037
654.9519	-0.0026
655.1377	-0
655.3234	-0
655.5092	-0
655.6949	-0
655.8806	-0
656.0663	-0
656.2519	-0
656.4376	-0
656.6232	-0
656.8088	-0
656.9945	-0
657.18	-0
657.3656	-0
657.5511	-0
657.7367	-0
657.9222	-0
658.1077	-0
658.2932	-0
658.4786	-0
658.6641	-0
658.8495	-0
659.0349	-0
659.2203	-0
659.4057	-0
659.591	0.1454
659.7764	0.0285
659.9617	0.0021
660.147	0.0145
660.3323	0.0126
660.5176	0.0183
660.7028	-0.0195
660.888	0.0046
661.0733	0.0201
661.2585	-0.0012
661.4436	0.0089
661.6288	0.0036
661.8139	0.0033
661.9991	-0.0294
662.1842	0.0008
662.3693	0.0217
662.5544	0.0173
662.7394	0.0271
662.9245	0.0089
663.1095	-0.0266
663.2945	-0.003
663.4795	-0.0032
663.6644	-0.0018
663.8494	0.013
664.0343	0.0054
664.2193	0.0096
664.4042	0.0008
664.589	-0.0004
664.7739	0.0185
664.9587	-0.0112
665.1436	-0.0017
665.3284	0.0008
665.5132	-0.0229
665.698	0.0247
665.8827	0.0048
666.0675	-0.0304
666.2522	0.0035
666.4369	0.0126
666.6216	0.0011
666.8063	0.023
666.9909	0.012
667.1756	0.007
667.3602	-0.0032
667.5448	0.0036
667.7294	0.0433
667.9139	-0.0058
668.0985	0.0103
668.283	-0.0054
668.4675	0.0124
668.652	0.0419
668.8365	-0.0062
669.0209	0.0065
669.2054	0.0007
669.3898	-0.0037
669.5742	0.0163
669.7586	0.0073
669.943	0.0065
670.1273	0.0077
670.3117	0.0137
670.496	-0.0107
670.6803	-0.0017
670.8646	-0.0251
671.0488	0.0317
671.2331	-0.0101
671.4173	0.0017
671.6015	0.0096
671.7857	0.014
671.9699	0.0238
672.1541	0.0024
672.3382	0.0078
672.5223	0.0118
672.7064	0.0069
672.8905	0.019
673.0746	0
673.2587	0.006
673.4427	-0.0058
673.6267	0.0201
673.8107	0.002
673.9947	0.0029
674.1787	0.0083
674.3626	0.0067
674.5465	0.0235
674.7304	0.0096
674.9143	-0.0129
675.0982	0.0116
675.2821	-0.0028
675.4659	-0.021
675.6497	0.0161
675.8335	0.01
676.0173	-0.0018
676.2011	0.0214
676.3849	0.0096
676.5686	0.0086
676.7523	0.0134
676.936	0.0216
677.1197	-0.0172
677.3034	0.0377
677.487	-0.0039
677.6706	0.0113
677.8542	-0.0002
678.0378	0.0113
678.2214	0.0068
678.405	0.003
678.5885	0.0056
678.772	0.0037
678.9555	0.0028
679.139	-0.0061
679.3225	0.0084
679.5059	-0.0045
679.6894	-0.0011
679.8728	-0.0152
680.0562	-0.009
680.2395	-0.0077
680.4229	0.004
680.6062	-0.0076
680.7896	-0.0108
680.9729	0.0223
681.1562	0.0082
681.3394	0.0028
681.5227	-0.0011
681.7059	0.0191
681.8891	-0.0013
682.0723	0.0191
682.2555	-0.0018
682.4387	-0.006
682.6218	0.0119
682.805	0.0137
682.9881	-0.0002
683.1712	0.0088
683.3542	0.025
683.5373	0.0024
683.7203	0.0079
683.9034	-0.0081
684.0864	-0.0106
684.2694	0.0116
684.4523	-0.0036
684.6353	-0.0164
684.8182	0.013
685.0011	0.0148
685.184	-0.0113
685.3669	0.0249
685.5498	0.0011
685.7326	-0.0091
685.9154	-0.0016
686.0982	0.007
686.281	0.0071
686.4638	0.0209
686.6465	0.0019
686.8293	-0.0095
687.012	-0.0078
687.1947	0.0017
687.3774	0.0044
687.56	-0.0053
687.7427	0.0032
687.9253	-0.0293
688.1079	0.0045
688.2905	-0.0083
688.4731	0.0312
688.6556	0.0068
688.8382	-0.0287
689.0207	0.0028
689.2032	0.0013
689.3857	0.0107
689.5681	0.0073
689.7506	0.0199
689.933	0.0022
690.1154	0.0233
690.2978	0.017
690.4802	0.0161
690.6626	0.0197
690.8449	0.0108
691.0272	-0.0092
691.2095	-0.0217
691.3918	-0.0045
691.5741	0.0109
691.7563	0.0104
691.9386	0.022
692.1208	0.018
692.303	-0.0057
692.4852	-0.0176
692.6673	-0.0069
692.8495	-0.0051
693.0316	0.029
693.2137	0.0063
693.3958	-0.0029
693.5778	0.0054
693.7599	-0.0139
693.9419	-0.0061
694.1239	-0.0236
694.3059	0.0177
694.4879	0.0115
694.6699	-0.01
694.8518	0.006
695.0337	0.0194
695.2157	0.0216
695.3975	0.01
695.5794	-0.0117
695.7613	0.0089
695.9431	-0.0203
696.1249	0.0079
696.3067	-0.0054
696.4885	0.0126
696.6703	0.0108
696.852	-0.0088
697.0337	0.0226
697.2154	0.0169
697.3971	0.009
697.5788	0.0235
697.7605	0.0054
697.9421	0.0166
698.1237	0.0151
698.3053	-0.0037
698.4869	0.0057
698.6685	-0.0135
698.85	0.011
699.0315	-0.0089
699.213	0.0128
699.3945	-0.0047
699.576	0.0128
699.7575	0.0115
699.9389	-0.0111
700.1203	0.0033
700.3017	0.0136
700.4831	0.0288
700.6645	0.0212
700.8458	0.0021
701.0271	0.0322
701.2084	0.0044
701.3897	0.0072
701.571	-0.0056
701.7523	0.0063
701.9335	0.0133
702.1147	0.0264
702.2959	-0.0246
702.4771	0.0048
702.6583	-0.0065
702.8394	-0.0242
703.0205	0.0304
703.2016	-0.0359
703.3827	-0.0038
703.5638	-0.0056
703.7449	0.0335
703.9259	0.0223
704.1069	-0.0152
704.2879	-0.0115
704.4689	0.0018
704.6499	0.0177
704.8308	0.0029
705.0117	-0.011
705.1927	0.0055
705.3735	0.0142
705.5544	0.0332
705.7353	0.026
705.9161	-0.0197
706.0969	0.0144
706.2777	-0.0088
706.4585	-0.017
706.6393	0.0163
706.82	0.0115
707.0007	-0.0034
707.1815	0.0013
707.3621	0.0123
707.5428	0.0034
707.7235	0.0015
707.9041	0.0113
708.0847	0.0047
708.2653	0.021
708.4459	0.0003
708.6265	-0.0219
708.807	0.0032
708.9875	0.0229
709.168	0.0022
709.3485	0.0276
709.529	0.0043
709.7095	-0.0161
709.8899	-0.0135
710.0703	0.0117
710.2507	0.0004
710.4311	-0.0091
710.6115	0.0311
710.7918	0.001
710.9721	-0.0061
711.1524	0.0128
711.3327	-0.0177
711.513	-0.0171
711.6932	-0.0241
711.8735	0.0151
712.0537	-0.0152
712.2339	0.007
712.4141	0.0299
712.5942	-0.015
712.7744	0.0301
712.9545	0.0049
713.1346	0.0207
713.3147	0.0143
713.4947	-0.0005
713.6748	0.0083
713.8548	0.0215
714.0348	0.0316
714.2148	0.0165
714.3948	0.0119
714.5748	0.0091
714.7547	0.0054
714.9346	0.0043
715.1145	-0.0162
715.2944	-0.0167
715.4743	0.012
715.6541	-0.0042
715.834	0.0438
716.0138	0.0291
716.1936	0.0236
716.3733	-0.0162
716.5531	-0.0204
716.7328	0.0138
716.9126	0.0046
717.0923	-0.0111
717.2719	0.0172
717.4516	-0.0047
717.6312	0.0113
717.8109	0.0428
717.9905	0.0067
718.1701	0.0135
718.3496	-0.0089
718.5292	-0.0029
718.7087	0.0184
718.8882	0.0106
719.0677	-0.0058
719.2472	-0.0071
719.4267	0.0049
719.6061	-0.0155
719.7856	0.0052
719.965	-0.002
720.1443	-0.0061
720.3237	-0.0319
720.5031	0.002
720.6824	-0.0134
720.8617	0.0111
721.041	0.0206
721.2203	-0.0095
721.3995	0.0016
721.5788	0.0128
721.758	-0.0065
721.9372	-0.0031
722.1164	-0.0139
722.2956	-0.0069
722.4747	0.0125
722.6538	0.013
722.8329	0.042
723.012	0.0187
723.1911	0.0108
723.3702	0.0117
723.5492	-0.0016
723.7282	-0.011
723.9072	0.0161
724.0862	0.0055
724.2652	-0.0042
724.4441	-0.0218
724.623	0.0126
724.8019	0.0029
724.9808	0.0108
725.1597	-0.0077
725.3385	-0.0026
725.5174	0.0055
725.6962	0.015
725.875	0.0305
726.0538	0.0184
726.2325	0.0187
726.4112	-0.0092
726.59	-0.0026
726.7687	0.0009
726.9474	0.0515
727.126	0.0012
727.3047	-0.0188
727.4833	0.0361
727.6619	-0.0284
727.8405	0.0136
728.0191	0.0123
728.1976	0.0025
728.3762	0.0158
728.5547	-0.0014
728.7332	0.0039
728.9116	0.0156
729.0901	-0.0077
729.2686	-0.0065
729.447	-0.0179
729.6254	0.0004
729.8038	0.0051
729.9821	-0.0157
730.1605	0.0126
730.3388	-0.0049
730.5171	0.0182
730.6954	-0.0044
730.8737	-0.0056
731.0519	-0.0127
731.2302	0
731.4084	-0.0013
731.5866	0.0124
731.7648	0.0046
731.9429	0.019
732.1211	-0.0087
732.2992	-0.0183
732.4773	0.0127
732.6554	-0.0114
732.8335	0.0131
733.0115	0.0129
733.1896	-0.0034
733.3676	0.01
733.5456	0.0076
733.7235	-0.0148
733.9015	0.0066
734.0794	-0.0124
734.2574	-0.0214
734.4353	0.0246
734.6131	-0.0093
734.791	-0.0066
734.9689	0.0035
735.1467	0.0098
735.3245	-0.0021
735.5023	0.0049
735.68	-0.0144
735.8578	0.0044
736.0355	0.0008
736.2132	-0.0034
736.3909	0.0067
736.5686	-0.0043
736.7463	0.0003
736.9239	0.0155
737.1015	0.0081
737.2791	0.0182
737.4567	0.0081
737.6343	-0.0188
737.8118	0.0054
737.9894	-0.0072
738.1669	0.0004
738.3444	0.0331
738.5218	-0.0063
738.6993	0.0152
738.8767	0.0038
739.0541	0.004
739.2315	0.0067
739.4089	0.0105
739.5863	0.0064
739.7636	-0.0071
739.9409	0.0022
740.1182	0.0295
740.2955	0.0407
740.4728	0.0124
740.65	-0.0032
740.8272	0.0269
741.0044	-0.0124
741.1816	0.037
741.3588	-0.021
741.5359	-0.0009
741.7131	0.0144
741.8902	0.0204
742.0673	-0.0476
742.2444	0.037
742.4214	0.029
742.5985	0.0047
742.7755	0.0119
742.9525	-0.0398
743.1295	-0.0371
743.3064	0.0144
743.4834	0.024
743.6603	0.0305
743.8372	-0.049
744.0141	0.0255
744.191	0.0038
744.3678	-0.0423
744.5446	0.001
744.7215	0.0072
744.8982	0.0108
745.075	0.0409
745.2518	-0.0053
745.4285	0.0083
745.6052	-0.046
745.7819	-0.015
745.9586	0.0042
746.1353	-0.011
746.3119	0.0149
746.4885	0.027
746.6651	-0.0222
746.8417	-0.0165
747.0183	0.0309
747.1948	-0.0098
747.3714	0.01
747.5479	0.0213
747.7244	-0.0055
747.9008	-0.0049
748.0773	0.0331
748.2537	-0.0097
748.4301	0.0323
748.6065	-0.0049
748.7829	-0.0094
748.9593	-0.0064
749.1356	0.0158
749.3119	-0.0128
749.4882	0.0255
749.6645	-0.0036
749.8408	0.0064
750.017	-0.0149
750.1933	-0.0162
750.3695	0.0235
750.5457	0.0021
750.7218	-0.0069
750.898	-0.019
751.0741	0.012
751.2502	-0.003
751.4263	0.0067
751.6024	-0.0032
751.7784	0.0004
751.9545	-0.0072
752.1305	0.0012
752.3065	-0.0053
752.4825	-0.0015
752.6584	0.0342
752.8344	-0.0137
753.0103	-0.0145
753.1862	0.0198
753.3621	-0.0032
753.5379	0.015
753.7138	-0.0063
753.8896	0.0183
754.0654	-0.0036
754.2412	0.0199
754.417	0.0113
754.5927	0.0042
754.7685	0.0119
754.9442	0.0007
755.1199	0.0062
755.2956	-0.0064
755.4712	0.0115
755.6469	0.0018
755.8225	0.0182
755.9981	0.0088
756.1736	-0.0082
756.3492	-0.007
756.5248	0.0185
756.7003	-0.0097
756.8758	0.0069
757.0513	-0.0134
757.2267	0.0026
757.4022	-0.0031
757.5776	-0.0026
757.753	-0.0042
757.9284	0.0003
758.1038	0.0083
758.2791	0.023
758.4545	0.0056
758.6298	0.0043
758.8051	0.0036
758.9803	0.0126
759.1556	-0.0013
759.3308	-0.0042
759.506	-0.0056
759.6812	0.0071
759.8564	-0.013
760.0316	-0.0155
760.2067	0.0165
760.3819	0.0171
760.557	0.0107
760.732	-0.0035
760.9071	0.0146
761.0821	-0.0183
761.2572	-0.0117
761.4322	-0.0011
761.6072	0.0111
761.7821	-0.0354
761.9571	0.0251
762.132	0.0085
762.3069	-0.0052
762.4818	0.0263
762.6567	-0.0072
762.8316	0.0294
763.0064	0.0017
763.1812	-0.0034
763.356	-0.0073
763.5308	0.0299
763.7055	-0.0149
763.8803	0.0063
764.055	0.0067
764.2297	-0.0173
764.4044	-0.003
764.579	-0.0255
764.7537	0.005
764.9283	0.0005
765.1029	0.0031
765.2775	0.0149
765.4521	0.0091
765.6266	-0.0006
765.8011	0.0004
765.9756	0.0143
766.1501	0.0146
766.3246	0.0037
766.4991	0.0006
766.6735	0.0356
766.8479	0.0114
767.0223	-0.0091
767.1967	0.0001
767.371	0.0288
767.5454	0.0261
767.7197	0.0204
767.894	-0.0099
768.0683	0.0136
768.2425	0.0061
768.4168	-0.0006
768.591	-0.0017
768.7652	-0.0245
768.9394	-0.0207
769.1135	-0.0077
769.2877	0.0005
769.4618	0.0299
769.6359	0.0136
769.81	-0.0121
769.984	-0.0107
770.1581	-0.0233
770.3321	0.0059
770.5061	-0.0206
770.6801	-0.0124
770.8541	0.006
771.028	0.0285
771.202	0.0202
771.3759	-0.0225
771.5498	0.0047
771.7236	0.0316
771.8975	-0.0089
772.0713	0.0484
772.2451	-0.0153
772.4189	0.0084
772.5927	0.0037
772.7665	0.0046
772.9402	0.0205
773.1139	-0.022
773.2876	-0.014
773.4613	0.025
773.635	0.0306
773.8086	0.0203
773.9822	-0.0053
774.1558	0.0274
774.3294	-0.0073
774.503	0.0022
774.6765	-0.006
774.8501	-0.006
775.0236	0.0329
775.1971	-0.0323
775.3705	-0.0263
775.544	-0.032
775.7174	-0.0055
775.8908	0.018
776.0642	0.0334
776.2376	0.0402
776.4109	0.0141
776.5843	-0.0254
776.7576	-0.0066
776.9309	0.006
777.1041	-0.0274
777.2774	0.0035
777.4506	0.0019
777.6238	-0.0336
777.797	0.0166
777.9702	0.0292
778.1434	0.0315
778.3165	-0.0127
778.4896	-0.0358
778.6627	0.0156
778.8358	-0.0285
779.0089	-0.0117
779.1819	0.0318
779.3549	-0.0028
779.5279	-0.0227
779.7009	0.0885
779.8739	0.049
780.0468	-0.039
780.2197	0.0021
780.3926	-0.0411
780.5655	0.0159
780.7384	0.0074
780.9112	0.01
781.0841	-0.0194
781.2569	0.0001
781.4297	0.0024
781.6024	0.0102
781.7752	0.0313
781.9479	0.0461
782.1206	0.0017
782.2933	0.0047
782.466	0.0125
782.6386	0.0146
782.8113	0.0042
782.9839	0.0337
783.1565	0.0303
783.329	-0.013
783.5016	-0.0056
783.6741	-0.0345
783.8466	0.0398
784.0191	0.0539
784.1916	-0.0289
784.3641	0.0373
784.5365	0.0141
784.7089	-0.0194
784.8813	0.0573
785.0537	0.0321
785.2261	0.0364
785.3984	0.0099
785.5707	-0.0122
785.743	-0.0039
785.9153	0.0106
786.0876	-0.0329
786.2598	0.0169
786.432	-0.005
786.6042	0.0364
786.7764	-0.0402
786.9486	-0.0061
787.1207	0.0341
787.2928	0.0489
787.4649	0.0099
787.637	-0.0121
787.8091	0.0323
787.9811	0.0417
788.1532	0.0322
788.3252	0.0077
788.4972	0.0129
788.6691	0.0108
788.8411	-0.0256
789.013	0.0039
789.1849	-0.0055
789.3568	0.0203
789.5287	0.0308
789.7005	-0.0523
789.8723	-0.0082
790.0442	-0.0296
790.2159	-0.0121
790.3877	0.055
790.5595	0.0772
790.7312	-0.026
790.9029	-0.012
791.0746	0.0025
791.2463	-0.0574
791.4179	-0.0234
791.5896	0.0081
791.7612	0.0123
791.9328	-0.0193
792.1044	0.0176
792.2759	-0.0262
792.4474	-0.0366
792.619	-0.0043
792.7905	0.0141
792.9619	0.0541
793.1334	0.0616
793.3048	0.0899
793.4762	-0.0196
793.6476	-0.0526
793.819	-0.0232
793.9904	-0.0326
794.1617	-0.0391
794.333	0.0071
794.5043	0.0422
794.6756	0.0172
794.8469	0.0106
795.0181	0.0348
795.1893	0.0284
795.3605	0.0156
795.5317	0.0196
795.7029	-0.0032
795.874	-0.0287
796.0452	0.0242
796.2163	0.0758
796.3873	-0.0087
796.5584	0.0495
796.7294	0.0327
796.9005	0.0228
797.0715	0.0296
797.2425	0.0406
797.4134	0.0921
797.5844	0.0445
797.7553	-0.0686
797.9262	0.0712
798.0971	0.0225
798.2679	0.0502
798.4388	-0.0087
798.6096	0.0313
798.7804	-0.0326
798.9512	0.0266
799.122	-0.0211
799.2927	0.1272
799.4635	-0.067
799.6342	-0.0806
799.8049	0.0231
799.9755	-0.07
800.1462	-0.0038
800.3168	-0.0037
800.4874	-0.0558
800.658	-0.0445
800.8286	0.0459
800.9991	0.0003
801.1696	0.0211
801.3402	-0.0325
801.5106	-0.0586
801.6811	-0.005
801.8516	0.0301
802.022	0.0418
802.1924	-0.0413
802.3628	-0.0336
802.5332	-0.027
802.7035	0.1135
802.8739	-0.0874
803.0442	0.0497
803.2145	0.017
803.3847	-0.0325
803.555	0.0015
803.7252	-0.0936
803.8954	0.0102
804.0656	0.0481
804.2358	-0.0105
804.4059	0.016
804.5761	0.1023
804.7462	-0.0502
804.9163	0.07
805.0864	-0.0332
805.2564	-0.0711
805.4264	-0.0159
805.5965	0.051
805.7665	-0.0118
805.9364	-0.0673
806.1064	-0.0215
806.2763	0.0355
806.4462	0.022
806.6161	-0.0059
806.786	-0.0117
806.9559	0.0496
807.1257	-0.0187
807.2955	-0.0186
807.4653	0.0375
807.6351	0.0064
807.8048	-0.0025
807.9746	0.0338
808.1443	-0.0323
808.314	0.0014
808.4837	0.0154
808.6533	-0.0211
808.8229	0.0807
808.9926	0.079
809.1622	0.0169
809.3317	-0.0881
809.5013	-0.0514
809.6708	0.0104
809.8403	0.0445
810.0098	0.0354
810.1793	0.0375
810.3488	0.0386
810.5182	0.0752
810.6876	-0.0473
810.857	-0.0437
811.0264	-0.1102
811.1958	0.0259
811.3651	-0.002
811.5344	-0.0078
811.7037	0.0471
811.873	0.1438
812.0422	-0.0746
812.2115	0.0471
812.3807	-0.1183
812.5499	0.019
812.7191	-0.0754
812.8882	-0.1357
813.0574	-0.0274
813.2265	0.0525
813.3956	0.0511
813.5646	0.0189
813.7337	-0.0308
813.9027	-0.0078
814.0718	0.0324
814.2407	0.1072
814.4097	0.0407
814.5787	0.0631
814.7476	0.0273
814.9165	0.0252
815.0854	0.0138
815.2543	-0.0334
815.4232	0.0488
815.592	0.1183
815.7608	-0.1456
815.9296	0.0833
816.0984	-0.02
816.2671	-0.2223
816.4359	0.0601
816.6046	0.119
816.7733	0.0633
816.942	0.0425
817.1106	0.1182
817.2793	-0.0785
817.4479	0.0747
817.6165	0.0233
817.785	0.0072
817.9536	-0.0337
818.1221	0.0843
818.2906	-0.0318
818.4591	-0.0842
818.6276	0.0838
818.7961	-0.0832
818.9645	0.0004
819.1329	0.0449
819.3013	-0.0561
819.4697	-0.15
819.638	0.1561
819.8064	-0.0662
819.9747	0.2065
820.143	-0.1682
820.3113	0.1106
820.4795	0.0059
820.6477	0.0491
820.816	0.0332
820.9842	0.0528
821.1523	0.0316
821.3205	-0.0309
821.4886	-0.0609
821.6567	-0.0664
821.8248	0.1537
821.9929	-0.115
822.1609	-0.0286
822.329	0.028
822.497	0.0363
822.665	-0.0215
822.833	0.2746
823.0009	-0.0365
823.1688	0.0093
823.3367	-0.1995
823.5046	0.0404
823.6725	-0.0935
823.8404	0.0626
824.0082	-0.0461
824.176	-0.1095
824.3438	0.0848
824.5116	-0.0537
824.6793	0.0681
824.847	-0.1461
825.0147	-0.1422
825.1824	0.0628
825.3501	0.2017
825.5177	-0.1231
825.6854	-0.2705
825.853	0.037
826.0206	-0.124
826.1881	0.0268
826.3557	-0.0496
826.5232	0.0856
826.6907	0.0051
826.8582	0.0007
827.0257	0.1809
827.1931	-0.0158
827.3605	-0.1103
827.528	-0.0244
827.6953	-0.2506
827.8627	0.0162
828.03	0.1143
828.1974	-0.041
828.3647	0.0552
828.532	-0.0058
828.6992	0.0358
828.8665	-0.2293
829.0337	0.0278
829.2009	-0.0547
829.3681	-0.0617
829.5352	-0.4411
829.7024	0.2871
829.8695	-0.0661
830.0366	0.092
830.2037	0.1135
830.3707	0.1292
830.5378	-0.0888
830.7048	-0.209
830.8718	0.4533
831.0388	-0.0859
831.2057	-0.2046
831.3727	-0.3029
831.5396	-0.0452
831.7065	-0.9358
831.8734	-0.1926
832.0402	0.1313
832.2071	-0.0302
832.3739	0.6011
832.5407	-1.6721
832.7075	-0.2566
832.8742	0.5218
833.041	0.0699
833.2077	0.3055
833.3744	0.1013
833.541	0.088
833.7077	-0.2198
833.8743	0.0639
834.0409	0.0667
834.2075	0.0702
834.3741	-0.1992
834.5407	0.3327
834.7072	0.182
834.8737	0.1834
835.0402	0.1212
835.2067	-0.1297
835.3731	0.0972
835.5395	-0.074
835.706	-0.1447
835.8723	0.1729
836.0387	0.8686
836.2051	0.291
836.3714	-0.0381
836.5377	0.2685
836.704	-0.0704
836.8703	-0.028
837.0365	-0
837.2027	-0.0066
837.3689	0.0786
837.5351	0.2008
837.7013	-0.0884
837.8674	-0.3416
838.0335	0.0389
838.1997	-0.2203
838.3657	0.4975
838.5318	-0
838.6978	-0
838.8639	-0.4068
839.0299	0.1758
839.1958	0.122
839.3618	-0.0362
839.5277	0.034
839.6937	-0.2755
839.8596	-0.3758
840.0254	-0.2139
840.1913	-0.1939
840.3571	-0.2819
840.523	-0
840.6888	-0.1309
840.8545	-0.6383
841.0203	0.1921
841.186	0.0087
841.3517	-0.2371
841.5174	0.143
841.6831	0.0797
841.8488	-0.3344
842.0144	0.1124
842.18	0.0777
842.3456	-0.0278
842.5112	-0
842.6767	-0.0464
842.8422	0.0328
843.0077	-0.0189
843.1732	0.0726
843.3387	0.1822
843.5042	-0
843.6696	-0.0931
843.835	-0.2277
844.0004	0.0336
844.1657	-0
844.3311	0.3225
844.4964	-0.8886
844.6617	1.13
844.827	0.6569
844.9923	0.0864
845.1575	-0.1995
845.3227	0.0241
845.4879	-0.425
845.6531	-0.2225
845.8183	-0.074
845.9834	-0
846.1485	0.1482
846.3136	0.1214
846.4787	-0
846.6438	-0.2892
846.8088	-0
846.9738	-0.6696
847.1388	0.4404
847.3038	-0.0195
847.4687	-0
847.6337	-0.5819
847.7986	-0.1522
847.9635	-0.2574
848.1284	0.9193
848.2932	0.1604
848.458	-0
848.6228	0.2325
848.7876	-0
848.9524	0.7498
849.1172	-1.8186
849.2819	-0
849.4466	0.318
849.6113	-0
849.7759	-0
849.9406	0.1562
850.1052	-0.334
850.2698	-0
850.4344	-0.4301
850.599	-0.0113
850.7635	0.4388
850.928	1.0674
851.0925	0.1481
851.257	0.9794
851.4215	-0
851.5859	0.1899
851.7503	-0
851.9147	-0.5952
852.0791	-0.1312
852.2434	0.2388
852.4078	-0
852.5721	0.5498
852.7364	0.645
852.9007	-0.1461
853.0649	-0
853.2291	-0
853.3934	-0
853.5575	0.2244
853.7217	0.7309
853.8859	-0.4585
854.05	-0.4744
854.2141	0.3371
854.3782	-0.0752
854.5423	-0
854.7063	-0.0675
854.8703	-0.0136
855.0343	0.18
855.1983	-0.0062
855.3623	0.1512
855.5262	-0
855.6901	-0
855.854	0.0785
856.0179	-0.0425
856.1818	-0
856.3456	0.2473
856.5094	-0.2816
856.6732	0.8302
856.837	-0.3951
857.0008	-0.3545
857.1645	-0.0587
857.3282	-0.6899
857.4919	0.0974
857.6556	0.6
857.8192	-0.1764
857.9828	-0.2613
858.1465	-0.0352
858.31	-0
858.4736	-0.2019
858.6372	0.1415
858.8007	-0.0457
858.9642	0.1673
859.1277	-0
859.2911	-0.3919
859.4546	-0
859.618	0.1225
859.7814	-0
859.9448	0.5746
860.1081	-0
860.2715	-1.7449
860.4348	-0.3153
860.5981	0.487
860.7614	-0.0638
860.9246	-0.1677
861.0879	0.0624
861.2511	0.0908
861.4143	-0
861.5774	-0.1707
861.7406	-0
861.9037	-0.2478
862.0668	-0.7083
862.2299	-0.1611
862.393	-0
862.556	-0
862.7191	1.5729
862.8821	0.1805
863.0451	-0.1764
863.208	-0
863.371	-0.5903
863.5339	0.1528
863.6968	-0
863.8597	-0.3045
864.0225	-0.2357
864.1854	0.5798
864.3482	-1.1609
864.511	0.2244
864.6737	0.3808
864.8365	0.7214
864.9992	-0
865.1619	-0.5184
865.3246	-1.8797
865.4873	0.2348
865.65	0.0735
865.8126	-0
865.9752	-0.2265
866.1378	-0.2004
866.3004	0.2151
866.4629	-1.6721
866.6254	0.0461
866.7879	-0.0172
866.9504	-0
867.1129	-0.4092
867.2753	-0.1302
867.4377	0.531
867.6001	-0.0564
867.7625	0.7273
867.9249	1.734
868.0872	-0.0931
868.2495	0.1289
868.4118	1.0886
868.5741	-0
868.7363	-0
868.8986	-0.2387
869.0608	-0.8528
869.223	-0.6335
869.3851	-0
869.5473	-0.1735
869.7094	-0
869.8715	-0.8334
870.0336	0.1343
870.1957	-0
870.3577	0.6509
870.5197	0.1645
870.6817	-0.9555
870.8437	0.003
871.0057	-0.0513
871.1676	0.1317
871.3295	-0.4945
871.4914	-0
871.6533	-0.092
871.8151	-0
871.977	-0.4139
872.1388	-0.0587
872.3006	-0.0591
872.4623	0.0847
872.6241	-0
872.7858	0.2975
872.9475	-0
873.1092	0.8116
873.2709	0.1928
873.4325	-1.928
873.5941	-0.0847
873.7557	-0
873.9173	1.0878
874.0789	0.0652
874.2404	-0
874.4019	-0.095
874.5634	-0
874.7249	0.0492
874.8863	-0
875.0478	-0.3869
875.2092	2.342
875.3706	-0
875.5319	0.6
875.6933	0.0804
875.8546	-0
876.0159	0.009
876.1772	-0
876.3385	-0
876.4997	0.0943
876.6609	-0
876.8221	-0
876.9833	-0.1349
877.1445	0.8027
877.3056	-1.2255
877.4667	-0
877.6278	0.3985
877.7889	0.5692
877.9499	0.2478
878.111	-0.6244
878.272	0.5476
878.433	0.0626
878.5939	1.0074
878.7549	-0.1617
878.9158	-0
879.0767	-0.116
879.2376	0.2296
879.3984	-0
879.5593	-0.0052
879.7201	-1.208
879.8809	-0.596
880.0417	-0.1274
880.2024	0.3269
880.3632	-0.6028
880.5239	0.4817
880.6846	0.0634
880.8452	-0.0022
881.0059	-0
881.1665	0.117
881.3271	0.1764
881.4877	-0.0323
881.6483	-0.5956
881.8088	-0
881.9693	-0
882.1298	-0
882.2903	-0
