Data from D4ACN5uM440nmA_Absorbance_13-50-26-347.txt Node
Date: Fri Feb 21 13:50:26 GMT 2025
User: LASERRRRR
Spectrometer: FLMT03099
Trigger mode: 0
Integration Time (sec): 1.500000E-2
Scans to average: 1
Electric dark correction enabled: true
Nonlinearity correction enabled: false
Boxcar width: 0
XAxis mode: Wavelengths
Number of Pixels in Spectrum: 3648
>>>>>Begin Spectral Data<<<<<
179.3399	-0.6942
179.5586	-0.6942
179.7771	-0.6942
179.9957	0.3552
180.2143	-0
180.4329	0.2477
180.6514	-0
180.8699	-0
181.0885	0.7947
181.307	-0.0941
181.5255	-0.1623
181.744	0.1427
181.9625	1.0033
182.181	-0.355
182.3994	-0.6139
182.6179	-0
182.8363	-0
183.0547	0.1649
183.2732	0.6726
183.4916	0.2811
183.71	0.2774
183.9284	0.2089
184.1467	0.4236
184.3651	0.1175
184.5835	0.2713
184.8018	0.1625
185.0201	0.0775
185.2385	0.4866
185.4568	0.2093
185.6751	0.1585
185.8934	0.2924
186.1117	0.0364
186.3299	0.1524
186.5482	0.1665
186.7664	0.0353
186.9847	-0.0042
187.2029	0.3253
187.4211	0.0977
187.6393	0.2691
187.8575	0.4086
188.0757	0.7659
188.2939	0.0324
188.512	0.2827
188.7302	0.1966
188.9483	0.3081
189.1665	0.5539
189.3846	0.3651
189.6027	0.0797
189.8208	0.6716
190.0389	0.1066
190.257	0.2264
190.475	0.0201
190.6931	0.2894
190.9111	0.1204
191.1292	0.2613
191.3472	0.037
191.5652	0.2706
191.7832	0.4605
192.0012	0.1353
192.2192	0.0328
192.4371	0.2138
192.6551	0.5136
192.873	0.2425
193.091	0.1135
193.3089	0.2756
193.5268	0.2694
193.7447	0.1705
193.9626	0.21
194.1805	0.341
194.3984	0.3337
194.6162	0.2301
194.8341	0.3112
195.0519	0.1775
195.2697	0.2929
195.4875	0.3437
195.7054	0.3629
195.9231	0.2758
196.1409	0.4379
196.3587	0.3802
196.5765	0.3936
196.7942	0.399
197.012	0.364
197.2297	0.3851
197.4474	0.4443
197.6651	0.3391
197.8828	0.4663
198.1005	0.4617
198.3182	0.3976
198.5358	0.3858
198.7535	0.3857
198.9711	0.382
199.1888	0.3858
199.4064	0.4067
199.624	0.396
199.8416	0.3844
200.0592	0.4366
200.2767	0.4108
200.4943	0.4354
200.7119	0.3873
200.9294	0.4238
201.1469	0.4663
201.3645	0.4721
201.582	0.447
201.7995	0.4116
202.017	0.4085
202.2344	0.46
202.4519	0.3652
202.6694	0.4044
202.8868	0.3996
203.1042	0.376
203.3217	0.3894
203.5391	0.4109
203.7565	0.3599
203.9739	0.3539
204.1913	0.3709
204.4086	0.3702
204.626	0.3717
204.8433	0.3458
205.0607	0.3765
205.278	0.3718
205.4953	0.3432
205.7126	0.3568
205.9299	0.3207
206.1472	0.3322
206.3644	0.3191
206.5817	0.3498
206.7989	0.3494
207.0162	0.3223
207.2334	0.3228
207.4506	0.3051
207.6678	0.3313
207.885	0.3148
208.1022	0.3298
208.3194	0.2919
208.5365	0.2937
208.7537	0.3024
208.9708	0.3003
209.1879	0.2991
209.405	0.2752
209.6222	0.2667
209.8392	0.3151
210.0563	0.2652
210.2734	0.2616
210.4905	0.2745
210.7075	0.2953
210.9245	0.2734
211.1416	0.2724
211.3586	0.2678
211.5756	0.26
211.7926	0.2617
212.0096	0.2567
212.2265	0.2805
212.4435	0.258
212.6604	0.2648
212.8774	0.2658
213.0943	0.2667
213.3112	0.2541
213.5281	0.2591
213.745	0.2389
213.9619	0.2475
214.1788	0.269
214.3956	0.2617
214.6125	0.2432
214.8293	0.2474
215.0461	0.2584
215.2629	0.271
215.4798	0.2401
215.6965	0.2496
215.9133	0.2536
216.1301	0.24
216.3469	0.2339
216.5636	0.2343
216.7803	0.2487
216.9971	0.2499
217.2138	0.2568
217.4305	0.2501
217.6472	0.2393
217.8639	0.2551
218.0805	0.2529
218.2972	0.2426
218.5138	0.2488
218.7305	0.2545
218.9471	0.2418
219.1637	0.2588
219.3803	0.2703
219.5969	0.2428
219.8135	0.2539
220.0301	0.253
220.2466	0.2617
220.4632	0.2397
220.6797	0.2684
220.8962	0.2615
221.1127	0.2742
221.3292	0.2646
221.5457	0.2721
221.7622	0.2629
221.9787	0.2763
222.1951	0.2794
222.4116	0.2676
222.628	0.2906
222.8444	0.2769
223.0608	0.2735
223.2772	0.2818
223.4936	0.2724
223.71	0.2905
223.9264	0.275
224.1427	0.2867
224.3591	0.2945
224.5754	0.2968
224.7917	0.2887
225.008	0.3091
225.2243	0.3066
225.4406	0.2973
225.6569	0.3146
225.8732	0.3061
226.0894	0.3005
226.3057	0.3157
226.5219	0.3235
226.7381	0.3286
226.9543	0.3131
227.1705	0.323
227.3867	0.3343
227.6029	0.3315
227.8191	0.3287
228.0352	0.3422
228.2513	0.3428
228.4675	0.3465
228.6836	0.3459
228.8997	0.341
229.1158	0.3573
229.3319	0.3537
229.548	0.3483
229.764	0.3503
229.9801	0.3772
230.1961	0.3665
230.4121	0.3777
230.6282	0.3866
230.8442	0.3856
231.0602	0.3955
231.2761	0.3888
231.4921	0.3904
231.7081	0.389
231.924	0.3994
232.14	0.4009
232.3559	0.4075
232.5718	0.4147
232.7877	0.4096
233.0036	0.4128
233.2195	0.4094
233.4353	0.418
233.6512	0.4117
233.867	0.4251
234.0829	0.4354
234.2987	0.4279
234.5145	0.4384
234.7303	0.4347
234.9461	0.4448
235.1619	0.439
235.3776	0.4359
235.5934	0.4409
235.8091	0.4559
236.0249	0.4435
236.2406	0.4377
236.4563	0.4436
236.672	0.4321
236.8877	0.4473
237.1034	0.4498
237.319	0.4502
237.5347	0.4606
237.7503	0.4476
237.966	0.453
238.1816	0.4377
238.3972	0.4602
238.6128	0.4607
238.8284	0.46
239.0439	0.4639
239.2595	0.4584
239.475	0.4559
239.6906	0.4561
239.9061	0.464
240.1216	0.4519
240.3371	0.4626
240.5526	0.4686
240.7681	0.4645
240.9836	0.4626
241.199	0.4503
241.4145	0.4469
241.6299	0.46
241.8453	0.444
242.0607	0.4353
242.2761	0.4401
242.4915	0.4252
242.7069	0.4225
242.9223	0.4224
243.1376	0.4152
243.353	0.4018
243.5683	0.4007
243.7836	0.3972
243.9989	0.3836
244.2142	0.3786
244.4295	0.3736
244.6448	0.37
244.86	0.3629
245.0753	0.3452
245.2905	0.3462
245.5057	0.3349
245.721	0.3408
245.9362	0.3299
246.1514	0.3184
246.3665	0.3145
246.5817	0.3078
246.7969	0.3035
247.012	0.3064
247.2271	0.2991
247.4423	0.2922
247.6574	0.2853
247.8725	0.2748
248.0876	0.2702
248.3026	0.2628
248.5177	0.2584
248.7328	0.2645
248.9478	0.2508
249.1628	0.247
249.3779	0.2365
249.5929	0.2376
249.8079	0.2442
250.0228	0.2367
250.2378	0.2322
250.4528	0.2319
250.6677	0.224
250.8827	0.216
251.0976	0.2132
251.3125	0.2083
251.5274	0.2177
251.7423	0.2105
251.9572	0.2097
252.172	0.2067
252.3869	0.2058
252.6017	0.2031
252.8166	0.201
253.0314	0.1997
253.2462	0.2015
253.461	0.1932
253.6758	0.1989
253.8906	0.2033
254.1053	0.1973
254.3201	0.1864
254.5348	0.1852
254.7496	0.1836
254.9643	0.1947
255.179	0.1834
255.3937	0.1855
255.6083	0.1929
255.823	0.1888
256.0377	0.1798
256.2523	0.1813
256.467	0.1864
256.6816	0.1807
256.8962	0.19
257.1108	0.1827
257.3254	0.1834
257.54	0.1805
257.7545	0.1884
257.9691	0.1786
258.1836	0.1778
258.3981	0.1804
258.6127	0.1779
258.8272	0.1836
259.0417	0.1758
259.2561	0.1764
259.4706	0.1745
259.6851	0.1794
259.8995	0.1775
260.114	0.1809
260.3284	0.1701
260.5428	0.1745
260.7572	0.1777
260.9716	0.1814
261.186	0.1775
261.4003	0.1748
261.6147	0.173
261.829	0.1746
262.0433	0.18
262.2577	0.1823
262.472	0.1767
262.6863	0.1863
262.9005	0.1801
263.1148	0.1793
263.3291	0.1784
263.5433	0.1742
263.7576	0.182
263.9718	0.1781
264.186	0.1831
264.4002	0.1835
264.6144	0.1926
264.8286	0.192
265.0427	0.1867
265.2569	0.1861
265.471	0.1891
265.6851	0.1905
265.8993	0.1862
266.1134	0.1833
266.3275	0.1859
266.5415	0.1825
266.7556	0.1887
266.9697	0.1933
267.1837	0.1894
267.3978	0.1888
267.6118	0.1784
267.8258	0.1915
268.0398	0.1908
268.2538	0.1848
268.4677	0.1819
268.6817	0.1891
268.8957	0.1846
269.1096	0.1768
269.3235	0.179
269.5374	0.1879
269.7514	0.1845
269.9652	0.1807
270.1791	0.1786
270.393	0.1853
270.6068	0.1767
270.8207	0.1779
271.0345	0.177
271.2483	0.1787
271.4622	0.1829
271.676	0.1824
271.8897	0.1733
272.1035	0.1835
272.3173	0.1825
272.531	0.1808
272.7448	0.1839
272.9585	0.1811
273.1722	0.177
273.3859	0.1798
273.5996	0.1789
273.8133	0.1851
274.0269	0.1821
274.2406	0.1826
274.4542	0.1779
274.6679	0.1868
274.8815	0.1886
275.0951	0.1902
275.3087	0.1894
275.5223	0.1874
275.7358	0.1911
275.9494	0.191
276.1629	0.1908
276.3765	0.1892
276.59	0.1861
276.8035	0.19
277.017	0.1979
277.2305	0.1919
277.444	0.1926
277.6574	0.1924
277.8709	0.1955
278.0843	0.1928
278.2978	0.1931
278.5112	0.1956
278.7246	0.1895
278.938	0.1947
279.1513	0.1908
279.3647	0.1965
279.5781	0.1937
279.7914	0.1887
280.0047	0.195
280.2181	0.1896
280.4314	0.1944
280.6447	0.1961
280.8579	0.1863
281.0712	0.1853
281.2845	0.1893
281.4977	0.1913
281.711	0.1829
281.9242	0.1882
282.1374	0.1917
282.3506	0.187
282.5638	0.1858
282.7769	0.1811
282.9901	0.19
283.2033	0.1883
283.4164	0.1843
283.6295	0.1861
283.8426	0.1835
284.0557	0.1888
284.2688	0.1887
284.4819	0.1826
284.695	0.1892
284.908	0.1854
285.1211	0.1872
285.3341	0.1849
285.5471	0.1903
285.7601	0.1888
285.9731	0.1908
286.1861	0.1921
286.3991	0.1897
286.612	0.1864
286.825	0.1879
287.0379	0.1853
287.2508	0.187
287.4637	0.1864
287.6766	0.1854
287.8895	0.1846
288.1024	0.1877
288.3152	0.1859
288.5281	0.1824
288.7409	0.1904
288.9538	0.1887
289.1666	0.1874
289.3794	0.1825
289.5922	0.1867
289.8049	0.1901
290.0177	0.1884
290.2304	0.182
290.4432	0.1929
290.6559	0.1881
290.8686	0.1866
291.0813	0.1945
291.294	0.1905
291.5067	0.1803
291.7194	0.1809
291.932	0.1831
292.1447	0.1895
292.3573	0.1875
292.5699	0.1912
292.7825	0.1852
292.9951	0.1875
293.2077	0.1846
293.4203	0.1883
293.6328	0.1872
293.8454	0.1889
294.0579	0.1868
294.2704	0.1932
294.4829	0.189
294.6954	0.1887
294.9079	0.1854
295.1204	0.1875
295.3328	0.1919
295.5453	0.1868
295.7577	0.1897
295.9701	0.1877
296.1825	0.1881
296.3949	0.1871
296.6073	0.1872
296.8197	0.1806
297.0321	0.184
297.2444	0.1773
297.4567	0.1866
297.6691	0.1835
297.8814	0.191
298.0937	0.1823
298.306	0.1905
298.5182	0.195
298.7305	0.1875
298.9428	0.1934
299.155	0.1853
299.3672	0.179
299.5794	0.1888
299.7916	0.1888
300.0038	0.188
300.216	0.1843
300.4282	0.1877
300.6403	0.193
300.8525	0.1892
301.0646	0.1917
301.2767	0.187
301.4888	0.1876
301.7009	0.1916
301.913	0.185
302.125	0.1887
302.3371	0.1856
302.5491	0.1886
302.7612	0.1935
302.9732	0.1939
303.1852	0.1835
303.3972	0.1955
303.6092	0.1859
303.8211	0.1851
304.0331	0.1867
304.245	0.1904
304.457	0.1831
304.6689	0.1859
304.8808	0.1796
305.0927	0.1841
305.3046	0.1834
305.5164	0.1798
305.7283	0.181
305.9401	0.1717
306.152	0.1789
306.3638	0.1798
306.5756	0.1825
306.7874	0.1759
306.9992	0.1719
307.2109	0.1699
307.4227	0.1663
307.6344	0.1718
307.8462	0.1678
308.0579	0.1727
308.2696	0.1694
308.4813	0.1649
308.693	0.1603
308.9046	0.1636
309.1163	0.1598
309.328	0.1563
309.5396	0.1608
309.7512	0.1588
309.9628	0.1596
310.1744	0.1519
310.386	0.152
310.5976	0.1526
310.8091	0.1524
311.0207	0.1482
311.2322	0.1484
311.4437	0.1483
311.6552	0.1475
311.8667	0.1467
312.0782	0.1483
312.2897	0.1447
312.5012	0.1422
312.7126	0.1404
312.924	0.1395
313.1355	0.1378
313.3469	0.139
313.5583	0.1361
313.7696	0.135
313.981	0.1428
314.1924	0.1352
314.4037	0.1389
314.6151	0.1392
314.8264	0.1367
315.0377	0.1318
315.249	0.1354
315.4603	0.1361
315.6716	0.1344
315.8828	0.1371
316.0941	0.1344
316.3053	0.1301
316.5165	0.134
316.7277	0.1346
316.9389	0.1361
317.1501	0.1302
317.3613	0.1287
317.5724	0.1302
317.7836	0.1277
317.9947	0.128
318.2058	0.1317
318.417	0.131
318.6281	0.1263
318.8391	0.1287
319.0502	0.1275
319.2613	0.1295
319.4723	0.1259
319.6834	0.1335
319.8944	0.1346
320.1054	0.1291
320.3164	0.1254
320.5274	0.1243
320.7383	0.1296
320.9493	0.1295
321.1602	0.1302
321.3712	0.132
321.5821	0.1269
321.793	0.1375
322.0039	0.1321
322.2148	0.1309
322.4257	0.1258
322.6365	0.1255
322.8474	0.1279
323.0582	0.1312
323.269	0.1341
323.4798	0.1379
323.6906	0.1266
323.9014	0.1293
324.1122	0.1245
324.3229	0.1312
324.5337	0.1325
324.7444	0.1313
324.9551	0.1342
325.1658	0.1296
325.3765	0.1405
325.5872	0.1361
325.7979	0.1304
326.0085	0.1324
326.2192	0.1307
326.4298	0.1387
326.6404	0.1379
326.851	0.1323
327.0616	0.1382
327.2722	0.1375
327.4828	0.1364
327.6933	0.1447
327.9039	0.1358
328.1144	0.1373
328.3249	0.1386
328.5354	0.1414
328.7459	0.1388
328.9564	0.1361
329.1669	0.1427
329.3773	0.1433
329.5878	0.1382
329.7982	0.1417
330.0086	0.148
330.219	0.1369
330.4294	0.1475
330.6398	0.1423
330.8502	0.1488
331.0605	0.1401
331.2708	0.1419
331.4812	0.1441
331.6915	0.146
331.9018	0.1451
332.1121	0.1514
332.3224	0.1462
332.5326	0.1419
332.7429	0.1423
332.9531	0.1497
333.1633	0.1423
333.3735	0.1448
333.5837	0.1474
333.7939	0.1436
334.0041	0.147
334.2143	0.1418
334.4244	0.1532
334.6346	0.1521
334.8447	0.1416
335.0548	0.1454
335.2649	0.1501
335.475	0.1482
335.685	0.1443
335.8951	0.1395
336.1051	0.148
336.3152	0.15
336.5252	0.142
336.7352	0.1429
336.9452	0.1471
337.1552	0.1438
337.3652	0.1418
337.5751	0.1412
337.7851	0.1467
337.995	0.1496
338.2049	0.1492
338.4148	0.1455
338.6247	0.1496
338.8346	0.1431
339.0445	0.1522
339.2543	0.1443
339.4642	0.1431
339.674	0.1449
339.8838	0.1471
340.0936	0.1478
340.3034	0.15
340.5132	0.1384
340.7229	0.1528
340.9327	0.1612
341.1424	0.1529
341.3522	0.1502
341.5619	0.1521
341.7716	0.1573
341.9813	0.1541
342.1909	0.158
342.4006	0.1587
342.6102	0.1567
342.8199	0.156
343.0295	0.1497
343.2391	0.1566
343.4487	0.1603
343.6583	0.1648
343.8679	0.1586
344.0774	0.1501
344.287	0.1609
344.4965	0.1585
344.706	0.1588
344.9155	0.1584
345.125	0.1612
345.3345	0.1666
345.544	0.162
345.7534	0.1636
345.9629	0.1683
346.1723	0.1721
346.3817	0.162
346.5911	0.1716
346.8005	0.1788
347.0099	0.1686
347.2193	0.1773
347.4286	0.1806
347.638	0.1746
347.8473	0.1799
348.0566	0.1723
348.2659	0.1805
348.4752	0.176
348.6845	0.1681
348.8937	0.1745
349.103	0.1784
349.3122	0.174
349.5214	0.1786
349.7306	0.1815
349.9398	0.1816
350.149	0.1737
350.3582	0.1832
350.5674	0.182
350.7765	0.1811
350.9856	0.1731
351.1948	0.1849
351.4039	0.1819
351.613	0.1818
351.822	0.1945
352.0311	0.1792
352.2402	0.182
352.4492	0.1821
352.6582	0.1879
352.8672	0.1839
353.0762	0.19
353.2852	0.1828
353.4942	0.1861
353.7032	0.1814
353.9121	0.1799
354.1211	0.1879
354.33	0.1869
354.5389	0.1813
354.7478	0.1789
354.9567	0.1892
355.1655	0.1825
355.3744	0.1834
355.5833	0.1812
355.7921	0.1864
356.0009	0.1854
356.2097	0.1782
356.4185	0.1826
356.6273	0.1856
356.8361	0.1897
357.0448	0.1855
357.2536	0.1907
357.4623	0.186
357.671	0.1906
357.8797	0.1924
358.0884	0.185
358.2971	0.1902
358.5057	0.1986
358.7144	0.1947
358.923	0.1952
359.1316	0.1909
359.3402	0.1955
359.5488	0.1967
359.7574	0.2018
359.966	0.2027
360.1746	0.1832
360.3831	0.2016
360.5916	0.1966
360.8002	0.2039
361.0087	0.197
361.2172	0.2023
361.4256	0.201
361.6341	0.2076
361.8426	0.2032
362.051	0.2075
362.2594	0.2029
362.4678	0.2044
362.6762	0.2083
362.8846	0.2084
363.093	0.2061
363.3014	0.2088
363.5097	0.2075
363.718	0.2173
363.9264	0.2183
364.1347	0.215
364.343	0.2055
364.5513	0.2069
364.7595	0.2165
364.9678	0.2125
365.176	0.2154
365.3842	0.2242
365.5925	0.2177
365.8007	0.2206
366.0089	0.2215
366.217	0.2235
366.4252	0.2191
366.6333	0.223
366.8415	0.2277
367.0496	0.2251
367.2577	0.2276
367.4658	0.2237
367.6739	0.217
367.882	0.229
368.09	0.2285
368.2981	0.2362
368.5061	0.2275
368.7141	0.2259
368.9221	0.2395
369.1301	0.2314
369.3381	0.2393
369.5461	0.2411
369.754	0.2371
369.962	0.2264
370.1699	0.2387
370.3778	0.2495
370.5857	0.2315
370.7936	0.2368
371.0015	0.2393
371.2093	0.2362
371.4172	0.2395
371.625	0.2467
371.8328	0.2365
372.0406	0.2421
372.2484	0.2386
372.4562	0.2481
372.664	0.2391
372.8717	0.2418
373.0795	0.2508
373.2872	0.2507
373.4949	0.2474
373.7026	0.2459
373.9103	0.2344
374.118	0.2533
374.3256	0.2475
374.5333	0.2529
374.7409	0.2564
374.9485	0.252
375.1561	0.2554
375.3637	0.2453
375.5713	0.262
375.7789	0.2557
375.9864	0.26
376.194	0.2613
376.4015	0.2608
376.609	0.2595
376.8165	0.2562
377.024	0.2561
377.2315	0.254
377.4389	0.2549
377.6464	0.2718
377.8538	0.2577
378.0612	0.2558
378.2686	0.2598
378.476	0.2709
378.6834	0.2679
378.8908	0.2674
379.0981	0.2622
379.3055	0.2726
379.5128	0.2572
379.7201	0.2677
379.9274	0.2646
380.1347	0.2695
380.342	0.2734
380.5492	0.2629
380.7565	0.2771
380.9637	0.2654
381.1709	0.2634
381.3781	0.2768
381.5853	0.2771
381.7925	0.2653
381.9997	0.279
382.2068	0.2749
382.4139	0.275
382.6211	0.2784
382.8282	0.2771
383.0353	0.2771
383.2424	0.2688
383.4494	0.2712
383.6565	0.2709
383.8635	0.2749
384.0706	0.2846
384.2776	0.2742
384.4846	0.2773
384.6916	0.2736
384.8986	0.2843
385.1055	0.2932
385.3125	0.2914
385.5194	0.2794
385.7263	0.2735
385.9333	0.2799
386.1402	0.283
386.347	0.2818
386.5539	0.2728
386.7608	0.2797
386.9676	0.2759
387.1744	0.2876
387.3813	0.2825
387.5881	0.2742
387.7948	0.2758
388.0016	0.2875
388.2084	0.2821
388.4151	0.2832
388.6219	0.2733
388.8286	0.2723
389.0353	0.2912
389.242	0.2672
389.4487	0.2682
389.6553	0.2646
389.862	0.2758
390.0686	0.2764
390.2753	0.2791
390.4819	0.281
390.6885	0.2698
390.8951	0.2743
391.1016	0.2644
391.3082	0.2818
391.5147	0.2609
391.7213	0.275
391.9278	0.256
392.1343	0.2676
392.3408	0.2577
392.5473	0.2589
392.7537	0.2654
392.9602	0.257
393.1666	0.2575
393.373	0.2528
393.5794	0.2677
393.7858	0.2554
393.9922	0.2543
394.1986	0.258
394.4049	0.2519
394.6113	0.2557
394.8176	0.2565
395.0239	0.2524
395.2302	0.2579
395.4365	0.2497
395.6428	0.2433
395.8491	0.248
396.0553	0.2382
396.2615	0.2441
396.4678	0.2503
396.674	0.2464
396.8802	0.2473
397.0863	0.2409
397.2925	0.2458
397.4987	0.2401
397.7048	0.2418
397.9109	0.2394
398.117	0.2411
398.3231	0.2307
398.5292	0.2263
398.7353	0.2392
398.9413	0.2335
399.1474	0.2364
399.3534	0.2329
399.5594	0.2462
399.7654	0.2319
399.9714	0.2367
400.1774	0.2388
400.3833	0.2372
400.5893	0.2309
400.7952	0.2401
401.0011	0.2331
401.207	0.2478
401.4129	0.2338
401.6188	0.2383
401.8247	0.2522
402.0305	0.244
402.2364	0.2407
402.4422	0.2442
402.648	0.2321
402.8538	0.233
403.0596	0.226
403.2654	0.2422
403.4711	0.2231
403.6768	0.2306
403.8826	0.2442
404.0883	0.2374
404.294	0.2359
404.4997	0.2388
404.7054	0.2402
404.911	0.2288
405.1167	0.2375
405.3223	0.2337
405.5279	0.2383
405.7335	0.2358
405.9391	0.231
406.1447	0.2347
406.3502	0.2324
406.5558	0.2353
406.7613	0.2346
406.9668	0.2329
407.1724	0.2339
407.3778	0.2311
407.5833	0.2294
407.7888	0.2456
407.9942	0.2395
408.1997	0.2349
408.4051	0.2287
408.6105	0.234
408.8159	0.2322
409.0213	0.2383
409.2267	0.2364
409.432	0.2394
409.6374	0.2432
409.8427	0.2406
410.048	0.2342
410.2533	0.2408
410.4586	0.2385
410.6639	0.2357
410.8691	0.23
411.0744	0.2391
411.2796	0.2401
411.4848	0.2366
411.69	0.2327
411.8952	0.235
412.1004	0.2264
412.3056	0.2213
412.5107	0.238
412.7158	0.2461
412.921	0.2341
413.1261	0.2309
413.3312	0.232
413.5362	0.2432
413.7413	0.2345
413.9464	0.2234
414.1514	0.2252
414.3564	0.2248
414.5614	0.2315
414.7664	0.2181
414.9714	0.225
415.1764	0.2337
415.3813	0.2296
415.5863	0.2405
415.7912	0.234
415.9961	0.2171
416.201	0.2324
416.4059	0.2281
416.6108	0.227
416.8156	0.226
417.0205	0.2311
417.2253	0.2327
417.4301	0.2351
417.6349	0.2305
417.8397	0.2239
418.0445	0.2229
418.2492	0.2225
418.454	0.2249
418.6587	0.2324
418.8634	0.2338
419.0681	0.2373
419.2728	0.2256
419.4775	0.2381
419.6822	0.2154
419.8868	0.2152
420.0915	0.2205
420.2961	0.2128
420.5007	0.2217
420.7053	0.2204
420.9099	0.2194
421.1144	0.22
421.319	0.214
421.5235	0.1972
421.728	0.215
421.9325	0.214
422.137	0.2052
422.3415	0.2043
422.546	0.2167
422.7504	0.2057
422.9549	0.2213
423.1593	0.1989
423.3637	0.21
423.5681	0.2185
423.7725	0.2066
423.9769	0.2061
424.1812	0.201
424.3856	0.2048
424.5899	0.2021
424.7942	0.1946
424.9985	0.2035
425.2028	0.2156
425.4071	0.197
425.6113	0.1972
425.8156	0.2026
426.0198	0.1998
426.224	0.1965
426.4282	0.1933
426.6324	0.1973
426.8366	0.194
427.0407	0.2014
427.2449	0.194
427.449	0.1947
427.6531	0.2003
427.8572	0.1936
428.0613	0.1867
428.2654	0.1906
428.4694	0.1743
428.6735	0.1772
428.8775	0.1828
429.0815	0.1851
429.2855	0.1745
429.4895	0.177
429.6935	0.1806
429.8975	0.1688
430.1014	0.1789
430.3053	0.1837
430.5093	0.1707
430.7132	0.1739
430.9171	0.1636
431.1209	0.1719
431.3248	0.1539
431.5286	0.1623
431.7325	0.1832
431.9363	0.1621
432.1401	0.1625
432.3439	0.1559
432.5477	0.163
432.7514	0.1605
432.9552	0.1566
433.1589	0.1474
433.3627	0.1533
433.5664	0.1506
433.7701	0.1515
433.9737	0.1491
434.1774	0.1377
434.3811	0.15
434.5847	0.1464
434.7883	0.1446
434.9919	0.1335
435.1955	0.1419
435.3991	0.1398
435.6027	0.1304
435.8062	0.1399
436.0098	0.1312
436.2133	0.1281
436.4168	0.1351
436.6203	0.123
436.8238	0.1291
437.0272	0.1265
437.2307	0.1198
437.4341	0.1308
437.6375	0.1246
437.841	0.1185
438.0443	0.1183
438.2477	0.1104
438.4511	0.112
438.6545	0.1131
438.8578	0.1141
439.0611	0.1148
439.2644	0.1129
439.4677	0.1066
439.671	0.1014
439.8743	0.11
440.0775	0.109
440.2808	0.1013
440.484	0.0955
440.6872	0.0958
440.8904	0.0871
441.0936	0.1014
441.2967	0.0921
441.4999	0.0909
441.703	0.0876
441.9062	0.0943
442.1093	0.0915
442.3124	0.0917
442.5155	0.0897
442.7185	0.0845
442.9216	0.0812
443.1246	0.0796
443.3276	0.0806
443.5307	0.0757
443.7337	0.0808
443.9366	0.0737
444.1396	0.075
444.3426	0.0811
444.5455	0.0687
444.7484	0.0634
444.9513	0.0655
445.1542	0.0759
445.3571	0.0748
445.56	0.0673
445.7628	0.0702
445.9657	0.0737
446.1685	0.0681
446.3713	0.0579
446.5741	0.0598
446.7769	0.0667
446.9797	0.0662
447.1824	0.0685
447.3852	0.0493
447.5879	0.0623
447.7906	0.043
447.9933	0.0554
448.196	0.0531
448.3986	0.0515
448.6013	0.0486
448.8039	0.0491
449.0066	0.06
449.2092	0.0556
449.4118	0.0575
449.6143	0.0592
449.8169	0.0477
450.0195	0.0439
450.222	0.0546
450.4245	0.0468
450.627	0.0461
450.8295	0.0406
451.032	0.0452
451.2345	0.0384
451.4369	0.048
451.6394	0.0375
451.8418	0.0356
452.0442	0.0414
452.2466	0.0374
452.449	0.0382
452.6513	0.031
452.8537	0.0315
453.056	0.031
453.2583	0.033
453.4607	0.0306
453.663	0.0364
453.8652	0.0175
454.0675	0.0416
454.2697	0.0294
454.472	0.0348
454.6742	0.0324
454.8764	0.0291
455.0786	0.0216
455.2808	0.0257
455.4829	0.0322
455.6851	0.0277
455.8872	0.0155
456.0893	0.0234
456.2915	0.0249
456.4935	0.0321
456.6956	0.025
456.8977	0.0262
457.0997	0.0342
457.3018	0.0213
457.5038	0.0259
457.7058	0.0213
457.9078	0.0252
458.1098	0.0279
458.3117	0.0282
458.5137	0.0074
458.7156	0.0244
458.9175	0.0249
459.1194	0.0245
459.3213	0.0216
459.5232	0.0226
459.725	0.0269
459.9269	0.0187
460.1287	0.0192
460.3305	0.0275
460.5323	0.0152
460.7341	0.0204
460.9359	0.0133
461.1376	0.0147
461.3394	0.017
461.5411	0.0233
461.7428	0.0182
461.9445	0.011
462.1462	0.0116
462.3479	0.0104
462.5495	0.0215
462.7512	0.0306
462.9528	0.0161
463.1544	0.0159
463.356	0.0077
463.5576	0.0224
463.7592	0.0152
463.9607	0.0121
464.1623	0.0134
464.3638	0.0053
464.5653	0.0175
464.7668	0.0177
464.9683	0.0165
465.1697	0.0107
465.3712	0.0123
465.5726	0.0084
465.7741	0.0219
465.9755	0.0125
466.1769	0.003
466.3782	0.0138
466.5796	0.0161
466.7809	0.0093
466.9823	0.0083
467.1836	0.016
467.3849	0.0133
467.5862	0.0034
467.7875	0.0153
467.9887	0.014
468.19	0.0101
468.3912	0.0167
468.5924	0.0017
468.7936	0.0102
468.9948	0.0066
469.196	0.0074
469.3972	0.0063
469.5983	0.0015
469.7994	0.011
470.0006	0.0095
470.2017	0.0097
470.4027	0.0186
470.6038	0.0154
470.8049	0.0084
471.0059	0.0136
471.2069	0.0103
471.408	0.0183
471.6089	0.0131
471.8099	0.0111
472.0109	0.0117
472.2119	0.0146
472.4128	0.0087
472.6137	0.0129
472.8146	0.0095
473.0155	0.0181
473.2164	0.0078
473.4173	0.0094
473.6181	0.0075
473.819	0.0146
474.0198	0.0036
474.2206	0.0001
474.4214	0.0039
474.6222	0.0027
474.8229	0.0057
475.0237	0.0139
475.2244	0.0131
475.4251	0.0122
475.6258	0.0036
475.8265	0.0065
476.0272	-0.0003
476.2278	0.0049
476.4285	0.0093
476.6291	0.0075
476.8297	0.015
477.0303	0.0067
477.2309	0.0056
477.4315	0.007
477.632	-0.005
477.8326	0.0062
478.0331	0.0138
478.2336	0.0065
478.4341	0.0134
478.6346	0.012
478.8351	0.0109
479.0355	0.0122
479.236	0.0142
479.4364	0.0108
479.6368	0.0077
479.8372	0.0054
480.0376	0.0077
480.2379	0.0133
480.4383	0.0177
480.6386	-0.0012
480.8389	0.0026
481.0392	0.0092
481.2395	0.0094
481.4398	0.006
481.6401	0.0003
481.8403	0.0066
482.0405	0.0157
482.2408	0.0078
482.441	0.0099
482.6411	0.0126
482.8413	0.0008
483.0415	0.0077
483.2416	0.0038
483.4417	0.0055
483.6419	0.0011
483.8419	0.0095
484.042	0.0086
484.2421	0.0054
484.4422	0.0017
484.6422	0.0109
484.8422	0.0084
485.0422	0.0046
485.2422	0.0027
485.4422	0.0028
485.6422	0.0014
485.8421	0.0029
486.042	0.0122
486.242	0.0012
486.4419	0.0036
486.6417	0.0018
486.8416	0.0067
487.0415	0.0031
487.2413	-0.0006
487.4411	0.007
487.641	0.0067
487.8408	0.0135
488.0405	0.0133
488.2403	0.0052
488.4401	0.0026
488.6398	0.0067
488.8395	0.0001
489.0392	0.0103
489.2389	0.0112
489.4386	-0.0009
489.6383	0.0102
489.8379	-0.0046
490.0376	0.0061
490.2372	0.0039
490.4368	0.0057
490.6364	-0.0007
490.836	0.0009
491.0355	0.0033
491.2351	0.0017
491.4346	0.004
491.6341	0.0081
491.8336	0.008
492.0331	0.0012
492.2326	0.0101
492.432	0.0035
492.6315	0.0083
492.8309	0.0062
493.0303	0.0102
493.2297	0.002
493.4291	0.0046
493.6284	0.0099
493.8278	0.0088
494.0271	0.005
494.2264	0.0003
494.4257	0.0072
494.625	0.0121
494.8243	0.0028
495.0236	0.0111
495.2228	0.0138
495.422	0.0083
495.6213	0.0059
495.8205	0.0111
496.0196	0.0035
496.2188	0.0138
496.418	0.0053
496.6171	0.001
496.8162	0.0122
497.0153	0.0109
497.2144	0.0049
497.4135	0.0067
497.6126	0.0101
497.8116	-0.0003
498.0107	0.0176
498.2097	0.0052
498.4087	0.0049
498.6077	0.0051
498.8067	0.0081
499.0056	-0.0002
499.2046	0.008
499.4035	0.0075
499.6024	-0.0039
499.8013	0.0091
500.0002	0.0043
500.199	0.0108
500.3979	0.0031
500.5967	0.0059
500.7956	0.0079
500.9944	0.0056
501.1932	0.0118
501.3919	0.007
501.5907	0.011
501.7895	0.0045
501.9882	0.0102
502.1869	0.0157
502.3856	0.0019
502.5843	0.0075
502.783	0.0024
502.9816	0.0141
503.1803	0.0043
503.3789	0.0155
503.5775	0.0086
503.7761	0.0015
503.9747	0.0134
504.1732	0.0006
504.3718	0.0183
504.5703	0.0093
504.7689	0.0012
504.9674	0.0001
505.1658	0.0115
505.3643	0.0139
505.5628	0.0157
505.7612	0.0144
505.9597	-0.0017
506.1581	0.0051
506.3565	-0.0007
506.5549	0.0045
506.7532	-0.0008
506.9516	0.0106
507.1499	0.0013
507.3482	0.0073
507.5465	0.0071
507.7448	0.0023
507.9431	0.0051
508.1414	0.0019
508.3396	-0.0014
508.5379	0.0088
508.7361	0.0136
508.9343	0.0059
509.1325	0.0103
509.3306	0.0062
509.5288	0.0003
509.7269	0.0117
509.9251	0.0129
510.1232	0.0098
510.3213	0.0113
510.5193	-0.004
510.7174	0.0088
510.9154	0.0153
511.1135	0.0052
511.3115	0.0086
511.5095	0.0022
511.7075	0.0113
511.9055	0.0142
512.1034	0.004
512.3014	0.0002
512.4993	0.0093
512.6972	0.0056
512.8951	0.0114
513.093	0.0022
513.2908	0.0213
513.4887	0.0033
513.6865	0.0101
513.8844	0.0084
514.0822	0.0111
514.2799	0.0013
514.4777	-0.0027
514.6755	-0.0039
514.8732	0.0132
515.0709	0.0051
515.2687	0.005
515.4664	0.0115
515.664	0.0102
515.8617	0.0026
516.0594	0.0062
516.257	0.01
516.4546	0.0208
516.6522	0.0073
516.8498	0.0151
517.0474	0.0029
517.2449	0.0015
517.4425	0.0102
517.64	0.0096
517.8375	0.0148
518.035	0.0023
518.2325	0.006
518.43	0.0033
518.6274	-0.0003
518.8249	0.003
519.0223	0.0145
519.2197	0.007
519.4171	0.0055
519.6145	0.0109
519.8118	0.0067
520.0092	-0.0023
520.2065	0.0129
520.4038	0.0037
520.6011	0.0085
520.7984	0.0113
520.9956	0.01
521.1929	0.0172
521.3901	0.0131
521.5874	0.0177
521.7846	0.0025
521.9818	0.0056
522.1789	0.0078
522.3761	0.0107
522.5732	0.0038
522.7704	-0.0004
522.9675	-0.0051
523.1646	-0.0047
523.3617	0.0118
523.5587	0.001
523.7558	0.0052
523.9528	0.0108
524.1498	0.0077
524.3468	0.0024
524.5438	0.0038
524.7408	0.001
524.9378	0.0143
525.1347	0.0115
525.3316	0.0004
525.5285	0.0024
525.7254	0.0106
525.9223	0.0179
526.1192	0.0104
526.316	0.015
526.5129	0.015
526.7097	0.0079
526.9065	0.0105
527.1033	0.0047
527.3	0.0113
527.4968	0.0034
527.6935	-0.0041
527.8903	0.0085
528.087	0.0091
528.2837	0.0099
528.4804	0.0056
528.677	-0.0011
528.8737	0.0062
529.0703	0.0078
529.2669	0.0111
529.4635	0.0045
529.6601	0.0036
529.8567	0.0106
530.0532	0.0011
530.2498	0.0047
530.4463	0.0014
530.6428	0.0156
530.8393	0.0165
531.0358	-0.0009
531.2322	0.0003
531.4287	-0.0004
531.6251	-0.0053
531.8215	0.0116
532.0179	0.0082
532.2143	0.0127
532.4107	0.0095
532.607	0.0036
532.8034	-0.0043
532.9997	0.0002
533.196	-0.0028
533.3923	0.0152
533.5886	0.0063
533.7848	0.0079
533.9811	0.0106
534.1773	0.0088
534.3735	0.0064
534.5697	0.001
534.7659	0.012
534.9621	0.0093
535.1582	0.013
535.3544	0.0116
535.5505	0.0023
535.7466	0.0028
535.9427	0.0019
536.1387	-0.0003
536.3348	0.0107
536.5308	0.0064
536.7269	0.0052
536.9229	0.006
537.1189	0.0132
537.3148	0.0093
537.5108	0.0027
537.7068	0.0155
537.9027	-0.002
538.0986	0.0099
538.2945	0.0095
538.4904	-0.0067
538.6863	0.0041
538.8821	0.0166
539.078	0.0087
539.2738	0.0026
539.4696	0.0029
539.6654	0.0065
539.8611	-0.0013
540.0569	0.01
540.2526	0.0062
540.4484	-0.0006
540.6441	0.0082
540.8398	0.0199
541.0355	0.0035
541.2311	-0.001
541.4268	0.0072
541.6224	0.0248
541.818	0.0108
542.0136	0.0073
542.2092	0.0059
542.4048	0.0029
542.6003	0.0056
542.7959	0.0139
542.9914	0.0136
543.1869	0.0079
543.3824	0.0017
543.5779	0.0141
543.7734	0.0176
543.9688	0.0115
544.1642	0.0122
544.3596	0.0185
544.555	0.0095
544.7504	0.0208
544.9458	0.0059
545.1411	0.0033
545.3365	0.0147
545.5318	0.0054
545.7271	0.0077
545.9224	0.0068
546.1177	0.0098
546.3129	0.0092
546.5081	0.0037
546.7034	0.0137
546.8986	-0.0008
547.0938	0.0066
547.289	0.0149
547.4841	-0.0022
547.6793	0.0016
547.8744	0.0124
548.0695	0.0021
548.2646	0.0096
548.4597	0.0073
548.6548	0.0209
548.8498	0.0072
549.0448	0.0089
549.2399	0.0151
549.4349	0.0056
549.6298	0.0146
549.8248	0.0057
550.0198	0.0135
550.2147	0.0114
550.4096	0.0008
550.6045	0.0065
550.7994	0.004
550.9943	0.003
551.1892	-0.0025
551.384	0.0152
551.5788	0.0129
551.7737	0.0133
551.9685	0.0062
552.1632	0.0066
552.358	-0.0006
552.5528	0.0132
552.7475	0.0042
552.9422	0.0103
553.1369	0.0074
553.3316	0.0078
553.5263	0.0144
553.7209	0.0047
553.9156	0.0086
554.1102	0.0077
554.3048	-0.0045
554.4994	0.0045
554.694	0.0081
554.8885	0.0062
555.0831	0.011
555.2776	0.0009
555.4721	0.0115
555.6666	0.0055
555.8611	0.0083
556.0555	0.0122
556.25	0.0125
556.4444	0.0029
556.6388	0.0047
556.8332	0.0127
557.0276	0.0038
557.222	0.0049
557.4163	0.0049
557.6107	-0.0005
557.805	-0.0025
557.9993	0.0189
558.1936	-0.004
558.3879	0.007
558.5821	0.0051
558.7764	0.0039
558.9706	0.0019
559.1648	0.018
559.359	-0.0024
559.5532	0.0065
559.7473	0.0082
559.9415	0.0024
560.1356	0.0143
560.3297	0.004
560.5238	0.0035
560.7179	-0.0005
560.9119	0.0052
561.106	0.0024
561.3	0.0138
561.494	-0.0027
561.688	0.0022
561.882	0.0003
562.076	0.0087
562.2699	0.0074
562.4639	0.0171
562.6578	0.0097
562.8517	0.0042
563.0456	0.0134
563.2395	0.0137
563.4333	0.0066
563.6272	0.0114
563.821	0.0066
564.0148	0.0039
564.2086	0.0057
564.4024	0.0119
564.5961	0.01
564.7899	0.0192
564.9836	0.0084
565.1773	0.0171
565.371	0.005
565.5647	0.016
565.7584	0.0194
565.952	0.007
566.1456	0.0096
566.3393	0.0071
566.5329	0.0044
566.7264	0.0106
566.92	0.0043
567.1136	0.0017
567.3071	-0.0007
567.5006	0.0104
567.6941	-0.0003
567.8876	0.0098
568.0811	0.0151
568.2745	-0.0029
568.468	0.0055
568.6614	0.0072
568.8548	0.0054
569.0482	0.0043
569.2416	0.0061
569.4349	0.0006
569.6283	0.0074
569.8216	0.0102
570.0149	0.0054
570.2082	0.0133
570.4015	0.0058
570.5947	0.0053
570.788	0.0059
570.9812	-0.0001
571.1744	0.0045
571.3676	0.0036
571.5608	0.0083
571.754	0.0136
571.9471	0.0122
572.1402	0.009
572.3333	0.0072
572.5264	0.002
572.7195	0.0038
572.9126	0.008
573.1057	0.0016
573.2987	0.0057
573.4917	0.0031
573.6847	0.0041
573.8777	0.0104
574.0707	0.0053
574.2636	0.0058
574.4566	0.0065
574.6495	0.0005
574.8424	0.0086
575.0353	0.0044
575.2281	0.0103
575.421	0.0035
575.6138	0.0021
575.8067	0.0031
575.9995	0.0031
576.1923	0.0033
576.385	0.0049
576.5778	0.0066
576.7706	0.0094
576.9633	0.0055
577.156	-0.0027
577.3487	0.0061
577.5414	0.0051
577.734	0.0024
577.9267	0.0034
578.1193	0.0089
578.3119	0.0023
578.5045	0.005
578.6971	0.0038
578.8897	0.0019
579.0822	0.0086
579.2747	0.0047
579.4673	0.0099
579.6598	0.0068
579.8522	0.0078
580.0447	0.0108
580.2372	0.0114
580.4296	0.0126
580.622	0.0018
580.8144	0.0077
581.0068	0.0029
581.1992	0.0051
581.3915	0.0002
581.5839	0.0043
581.7762	0.0067
581.9685	0.0016
582.1608	0.0051
582.353	0.002
582.5453	0.0064
582.7375	0.0048
582.9298	-0.0016
583.122	0.0047
583.3142	0.0096
583.5063	0.0038
583.6985	0.0038
583.8906	0.0041
584.0827	0.0128
584.2749	0.0026
584.4669	0.0046
584.659	0.0068
584.8511	0.0086
585.0431	0.0062
585.2352	0.0048
585.4272	0.006
585.6192	0.0018
585.8111	0.0047
586.0031	0.0054
586.195	0.0036
586.387	0.005
586.5789	0.0055
586.7708	0.0066
586.9627	0.0041
587.1545	0.0067
587.3464	0.0051
587.5382	0.004
587.73	0.0107
587.9218	0.0013
588.1136	-0.0002
588.3053	0.0045
588.4971	0.0053
588.6888	0.0032
588.8805	0.0041
589.0722	0.009
589.2639	0.0084
589.4556	0.0132
589.6472	0.0063
589.8389	0.0075
590.0305	0.003
590.2221	0.0074
590.4137	0.0039
590.6052	0.0036
590.7968	0.0072
590.9883	0.0042
591.1798	0.0033
591.3713	0.0034
591.5628	0.004
591.7543	0.0037
591.9458	0.0031
592.1372	0.0099
592.3286	0.0089
592.52	0.0034
592.7114	0.0016
592.9028	0.0122
593.0941	0.0053
593.2855	0.0015
593.4768	0.0074
593.6681	0.0049
593.8594	0.0067
594.0506	0.006
594.2419	0.0065
594.4331	0.0051
594.6244	0.003
594.8156	0.0061
595.0067	0.0028
595.1979	0.0096
595.3891	0.0067
595.5802	0.0125
595.7713	0.0064
595.9624	0.011
596.1535	-0.001
596.3446	0.0017
596.5357	0.004
596.7267	-0.0001
596.9177	0.0046
597.1087	0.0041
597.2997	0.0059
597.4907	0.0013
597.6817	0.0016
597.8726	0.0088
598.0635	0.0043
598.2544	0.0073
598.4453	0.0029
598.6362	0.0028
598.827	0.0051
599.0179	0.0054
599.2087	0.0056
599.3995	0.0053
599.5903	0.0139
599.7811	0.0108
599.9718	0.0022
600.1626	0.0052
600.3533	0.0003
600.544	0.0052
600.7347	0.0042
600.9254	0.0109
601.116	0.0004
601.3067	0.0059
601.4973	0.0146
601.6879	0.0053
601.8785	0.0103
602.0691	0.001
602.2596	0.0091
602.4502	0.0093
602.6407	0.0073
602.8312	0.0129
603.0217	0.0042
603.2122	0.0061
603.4027	0.006
603.5931	0
603.7835	0.011
603.9739	-0.0001
604.1643	0.0091
604.3547	0.0111
604.5451	0.0138
604.7354	0.0047
604.9257	0.0006
605.116	0.0022
605.3063	0.0097
605.4966	0.0018
605.6869	0.0081
605.8771	0.0096
606.0673	0.0096
606.2575	0.0051
606.4477	0.0095
606.6379	0.0029
606.8281	0.0018
607.0182	0.0093
607.2083	0.0013
607.3985	0.0097
607.5885	0.0037
607.7786	0.004
607.9687	0.0105
608.1587	0.0068
608.3488	0.0074
608.5388	-0.0029
608.7288	-0.0026
608.9187	0.0066
609.1087	0.0052
609.2986	0.0107
609.4886	-0.0035
609.6785	0.008
609.8684	0.0009
610.0582	0.0008
610.2481	0.0027
610.4379	0.0082
610.6278	0.006
610.8176	0.0052
611.0074	0.0113
611.1971	0.0028
611.3869	0.0075
611.5766	-0.004
611.7664	0.0157
611.9561	0.0076
612.1458	0.0082
612.3354	0.0027
612.5251	0.0008
612.7147	0.0107
612.9044	0.0046
613.094	0.0088
613.2836	0.0038
613.4731	0.0029
613.6627	0.0099
613.8522	0.0067
614.0417	0.0082
614.2313	0.0037
614.4207	0.0007
614.6102	0.0068
614.7997	0.0079
614.9891	0.0067
615.1785	-0.0056
615.3679	0.0066
615.5573	0.0097
615.7467	0.0045
615.9361	0
616.1254	0.0074
616.3147	0.0065
616.504	0.0061
616.6933	0.0091
616.8826	0.0032
617.0718	0.0079
617.2611	-0.0004
617.4503	0.0012
617.6395	0.0078
617.8287	0.0086
618.0179	0.0089
618.207	0.0059
618.3961	-0.0001
618.5853	0.0054
618.7744	0.0125
618.9634	0.0143
619.1525	0.0142
619.3416	-0.0039
619.5306	0.0061
619.7196	0.0134
619.9086	0.008
620.0976	-0.0009
620.2866	0.0057
620.4755	0.0003
620.6645	0.0156
620.8534	0.0085
621.0423	0.0029
621.2312	0.0063
621.42	0.0075
621.6089	0.005
621.7977	0.0108
621.9865	0.0081
622.1753	-0.002
622.3641	-0.0045
622.5529	0.0014
622.7416	0.0004
622.9303	0.0035
623.1191	0.0009
623.3078	0.0075
623.4964	0.0005
623.6851	0.0066
623.8737	0.0014
624.0624	-0.006
624.251	0.0082
624.4396	0.0098
624.6282	0.01
624.8167	-0.0016
625.0053	0.0065
625.1938	0.0017
625.3823	0.0088
625.5708	0.0128
625.7593	0.0064
625.9477	0.0183
626.1362	0.0115
626.3246	-0.0015
626.513	0.0101
626.7014	0.0142
626.8898	0.0134
627.0781	0.0135
627.2665	0.0089
627.4548	-0.0003
627.6431	0.0111
627.8314	0.0073
628.0197	0.0085
628.2079	0.0188
628.3962	0.0037
628.5844	0.0099
628.7726	0.0118
628.9608	0.0085
629.1489	0.012
629.3371	0.007
629.5252	0.0002
629.7134	0.0026
629.9015	0.0136
630.0895	-0.01
630.2776	0.0042
630.4657	0.0134
630.6537	0.0097
630.8417	-0.0026
631.0297	0.0017
631.2177	0.0073
631.4057	0.0066
631.5936	0.0007
631.7815	0.0122
631.9695	0.0067
632.1574	0.0091
632.3452	0.0016
632.5331	0.0037
632.7209	0.0117
632.9088	0.0046
633.0966	0.0195
633.2844	0.0116
633.4722	0.01
633.6599	0.0193
633.8477	0.0043
634.0354	0.0203
634.2231	-0.0148
634.4108	0.0104
634.5985	0.014
634.7861	0.0054
634.9738	0.009
635.1614	0.0148
635.349	0.0115
635.5366	0.0099
635.7242	0.0105
635.9117	0.004
636.0993	0.0076
636.2868	0.0066
636.4743	0.0061
636.6618	-0.0086
636.8492	0.018
637.0367	0.0007
637.2241	-0.0024
637.4115	0.0246
637.5989	0.0034
637.7863	0.022
637.9737	0.0053
638.161	0.0091
638.3484	0.0015
638.5357	0.0047
638.723	0.0164
638.9103	-0.0026
639.0975	0.0042
639.2848	0.0197
639.472	0.0049
639.6592	-0.0017
639.8464	0.0079
640.0336	0.0194
640.2208	-0.0041
640.4079	-0.0058
640.595	-0.0035
640.7821	0.0192
640.9692	0.0052
641.1563	0.0071
641.3434	0.0017
641.5304	0.0197
641.7174	0.0144
641.9044	0.0199
642.0914	0.0158
642.2784	0.0089
642.4653	-0.0065
642.6523	-0.0002
642.8392	0.0149
643.0261	0.0133
643.213	-0.002
643.3999	0.0284
643.5867	0.0278
643.7735	0.0078
643.9604	0.0099
644.1472	0.0207
644.3339	0.0005
644.5207	0.0102
644.7075	-0.0016
644.8942	0.0021
645.0809	0.0017
645.2676	0.0124
645.4543	0.0093
645.6409	0.0258
645.8276	-0.0024
646.0142	0.0011
646.2008	0.01
646.3874	-0.0179
646.574	-0.0214
646.7605	0.012
646.9471	-0.0003
647.1336	-0.0299
647.3201	0.013
647.5066	0.0022
647.6931	0.0012
647.8795	-0.0002
648.0659	0.0134
648.2524	0.0054
648.4388	0.0118
648.6252	0.0221
648.8115	0.0178
648.9979	0.016
649.1842	0.0166
649.3705	0.0181
649.5568	-0.0002
649.7431	0.0081
649.9294	-0.0139
650.1156	-0.0172
650.3018	0.0034
650.488	0.0075
650.6742	0.0067
650.8604	0.0265
651.0466	0.0027
651.2327	0
651.4188	0.0156
651.6049	0.013
651.791	0.0102
651.9771	0.0183
652.1632	0.0273
652.3492	0.0026
652.5352	0.0083
652.7212	0.0129
652.9072	0.0139
653.0932	0.0129
653.2791	0.0199
653.465	0.0011
653.651	0.0164
653.8369	0.0383
654.0227	-0.0036
654.2086	0.0116
654.3944	0.0055
654.5803	0.009
654.7661	0.0062
654.9519	0.0004
655.1377	0.0002
655.3234	0.0002
655.5092	0.0002
655.6949	0.0002
655.8806	0.0002
656.0663	0.0002
656.2519	0.0002
656.4376	0.0002
656.6232	0.0002
656.8088	0.0002
656.9945	0.0002
657.18	0.0002
657.3656	0.0002
657.5511	0.0002
657.7367	0.0002
657.9222	0.0002
658.1077	0.0002
658.2932	0.0002
658.4786	0.0002
658.6641	0.0002
658.8495	0.0002
659.0349	0.0002
659.2203	0.0002
659.4057	0.0002
659.591	0.1418
659.7764	0.011
659.9617	0.0062
660.147	0.0102
660.3323	-0.005
660.5176	0.0217
660.7028	-0.0091
660.888	0.0046
661.0733	0.0307
661.2585	-0.0034
661.4436	0.0161
661.6288	0.0266
661.8139	-0.0165
661.9991	-0.001
662.1842	0.0107
662.3693	0.019
662.5544	0.0146
662.7394	0.0229
662.9245	-0.0024
663.1095	0.0032
663.2945	-0.0111
663.4795	0.0111
663.6644	0.0019
663.8494	0.0121
664.0343	0.0356
664.2193	0.0024
664.4042	0.0198
664.589	0.0188
664.7739	0.0035
664.9587	-0.0078
665.1436	-0.0118
665.3284	0.0063
665.5132	-0.0316
665.698	0.034
665.8827	0.0228
666.0675	-0.0022
666.2522	0.021
666.4369	0.0004
666.6216	-0.003
666.8063	0.0183
666.9909	-0.003
667.1756	0.0047
667.3602	-0.0003
667.5448	0.0017
667.7294	0.0078
667.9139	0.0028
668.0985	0.0096
668.283	0.0034
668.4675	0.0144
668.652	0.0317
668.8365	0.003
669.0209	-0.0003
669.2054	0.0189
669.3898	0.0359
669.5742	0.0203
669.7586	0.0125
669.943	0.0174
670.1273	0.0187
670.3117	0.0074
670.496	0.002
670.6803	0.0101
670.8646	-0.017
671.0488	0.0274
671.2331	-0.0139
671.4173	0.0065
671.6015	0.0211
671.7857	0.0108
671.9699	0.0015
672.1541	0.0039
672.3382	0.0092
672.5223	0.0063
672.7064	0.0011
672.8905	0.0018
673.0746	0.0092
673.2587	0.034
673.4427	0.0242
673.6267	0.0226
673.8107	0.0266
673.9947	0.0172
674.1787	0.0064
674.3626	0.0255
674.5465	0.0181
674.7304	0.0112
674.9143	-0.0372
675.0982	0.0013
675.2821	0.0192
675.4659	0.0199
675.6497	0.0018
675.8335	0.0168
676.0173	-0.0052
676.2011	0.0261
676.3849	-0.0019
676.5686	0.0408
676.7523	0.0087
676.936	0.0063
677.1197	0.0137
677.3034	0.0299
677.487	0.0092
677.6706	0.0126
677.8542	0.0147
678.0378	0.0007
678.2214	0.0049
678.405	0.0141
678.5885	-0.0055
678.772	0.0279
678.9555	0.0106
679.139	0.0012
679.3225	-0.0013
679.5059	-0.0068
679.6894	0.0016
679.8728	0
680.0562	0.0026
680.2395	0.0146
680.4229	0.0013
680.6062	0.0063
680.7896	0.0086
680.9729	0.0136
681.1562	0.0192
681.3394	0.0055
681.5227	-0.0014
681.7059	0.0003
681.8891	0.0168
682.0723	-0.0064
682.2555	0.0155
682.4387	0.0124
682.6218	0.0201
682.805	0.0134
682.9881	0.0175
683.1712	0.0218
683.3542	0.0029
683.5373	-0.0101
683.7203	0.0265
683.9034	-0.0046
684.0864	-0.0004
684.2694	0.0147
684.4523	0.0052
684.6353	-0.0111
684.8182	-0.0032
685.0011	0.0136
685.184	0.0097
685.3669	0.0326
685.5498	0.0053
685.7326	-0.01
685.9154	0.0105
686.0982	0.0117
686.281	0
686.4638	0.0255
686.6465	0.0164
686.8293	-0.0023
687.012	0.0124
687.1947	0.01
687.3774	0.0221
687.56	-0.0101
687.7427	0.0115
687.9253	0.0021
688.1079	0.0156
688.2905	-0.0139
688.4731	0.0199
688.6556	0.0009
688.8382	-0.0193
689.0207	0.0177
689.2032	0.0092
689.3857	0.0003
689.5681	-0.0186
689.7506	0.0493
689.933	0.0084
690.1154	0.0254
690.2978	0.0079
690.4802	0.0205
690.6626	0.0124
690.8449	0.0341
691.0272	0.0084
691.2095	-0.0156
691.3918	0.0011
691.5741	0.0018
691.7563	0.0197
691.9386	0.0239
692.1208	0.019
692.303	0.0036
692.4852	0.0142
692.6673	0.0045
692.8495	-0.0163
693.0316	0.0003
693.2137	0.0024
693.3958	0.0016
693.5778	0.0095
693.7599	-0.0055
693.9419	-0.0055
694.1239	0.0104
694.3059	0.0306
694.4879	0.0241
694.6699	-0.0087
694.8518	-0.0165
695.0337	0.0228
695.2157	0.0189
695.3975	-0.0193
695.5794	0.0206
695.7613	0.0241
695.9431	0.0169
696.1249	0.0186
696.3067	-0.0134
696.4885	0.0306
696.6703	0.0149
696.852	0.0046
697.0337	0.0229
697.2154	0.0085
697.3971	0.0096
697.5788	0.019
697.7605	-0.0007
697.9421	0.011
698.1237	0.013
698.3053	0.011
698.4869	0.01
698.6685	0.01
698.85	0.0155
699.0315	-0.0108
699.213	0.0363
699.3945	0.0045
699.576	0.0145
699.7575	0
699.9389	0.0039
700.1203	0.034
700.3017	0.0116
700.4831	0.0304
700.6645	0.0695
700.8458	0.0024
701.0271	0.0563
701.2084	0.0208
701.3897	0.0349
701.571	-0.0145
701.7523	0.0098
701.9335	0.012
702.1147	0.0098
702.2959	-0.0191
702.4771	0.0051
702.6583	0.0244
702.8394	-0.0255
703.0205	0.0175
703.2016	-0.001
703.3827	-0.021
703.5638	-0.0026
703.7449	0.0347
703.9259	0.0204
704.1069	-0.0008
704.2879	0.0205
704.4689	0.0116
704.6499	0.0144
704.8308	0.0147
705.0117	0.0285
705.1927	-0.0005
705.3735	0.0207
705.5544	0.0217
705.7353	0.0059
705.9161	-0.011
706.0969	0.0105
706.2777	0.0134
706.4585	-0.0064
706.6393	0.0263
706.82	0.011
707.0007	-0.0093
707.1815	0.0009
707.3621	0.0455
707.5428	0.0234
707.7235	0.0088
707.9041	0.0269
708.0847	0.0119
708.2653	0.0363
708.4459	0.013
708.6265	0.0051
708.807	0.0098
708.9875	0.0081
709.168	0.0014
709.3485	0.01
709.529	0.0229
709.7095	-0.0308
709.8899	0.0113
710.0703	0.0148
710.2507	-0.0018
710.4311	-0.0303
710.6115	0.0275
710.7918	0.0327
710.9721	0.0199
711.1524	-0.0209
711.3327	-0.0023
711.513	0.0008
711.6932	0.0302
711.8735	0.0284
712.0537	-0.0064
712.2339	0.0198
712.4141	0.031
712.5942	0.0089
712.7744	0.0004
712.9545	0.0179
713.1346	0.0009
713.3147	-0.0031
713.4947	0.0031
713.6748	0.0293
713.8548	0.0293
714.0348	0.031
714.2148	0.0168
714.3948	0.0172
714.5748	0.0267
714.7547	0.0076
714.9346	0.0271
715.1145	-0.0033
715.2944	0
715.4743	0.048
715.6541	-0.018
715.834	0.0433
716.0138	0.0116
716.1936	0.0016
716.3733	0.0097
716.5531	0.0033
716.7328	0.0229
716.9126	0.0405
717.0923	-0.0016
717.2719	0.0369
717.4516	0.0056
717.6312	-0.0078
717.8109	0.0373
717.9905	0.0153
718.1701	0.018
718.3496	0.0008
718.5292	-0.01
718.7087	0.0156
718.8882	0.0179
719.0677	0.0161
719.2472	0.0066
719.4267	-0.0026
719.6061	-0.0155
719.7856	0.0307
719.965	0.006
720.1443	0.0095
720.3237	0.0379
720.5031	0.0031
720.6824	0.025
720.8617	0.0114
721.041	0.0169
721.2203	0.0245
721.3995	-0.0042
721.5788	-0.0027
721.758	-0.0033
721.9372	-0.0004
722.1164	-0.0076
722.2956	0.0272
722.4747	0.0125
722.6538	0.0058
722.8329	0.0321
723.012	0.0227
723.1911	0.0134
723.3702	0.0175
723.5492	0.0149
723.7282	0.0234
723.9072	0.0232
724.0862	0.0059
724.2652	0.0225
724.4441	0.005
724.623	0.0223
724.8019	0.0116
724.9808	-0.0037
725.1597	-0.0003
725.3385	0.0065
725.5174	-0.004
725.6962	0.0199
725.875	0.0252
726.0538	0.0246
726.2325	0.0169
726.4112	-0.0143
726.59	-0.0072
726.7687	0.0042
726.9474	0.0157
727.126	0.0331
727.3047	-0.0058
727.4833	0.0061
727.6619	-0.0014
727.8405	-0.0013
728.0191	0.0187
728.1976	0.0144
728.3762	0.0158
728.5547	0.0026
728.7332	0.0348
728.9116	0.0163
729.0901	0.0067
729.2686	0.0118
729.447	-0.0128
729.6254	0.0173
729.8038	0.017
729.9821	-0.0078
730.1605	0.0164
730.3388	0.0071
730.5171	0.0333
730.6954	-0.016
730.8737	0.0099
731.0519	0.0008
731.2302	0.0225
731.4084	-0.0011
731.5866	0.0041
731.7648	-0.0003
731.9429	0.0211
732.1211	0.0006
732.2992	0.012
732.4773	0.0006
732.6554	0.0066
732.8335	0.0255
733.0115	0.0016
733.1896	-0.0095
733.3676	0.0197
733.5456	0.0016
733.7235	0.0108
733.9015	0.0119
734.0794	-0.0011
734.2574	-0.0108
734.4353	0.018
734.6131	0.0059
734.791	-0.0083
734.9689	0.0066
735.1467	-0.0085
735.3245	0.0496
735.5023	0.0152
735.68	-0.0118
735.8578	-0.0029
736.0355	0.0016
736.2132	0.0273
736.3909	0.021
736.5686	-0.0067
736.7463	0.0116
736.9239	0.0316
737.1015	-0.0003
737.2791	-0.0094
737.4567	0.0264
737.6343	0.0138
737.8118	0.0239
737.9894	0.0092
738.1669	0.0047
738.3444	0.0405
738.5218	0.01
738.6993	0.0159
738.8767	0.0117
739.0541	0.005
739.2315	0.0035
739.4089	0.0271
739.5863	0.01
739.7636	0
739.9409	0.01
740.1182	-0.0007
740.2955	0.0207
740.4728	0.0031
740.65	-0.0004
740.8272	0.0375
741.0044	0.0022
741.1816	0.0375
741.3588	-0.0307
741.5359	-0.0025
741.7131	0.0081
741.8902	-0.0029
742.0673	-0.017
742.2444	0.0369
742.4214	0.0241
742.5985	0.017
742.7755	0.0136
742.9525	-0.0019
743.1295	-0.0094
743.3064	-0.0124
743.4834	0.0116
743.6603	0.0472
743.8372	-0.0476
744.0141	0.0313
744.191	0.0382
744.3678	-0.0541
744.5446	0.0032
744.7215	0.0186
744.8982	-0.0041
745.075	0.0353
745.2518	-0.0036
745.4285	0.0297
745.6052	-0.0353
745.7819	-0.0027
745.9586	0.0227
746.1353	-0.0045
746.3119	0.0015
746.4885	0.037
746.6651	-0.0008
746.8417	-0.0083
747.0183	0.0149
747.1948	0.0337
747.3714	0.0276
747.5479	0.0391
747.7244	0.0156
747.9008	-0.011
748.0773	0.0382
748.2537	-0.0071
748.4301	0.0229
748.6065	-0.0215
748.7829	-0.0184
748.9593	-0.0041
749.1356	-0.0051
749.3119	0.0013
749.4882	0.0056
749.6645	-0.0072
749.8408	0.0209
750.017	0.029
750.1933	-0.0123
750.3695	0.0218
750.5457	0.001
750.7218	0.0113
750.898	0.0065
751.0741	0.0023
751.2502	0.0065
751.4263	0.0119
751.6024	0.0152
751.7784	0.0018
751.9545	0.0086
752.1305	0.01
752.3065	0.024
752.4825	0.0155
752.6584	0.0063
752.8344	0.0139
753.0103	-0.0183
753.1862	0.0204
753.3621	0.004
753.5379	-0.001
753.7138	0.0103
753.8896	0.0089
754.0654	-0.0047
754.2412	0.0432
754.417	0.0382
754.5927	0.0125
754.7685	0.0405
754.9442	0.0155
755.1199	0.0148
755.2956	0
755.4712	-0.0026
755.6469	-0.0017
755.8225	0.0159
755.9981	0.013
756.1736	0.0022
756.3492	-0.0075
756.5248	0.0223
756.7003	-0.0024
756.8758	-0.0025
757.0513	0.0104
757.2267	0.0061
757.4022	0.0014
757.5776	0.0198
757.753	0.0155
757.9284	0.0029
758.1038	0.0127
758.2791	0.0187
758.4545	0.002
758.6298	0.0122
758.8051	0.0197
758.9803	-0.0066
759.1556	-0.0018
759.3308	0.0071
759.506	0.0103
759.6812	0.0091
759.8564	0.0083
760.0316	-0.0055
760.2067	0.0155
760.3819	-0.0048
760.557	0.0004
760.732	-0.0095
760.9071	0.0083
761.0821	-0.0201
761.2572	0.0224
761.4322	0.0206
761.6072	-0.01
761.7821	-0.0317
761.9571	0.0251
762.132	0.0395
762.3069	0.0422
762.4818	0.0147
762.6567	0.0078
762.8316	0.0032
763.0064	0.0098
763.1812	0.0129
763.356	-0.0055
763.5308	0.0337
763.7055	-0.0043
763.8803	0.0009
764.055	0.0028
764.2297	-0.003
764.4044	0.0083
764.579	0.0069
764.7537	0.0083
764.9283	0.0158
765.1029	0.0166
765.2775	0.0216
765.4521	0.0132
765.6266	0.0224
765.8011	0.0089
765.9756	0.031
766.1501	0.0103
766.3246	0.0148
766.4991	0.0117
766.6735	0.021
766.8479	0.0202
767.0223	0.0218
767.1967	0.0239
767.371	-0.0076
767.5454	0.0192
767.7197	0.0395
767.894	0.0061
768.0683	0.0263
768.2425	0.0268
768.4168	0.0208
768.591	-0.0048
768.7652	0.0212
768.9394	0.0117
769.1135	0.0044
769.2877	0.0449
769.4618	0.0338
769.6359	0.0114
769.81	0.0172
769.984	0.0091
770.1581	-0.0074
770.3321	0.0347
770.5061	-0.0141
770.6801	0.0208
770.8541	0.0059
771.028	0.0284
771.202	0.0276
771.3759	0.0194
771.5498	0.0171
771.7236	-0.0035
771.8975	0.0674
772.0713	0.0368
772.2451	-0.0096
772.4189	0.0174
772.5927	-0.0076
772.7665	-0.019
772.9402	0.0248
773.1139	0.0039
773.2876	-0.0076
773.4613	0.0359
773.635	0.0357
773.8086	0.0126
773.9822	0.0279
774.1558	0.0335
774.3294	0.0384
774.503	0.0429
774.6765	0.0505
774.8501	0.0035
775.0236	0.0122
775.1971	0.014
775.3705	0.0627
775.544	-0.0718
775.7174	0.0067
775.8908	0.0206
776.0642	0.0254
776.2376	0.0884
776.4109	0.007
776.5843	-0.0078
776.7576	-0.0124
776.9309	0.059
777.1041	-0.043
777.2774	-0.0008
777.4506	0.0413
777.6238	0.0125
777.797	0.0173
777.9702	0.006
778.1434	0.0164
778.3165	0.0241
778.4896	-0.0325
778.6627	0.0413
778.8358	-0.0102
779.0089	-0.013
779.1819	0.0232
779.3549	0.0136
779.5279	-0.0325
779.7009	0.0598
779.8739	0.0467
780.0468	-0.0014
780.2197	-0.0111
780.3926	-0.0284
780.5655	0.0428
780.7384	0.0042
780.9112	0.0331
781.0841	0.0199
781.2569	0.0119
781.4297	-0.004
781.6024	0.0125
781.7752	0.0208
781.9479	0.0439
782.1206	0.0107
782.2933	-0.0039
782.466	0.0191
782.6386	-0.0298
782.8113	0.0024
782.9839	0.0078
783.1565	0.0398
783.329	-0.0091
783.5016	0.0406
783.6741	0.0031
783.8466	0.052
784.0191	0.0021
784.1916	0.0269
784.3641	-0.0258
784.5365	0.0132
784.7089	0.043
784.8813	0.0918
785.0537	0.0462
785.2261	0.0098
785.3984	0.0007
785.5707	-0.0264
785.743	0.0514
785.9153	-0.0195
786.0876	-0.0236
786.2598	-0.0281
786.432	0.0674
786.6042	0.0329
786.7764	0.0049
786.9486	-0.0313
787.1207	0.0374
787.2928	0.0385
787.4649	-0.0239
787.637	0.0181
787.8091	-0.0177
787.9811	0.0539
788.1532	0.0352
788.3252	0.0327
788.4972	0.0157
788.6691	-0.0034
788.8411	0.0216
789.013	0.0619
789.1849	0.0279
789.3568	0.0169
789.5287	0.1068
789.7005	-0.022
789.8723	-0.0138
790.0442	-0.0269
790.2159	0.0245
790.3877	0.0173
790.5595	-0.0367
790.7312	-0.028
790.9029	0.0011
791.0746	0.0246
791.2463	0.0107
791.4179	0.0862
791.5896	0.0966
791.7612	0.0333
791.9328	0.0601
792.1044	-0.01
792.2759	-0.0356
792.4474	0.0036
792.619	0.0012
792.7905	0.0259
792.9619	0.0106
793.1334	0.0548
793.3048	0.0515
793.4762	0.0207
793.6476	0.0113
793.819	-0.0039
793.9904	0.0218
794.1617	-0.011
794.333	0.0018
794.5043	0.0434
794.6756	0.0238
794.8469	0.0251
795.0181	-0.0025
795.1893	0.033
795.3605	0.0708
795.5317	-0.0239
795.7029	-0.03
795.874	0.0526
796.0452	0.0252
796.2163	0.0835
796.3873	0.0814
796.5584	0.0968
796.7294	0.0765
796.9005	0.0416
797.0715	-0.003
797.2425	0.0583
797.4134	0.0623
797.5844	0.023
797.7553	-0.016
797.9262	0.1166
798.0971	0.1066
798.2679	0.0447
798.4388	0.0001
798.6096	0.0537
798.7804	0.0772
798.9512	0.0455
799.122	0.0279
799.2927	0.0621
799.4635	-0.0202
799.6342	-0.0572
799.8049	0.0541
799.9755	-0.0174
800.1462	0.0327
800.3168	0.0502
800.4874	-0.1043
800.658	0.1088
800.8286	0.0562
800.9991	0.0378
801.1696	0.078
801.3402	-0.0491
801.5106	0.1123
801.6811	-0.0138
801.8516	0.0675
802.022	0.0039
802.1924	0.0533
802.3628	0.1164
802.5332	0.0724
802.7035	0.1259
802.8739	-0.0299
803.0442	0.0936
803.2145	0.073
803.3847	0.024
803.555	-0.0127
803.7252	0.0314
803.8954	0.0506
804.0656	-0.0103
804.2358	0.0264
804.4059	0.0493
804.5761	0.0315
804.7462	0.0514
804.9163	0.1227
805.0864	0.1061
805.2564	0.0235
805.4264	0.0362
805.5965	0.0159
805.7665	-0.025
805.9364	-0.0211
806.1064	0.0405
806.2763	0.0243
806.4462	0.0584
806.6161	0.0463
806.786	0.0487
806.9559	-0.0189
807.1257	-0.0168
807.2955	0.0127
807.4653	0.0049
807.6351	0.0603
807.8048	-0.0173
807.9746	0.0657
808.1443	-0.0066
808.314	0.0405
808.4837	0.14
808.6533	0.0128
808.8229	0.0531
808.9926	0.049
809.1622	0.0726
809.3317	0.0053
809.5013	0.0057
809.6708	0.0625
809.8403	0.0627
810.0098	0.0001
810.1793	0.0958
810.3488	-0.0314
810.5182	0.0492
810.6876	-0.0243
810.857	0.08
811.0264	-0.0497
811.1958	0.0705
811.3651	0.0527
811.5344	0.1677
811.7037	0.0316
811.873	0.1344
812.0422	0.0121
812.2115	0.0266
812.3807	-0.1587
812.5499	-0.0557
812.7191	-0.0894
812.8882	-0.0271
813.0574	0.0299
813.2265	0.0141
813.3956	-0.069
813.5646	0.1536
813.7337	0.0395
813.9027	-0.0428
814.0718	-0.0096
814.2407	0.0753
814.4097	0.0346
814.5787	0.0645
814.7476	-0.0085
814.9165	0.0235
815.0854	-0.0465
815.2543	0.1529
815.4232	0.1103
815.592	0.0425
815.7608	-0.0528
815.9296	0.0933
816.0984	-0.0136
816.2671	-0.0957
816.4359	0.0868
816.6046	0.1186
816.7733	-0.1242
816.942	-0.1017
817.1106	0.1061
817.2793	-0.0167
817.4479	0.0194
817.6165	0.1198
817.785	0.0281
817.9536	-0.0783
818.1221	0.0002
818.2906	-0.0031
818.4591	-0.0236
818.6276	0.0661
818.7961	0.0544
818.9645	0.0812
819.1329	0.1373
819.3013	-0.0123
819.4697	0.1337
819.638	0.0956
819.8064	-0.0062
819.9747	0.1805
820.143	0.0736
820.3113	0.0536
820.4795	0.0615
820.6477	0.0866
820.816	0.1218
820.9842	0.0734
821.1523	0.0415
821.3205	0.054
821.4886	-0.0238
821.6567	-0.0454
821.8248	0.1487
821.9929	-0.0891
822.1609	0.0692
822.329	0.0538
822.497	0.0901
822.665	0.0936
822.833	-0.0722
823.0009	-0.0203
823.1688	0.1507
823.3367	-0.2033
823.5046	0.1256
823.6725	-0.0492
823.8404	0.02
824.0082	0.0003
824.176	-0.0817
824.3438	0.1009
824.5116	0.0035
824.6793	0.1293
824.847	0.0699
825.0147	0.2241
825.1824	0.0432
825.3501	0.2989
825.5177	0.0181
825.6854	0.0263
825.853	-0.0614
826.0206	0.0835
826.1881	0.0887
826.3557	0.1084
826.5232	0.2898
826.6907	0.1033
826.8582	-0.0987
827.0257	0.0488
827.1931	0.0852
827.3605	0.2391
827.528	0.0163
827.6953	-0.1302
827.8627	0.0159
828.03	0.2373
828.1974	0.1018
828.3647	0.1584
828.532	-0.0124
828.6992	0.0088
828.8665	-0.2539
829.0337	0.0829
829.2009	-0.0036
829.3681	0.0654
829.5352	-0.1654
829.7024	0.1439
829.8695	-0.0035
830.0366	0.2474
830.2037	0.1063
830.3707	0.1865
830.5378	-0.0847
830.7048	-0.0266
830.8718	0.1246
831.0388	-0.2139
831.2057	-0.0951
831.3727	-0.187
831.5396	0.1495
831.7065	-0.59
831.8734	0.4533
832.0402	0.6167
832.2071	-0.2033
832.3739	0.285
832.5407	-1.746
832.7075	-0.3317
832.8742	-0.015
833.041	0.0416
833.2077	0.9917
833.3744	0.2834
833.541	0.3132
833.7077	-0.0118
833.8743	0.1316
834.0409	0.1258
834.2075	0.229
834.3741	-0.0587
834.5407	0.0553
834.7072	0.0839
834.8737	0.3223
835.0402	0.0064
835.2067	-0.1152
835.3731	0.0169
835.5395	0.1042
835.706	0.3862
835.8723	0.0186
836.0387	0.5308
836.2051	0.9161
836.3714	0.1001
836.5377	0.2252
836.704	0.5738
836.8703	-0.1401
837.0365	-0.8403
837.2027	2.0381
837.3689	0.1881
837.5351	-0.0392
837.7013	0.1695
837.8674	-0.0704
838.0335	0.0004
838.1997	-0
838.3657	0.3999
838.5318	-0
838.6978	0.3552
838.8639	-0.0209
839.0299	0.1087
839.1958	0.049
839.3618	-0
839.5277	-0.0241
839.6937	-0.2231
839.8596	0.0009
840.0254	0.3801
840.1913	-0.1077
840.3571	0.1015
840.523	-1.7513
840.6888	-0.0292
840.8545	0.5106
841.0203	-0.0498
841.186	-0.1539
841.3517	-0.0519
841.5174	0.4186
841.6831	0.195
841.8488	1.5364
842.0144	-0.0792
842.18	0.8052
842.3456	-0.3067
842.5112	-0.8699
842.6767	0.0966
842.8422	0.2161
843.0077	0.364
843.1732	-0.4066
843.3387	-0
843.5042	-0
843.6696	-0
843.835	0.1323
844.0004	-0.3508
844.1657	-0
844.3311	-0
844.4964	-0.5362
844.6617	0.4634
844.827	-0
844.9923	0.3137
845.1575	-0.1702
845.3227	-0.433
845.4879	-0.1472
845.6531	-0.1388
845.8183	0.3064
845.9834	-0
846.1485	0.1193
846.3136	0.1052
846.4787	0.3172
846.6438	0.0432
846.8088	-0
846.9738	-0
847.1388	-0
847.3038	0.7288
847.4687	-0
847.6337	-0.1929
847.7986	-0.0647
847.9635	-0.2336
848.1284	-0
848.2932	1.5689
848.458	-0
848.6228	0.2308
848.7876	-0
848.9524	0.3201
849.1172	-1.6573
849.2819	-0
849.4466	0.3705
849.6113	0.1667
849.7759	-0
849.9406	0.3963
850.1052	-1.2553
850.2698	-0
850.4344	-0.1808
850.599	0.8462
850.7635	0.3148
850.928	0.3801
851.0925	0.0622
851.257	0.0737
851.4215	0.6104
851.5859	-0.0131
851.7503	-0
851.9147	-0
852.0791	0.3716
852.2434	0.633
852.4078	-0
852.5721	-0
852.7364	0.107
852.9007	-0.0718
853.0649	-0
853.2291	0.4779
853.3934	-0.0394
853.5575	-0.1771
853.7217	0.1455
853.8859	-0.1657
854.05	0.5047
854.2141	0.4041
854.3782	-0.2595
854.5423	-0
854.7063	0.7932
854.8703	0.057
855.0343	0.2342
855.1983	0.0657
855.3623	0.0092
855.5262	-0.208
855.6901	0.4656
855.854	1.0539
856.0179	-0.2795
856.1818	-0
856.3456	0.4443
856.5094	0.0586
856.6732	-0.1799
856.837	-0
857.0008	0.5357
857.1645	-0.0199
857.3282	-0.548
857.4919	0.3739
857.6556	-0
857.8192	-0.1143
857.9828	-0.1808
858.1465	-0.1124
858.31	-0
858.4736	-0.2494
858.6372	0.3941
858.8007	0.2958
858.9642	-0
859.1277	0.3241
859.2911	-0.5106
859.4546	-0
859.618	-0
859.7814	-0
859.9448	-0
860.1081	-0
860.2715	-0
860.4348	0.4654
860.5981	2.0762
860.7614	-0.6645
860.9246	1.8272
861.0879	-0
861.2511	-0
861.4143	-0
861.5774	-0.5042
861.7406	-0
861.9037	-0.578
862.0668	-0.8766
862.2299	0.2658
862.393	-0
862.556	-0
862.7191	-0.1784
862.8821	0.1799
863.0451	-0
863.208	0.1704
863.371	0.0042
863.5339	0.4774
863.6968	-0
863.8597	0.6486
864.0225	-0
864.1854	-0.4623
864.3482	-0
864.511	0.3575
864.6737	-0.4346
864.8365	0.3243
864.9992	0.5006
865.1619	0.0023
865.3246	-2.1086
865.4873	-0
865.65	-0
865.8126	0.7001
865.9752	0.2603
866.1378	0.2365
866.3004	-0.1824
866.4629	-0
866.6254	0.8877
866.7879	-0.0387
866.9504	-0
867.1129	-0
867.2753	0.0121
867.4377	-0
867.6001	-0.7606
867.7625	0.0992
867.9249	0.1635
868.0872	0.5267
868.2495	-0
868.4118	-0
868.5741	-0
868.7363	-0.6839
868.8986	-0.4459
869.0608	-0
869.223	0.3926
869.3851	0.4723
869.5473	-0
869.7094	0.6977
869.8715	0.8553
870.0336	0.1191
870.1957	-0
870.3577	0.8155
870.5197	-0
870.6817	-0.6514
870.8437	1.2145
871.0057	0.1972
871.1676	0.449
871.3295	-0
871.4914	-1.5105
871.6533	-0.0627
871.8151	0.63
871.977	0.6486
872.1388	-0
872.3006	-0.4252
872.4623	1.1195
872.6241	1.8985
872.7858	-0
872.9475	0.9245
873.1092	-0.0844
873.2709	-0
873.4325	-1.8824
873.5941	-0
873.7557	-0
873.9173	-0
874.0789	0.3612
874.2404	-0
874.4019	-0.1531
874.5634	-0
874.7249	1.295
874.8863	-0.0915
875.0478	-0.429
875.2092	1.0324
875.3706	0.008
875.5319	-0
875.6933	-0
875.8546	-0.2072
876.0159	0.1904
876.1772	-0.0792
876.3385	-0
876.4997	-0
876.6609	1.1965
876.8221	-0
876.9833	-0.3169
877.1445	0.5739
877.3056	-0.855
877.4667	-0.0105
877.6278	0.5049
877.7889	-0.3407
877.9499	0.1238
878.111	-0.4327
878.272	-0
878.433	-0
878.5939	-0.1834
878.7549	1.5929
878.9158	0.1133
879.0767	0.4945
879.2376	0.7019
879.3984	0.6709
879.5593	0.3664
879.7201	-0
879.8809	-0
880.0417	-0.1437
880.2024	0.345
880.3632	-0.391
880.5239	0.2094
880.6846	0.3896
880.8452	-0.0139
881.0059	-0
881.1665	0.442
881.3271	0.1665
881.4877	-0
881.6483	-1.4668
881.8088	-0.7782
881.9693	-0
882.1298	-0
882.2903	-0
