Data from D4ACN5uM440nmA_Absorbance_13-50-26-017.txt Node
Date: Fri Feb 21 13:50:26 GMT 2025
User: LASERRRRR
Spectrometer: FLMT03099
Trigger mode: 0
Integration Time (sec): 1.500000E-2
Scans to average: 1
Electric dark correction enabled: true
Nonlinearity correction enabled: false
Boxcar width: 0
XAxis mode: Wavelengths
Number of Pixels in Spectrum: 3648
>>>>>Begin Spectral Data<<<<<
179.3399	-0.4441
179.5586	-0.4441
179.7771	-0.4441
179.9957	-0.3539
180.2143	-0
180.4329	0.2643
180.6514	-0
180.8699	-0
181.0885	-0
181.307	1.5618
181.5255	-0.021
181.744	0.1778
181.9625	0.3472
182.181	-0
182.3994	-0.5995
182.6179	-0.3029
182.8363	-0.1584
183.0547	-0.3251
183.2732	0.1919
183.4916	0.5781
183.71	0.1321
183.9284	0.0771
184.1467	0.3588
184.3651	0.149
184.5835	0.2563
184.8018	0.1703
185.0201	0.014
185.2385	0.3406
185.4568	0.347
185.6751	0.1025
185.8934	0.1618
186.1117	-0.0029
186.3299	0.1942
186.5482	0.3157
186.7664	0.1283
186.9847	0.0569
187.2029	0.1414
187.4211	0.0479
187.6393	0.118
187.8575	0.0706
188.0757	0.4048
188.2939	0.1818
188.512	0.2371
188.7302	0.1675
188.9483	0.3118
189.1665	0.3389
189.3846	0.5749
189.6027	0.3883
189.8208	0.1831
190.0389	0.1413
190.257	0.1275
190.475	0.28
190.6931	0.1794
190.9111	0.1172
191.1292	0.0856
191.3472	0.2128
191.5652	0.2795
191.7832	0.1487
192.0012	0.2474
192.2192	0.1563
192.4371	0.1428
192.6551	0.2209
192.873	0.1045
193.091	0.1514
193.3089	0.1378
193.5268	0.3456
193.7447	0.1625
193.9626	0.318
194.1805	0.274
194.3984	0.2106
194.6162	0.2331
194.8341	0.4203
195.0519	0.2435
195.2697	0.307
195.4875	0.3015
195.7054	0.191
195.9231	0.1891
196.1409	0.3828
196.3587	0.3337
196.5765	0.3961
196.7942	0.3277
197.012	0.4379
197.2297	0.296
197.4474	0.4167
197.6651	0.3526
197.8828	0.3603
198.1005	0.4448
198.3182	0.3617
198.5358	0.4415
198.7535	0.371
198.9711	0.4006
199.1888	0.3766
199.4064	0.4153
199.624	0.3906
199.8416	0.3838
200.0592	0.4141
200.2767	0.3816
200.4943	0.4413
200.7119	0.3915
200.9294	0.4548
201.1469	0.3829
201.3645	0.4568
201.582	0.3766
201.7995	0.4243
202.017	0.4033
202.2344	0.38
202.4519	0.4135
202.6694	0.4267
202.8868	0.4154
203.1042	0.4028
203.3217	0.4079
203.5391	0.3732
203.7565	0.392
203.9739	0.4036
204.1913	0.3832
204.4086	0.355
204.626	0.331
204.8433	0.3714
205.0607	0.3448
205.278	0.3372
205.4953	0.3251
205.7126	0.3474
205.9299	0.3451
206.1472	0.3298
206.3644	0.3332
206.5817	0.3308
206.7989	0.3135
207.0162	0.3032
207.2334	0.349
207.4506	0.2909
207.6678	0.3221
207.885	0.3129
208.1022	0.3071
208.3194	0.2987
208.5365	0.2897
208.7537	0.3017
208.9708	0.2864
209.1879	0.2869
209.405	0.2818
209.6222	0.2768
209.8392	0.2898
210.0563	0.2895
210.2734	0.2793
210.4905	0.2707
210.7075	0.2833
210.9245	0.255
211.1416	0.2663
211.3586	0.2636
211.5756	0.2415
211.7926	0.2482
212.0096	0.2574
212.2265	0.2637
212.4435	0.2457
212.6604	0.2543
212.8774	0.2375
213.0943	0.2497
213.3112	0.248
213.5281	0.2467
213.745	0.2326
213.9619	0.2438
214.1788	0.2584
214.3956	0.2552
214.6125	0.2498
214.8293	0.2435
215.0461	0.2421
215.2629	0.2479
215.4798	0.2493
215.6965	0.2378
215.9133	0.2333
216.1301	0.2602
216.3469	0.2463
216.5636	0.2422
216.7803	0.2422
216.9971	0.2566
217.2138	0.2445
217.4305	0.246
217.6472	0.2388
217.8639	0.248
218.0805	0.2508
218.2972	0.2451
218.5138	0.2577
218.7305	0.2478
218.9471	0.2409
219.1637	0.2591
219.3803	0.2468
219.5969	0.2503
219.8135	0.2615
220.0301	0.2478
220.2466	0.2525
220.4632	0.2451
220.6797	0.2611
220.8962	0.2677
221.1127	0.2631
221.3292	0.2632
221.5457	0.2723
221.7622	0.2591
221.9787	0.2805
222.1951	0.2684
222.4116	0.2809
222.628	0.2787
222.8444	0.2711
223.0608	0.2662
223.2772	0.2888
223.4936	0.2634
223.71	0.2817
223.9264	0.2799
224.1427	0.2965
224.3591	0.2855
224.5754	0.2737
224.7917	0.2837
225.008	0.2923
225.2243	0.3062
225.4406	0.2958
225.6569	0.3007
225.8732	0.3187
226.0894	0.3062
226.3057	0.2925
226.5219	0.296
226.7381	0.3214
226.9543	0.3068
227.1705	0.3127
227.3867	0.3048
227.6029	0.3226
227.8191	0.3372
228.0352	0.3401
228.2513	0.3474
228.4675	0.3422
228.6836	0.3435
228.8997	0.351
229.1158	0.3585
229.3319	0.3516
229.548	0.3449
229.764	0.3529
229.9801	0.3658
230.1961	0.3637
230.4121	0.3675
230.6282	0.3796
230.8442	0.3852
231.0602	0.386
231.2761	0.3957
231.4921	0.3877
231.7081	0.382
231.924	0.4083
232.14	0.4069
232.3559	0.4035
232.5718	0.4128
232.7877	0.4109
233.0036	0.4077
233.2195	0.414
233.4353	0.4179
233.6512	0.4201
233.867	0.4251
234.0829	0.4212
234.2987	0.4281
234.5145	0.4271
234.7303	0.4293
234.9461	0.4366
235.1619	0.4349
235.3776	0.4322
235.5934	0.4372
235.8091	0.4496
236.0249	0.4469
236.2406	0.4429
236.4563	0.4452
236.672	0.4428
236.8877	0.4468
237.1034	0.4454
237.319	0.4549
237.5347	0.4403
237.7503	0.4372
237.966	0.4538
238.1816	0.454
238.3972	0.4544
238.6128	0.4651
238.8284	0.4595
239.0439	0.4571
239.2595	0.4642
239.475	0.455
239.6906	0.4696
239.9061	0.454
240.1216	0.461
240.3371	0.4636
240.5526	0.4642
240.7681	0.4628
240.9836	0.4557
241.199	0.4471
241.4145	0.4394
241.6299	0.4415
241.8453	0.444
242.0607	0.4374
242.2761	0.4321
242.4915	0.4315
242.7069	0.4203
242.9223	0.4185
243.1376	0.4183
243.353	0.4032
243.5683	0.4006
243.7836	0.3833
243.9989	0.3837
244.2142	0.3834
244.4295	0.3799
244.6448	0.3604
244.86	0.3626
245.0753	0.3472
245.2905	0.3448
245.5057	0.3389
245.721	0.3385
245.9362	0.3324
246.1514	0.3155
246.3665	0.3158
246.5817	0.3005
246.7969	0.2935
247.012	0.2929
247.2271	0.2953
247.4423	0.2855
247.6574	0.2831
247.8725	0.2738
248.0876	0.2737
248.3026	0.2642
248.5177	0.2548
248.7328	0.256
248.9478	0.2509
249.1628	0.2447
249.3779	0.2377
249.5929	0.2452
249.8079	0.2378
250.0228	0.2352
250.2378	0.2318
250.4528	0.2287
250.6677	0.2255
250.8827	0.2133
251.0976	0.2159
251.3125	0.2168
251.5274	0.2074
251.7423	0.2157
251.9572	0.2043
252.172	0.206
252.3869	0.208
252.6017	0.2074
252.8166	0.2013
253.0314	0.1926
253.2462	0.1977
253.461	0.1932
253.6758	0.1948
253.8906	0.1916
254.1053	0.1941
254.3201	0.1923
254.5348	0.1823
254.7496	0.1828
254.9643	0.1909
255.179	0.1856
255.3937	0.1905
255.6083	0.1914
255.823	0.185
256.0377	0.1811
256.2523	0.1816
256.467	0.1857
256.6816	0.1833
256.8962	0.1842
257.1108	0.1815
257.3254	0.1838
257.54	0.1763
257.7545	0.1873
257.9691	0.1789
258.1836	0.1794
258.3981	0.1799
258.6127	0.1737
258.8272	0.1797
259.0417	0.174
259.2561	0.1771
259.4706	0.173
259.6851	0.1766
259.8995	0.1765
260.114	0.1786
260.3284	0.1732
260.5428	0.1746
260.7572	0.171
260.9716	0.1791
261.186	0.175
261.4003	0.1778
261.6147	0.183
261.829	0.1737
262.0433	0.1812
262.2577	0.1706
262.472	0.1764
262.6863	0.1901
262.9005	0.178
263.1148	0.1784
263.3291	0.1858
263.5433	0.1885
263.7576	0.1783
263.9718	0.1797
264.186	0.1836
264.4002	0.1825
264.6144	0.1829
264.8286	0.1807
265.0427	0.1862
265.2569	0.1845
265.471	0.1834
265.6851	0.1856
265.8993	0.181
266.1134	0.1811
266.3275	0.1822
266.5415	0.1897
266.7556	0.1872
266.9697	0.1864
267.1837	0.1853
267.3978	0.1888
267.6118	0.1804
267.8258	0.1853
268.0398	0.1882
268.2538	0.185
268.4677	0.1838
268.6817	0.1805
268.8957	0.1805
269.1096	0.1804
269.3235	0.1817
269.5374	0.1825
269.7514	0.1774
269.9652	0.1852
270.1791	0.1736
270.393	0.1803
270.6068	0.179
270.8207	0.1784
271.0345	0.1727
271.2483	0.1746
271.4622	0.1789
271.676	0.1734
271.8897	0.1783
272.1035	0.1769
272.3173	0.1754
272.531	0.177
272.7448	0.1793
272.9585	0.1763
273.1722	0.1749
273.3859	0.1772
273.5996	0.1817
273.8133	0.1836
274.0269	0.1775
274.2406	0.1823
274.4542	0.1784
274.6679	0.1816
274.8815	0.1847
275.0951	0.1892
275.3087	0.1851
275.5223	0.1849
275.7358	0.1861
275.9494	0.1844
276.1629	0.1839
276.3765	0.1913
276.59	0.1868
276.8035	0.1882
277.017	0.193
277.2305	0.1882
277.444	0.188
277.6574	0.1882
277.8709	0.1926
278.0843	0.1933
278.2978	0.1893
278.5112	0.1893
278.7246	0.1873
278.938	0.1899
279.1513	0.1903
279.3647	0.1906
279.5781	0.188
279.7914	0.1891
280.0047	0.1899
280.2181	0.1881
280.4314	0.1872
280.6447	0.1919
280.8579	0.1818
281.0712	0.1907
281.2845	0.187
281.4977	0.188
281.711	0.1854
281.9242	0.1865
282.1374	0.1847
282.3506	0.1877
282.5638	0.1831
282.7769	0.1866
282.9901	0.183
283.2033	0.1834
283.4164	0.1839
283.6295	0.1814
283.8426	0.1804
284.0557	0.1875
284.2688	0.1882
284.4819	0.1839
284.695	0.1891
284.908	0.18
285.1211	0.1866
285.3341	0.181
285.5471	0.1873
285.7601	0.1869
285.9731	0.1929
286.1861	0.1852
286.3991	0.1872
286.612	0.1868
286.825	0.1867
287.0379	0.1855
287.2508	0.1897
287.4637	0.1955
287.6766	0.1864
287.8895	0.1811
288.1024	0.1869
288.3152	0.1901
288.5281	0.1806
288.7409	0.1899
288.9538	0.1894
289.1666	0.1805
289.3794	0.1852
289.5922	0.1862
289.8049	0.1863
290.0177	0.189
290.2304	0.1877
290.4432	0.1887
290.6559	0.1908
290.8686	0.1844
291.0813	0.1889
291.294	0.1883
291.5067	0.1852
291.7194	0.1846
291.932	0.1868
292.1447	0.1914
292.3573	0.1892
292.5699	0.1873
292.7825	0.186
292.9951	0.1863
293.2077	0.1861
293.4203	0.1886
293.6328	0.1884
293.8454	0.1886
294.0579	0.1898
294.2704	0.1955
294.4829	0.1901
294.6954	0.1875
294.9079	0.1855
295.1204	0.1863
295.3328	0.1946
295.5453	0.1907
295.7577	0.1849
295.9701	0.1878
296.1825	0.1936
296.3949	0.1888
296.6073	0.1882
296.8197	0.1875
297.0321	0.1894
297.2444	0.1856
297.4567	0.1867
297.6691	0.1812
297.8814	0.1917
298.0937	0.1875
298.306	0.1848
298.5182	0.1903
298.7305	0.1901
298.9428	0.1869
299.155	0.1767
299.3672	0.1862
299.5794	0.1924
299.7916	0.1894
300.0038	0.1866
300.216	0.1871
300.4282	0.1856
300.6403	0.1881
300.8525	0.1909
301.0646	0.1895
301.2767	0.1839
301.4888	0.189
301.7009	0.1888
301.913	0.1891
302.125	0.189
302.3371	0.1833
302.5491	0.1892
302.7612	0.1938
302.9732	0.1867
303.1852	0.1898
303.3972	0.1846
303.6092	0.1902
303.8211	0.19
304.0331	0.1891
304.245	0.1852
304.457	0.1871
304.6689	0.185
304.8808	0.1824
305.0927	0.18
305.3046	0.1849
305.5164	0.1779
305.7283	0.1814
305.9401	0.1751
306.152	0.1827
306.3638	0.1798
306.5756	0.1772
306.7874	0.1731
306.9992	0.1748
307.2109	0.1744
307.4227	0.1712
307.6344	0.1699
307.8462	0.1671
308.0579	0.1709
308.2696	0.1678
308.4813	0.1669
308.693	0.1607
308.9046	0.1625
309.1163	0.1601
309.328	0.158
309.5396	0.1579
309.7512	0.1526
309.9628	0.1532
310.1744	0.1507
310.386	0.1468
310.5976	0.1487
310.8091	0.151
311.0207	0.1491
311.2322	0.1456
311.4437	0.1471
311.6552	0.1435
311.8667	0.1521
312.0782	0.1404
312.2897	0.1415
312.5012	0.1408
312.7126	0.1344
312.924	0.1445
313.1355	0.1408
313.3469	0.1377
313.5583	0.1416
313.7696	0.1305
313.981	0.1384
314.1924	0.131
314.4037	0.1345
314.6151	0.1314
314.8264	0.1399
315.0377	0.135
315.249	0.137
315.4603	0.1272
315.6716	0.1309
315.8828	0.1309
316.0941	0.1273
316.3053	0.1287
316.5165	0.1388
316.7277	0.127
316.9389	0.1351
317.1501	0.1352
317.3613	0.1244
317.5724	0.1264
317.7836	0.121
317.9947	0.1305
318.2058	0.1275
318.417	0.1321
318.6281	0.1206
318.8391	0.1285
319.0502	0.1283
319.2613	0.1255
319.4723	0.1304
319.6834	0.1351
319.8944	0.1261
320.1054	0.127
320.3164	0.1197
320.5274	0.1299
320.7383	0.1337
320.9493	0.1275
321.1602	0.1251
321.3712	0.1284
321.5821	0.1227
321.793	0.1323
322.0039	0.1255
322.2148	0.1257
322.4257	0.1252
322.6365	0.1214
322.8474	0.1309
323.0582	0.1339
323.269	0.1326
323.4798	0.1331
323.6906	0.1317
323.9014	0.1272
324.1122	0.1266
324.3229	0.1319
324.5337	0.1319
324.7444	0.1296
324.9551	0.1378
325.1658	0.1293
325.3765	0.1337
325.5872	0.1315
325.7979	0.1309
326.0085	0.1244
326.2192	0.1262
326.4298	0.1333
326.6404	0.1377
326.851	0.1338
327.0616	0.1342
327.2722	0.1357
327.4828	0.1404
327.6933	0.141
327.9039	0.1331
328.1144	0.1349
328.3249	0.1364
328.5354	0.131
328.7459	0.1407
328.9564	0.1376
329.1669	0.1395
329.3773	0.1408
329.5878	0.1369
329.7982	0.1476
330.0086	0.1418
330.219	0.1353
330.4294	0.14
330.6398	0.1435
330.8502	0.1484
331.0605	0.143
331.2708	0.1405
331.4812	0.1353
331.6915	0.1402
331.9018	0.1373
332.1121	0.1488
332.3224	0.1457
332.5326	0.1371
332.7429	0.136
332.9531	0.1464
333.1633	0.1378
333.3735	0.1367
333.5837	0.14
333.7939	0.1373
334.0041	0.1425
334.2143	0.1401
334.4244	0.1505
334.6346	0.1367
334.8447	0.1384
335.0548	0.1451
335.2649	0.147
335.475	0.1507
335.685	0.1425
335.8951	0.1378
336.1051	0.1448
336.3152	0.1492
336.5252	0.1399
336.7352	0.1397
336.9452	0.1508
337.1552	0.1442
337.3652	0.1412
337.5751	0.1407
337.7851	0.1414
337.995	0.1504
338.2049	0.143
338.4148	0.1459
338.6247	0.1438
338.8346	0.1447
339.0445	0.1389
339.2543	0.1396
339.4642	0.1396
339.674	0.1425
339.8838	0.1463
340.0936	0.1492
340.3034	0.1411
340.5132	0.1413
340.7229	0.1399
340.9327	0.1523
341.1424	0.147
341.3522	0.1423
341.5619	0.1522
341.7716	0.1532
341.9813	0.1554
342.1909	0.1551
342.4006	0.1532
342.6102	0.1487
342.8199	0.149
343.0295	0.1493
343.2391	0.1527
343.4487	0.1543
343.6583	0.1596
343.8679	0.1514
344.0774	0.1523
344.287	0.1519
344.4965	0.1659
344.706	0.1641
344.9155	0.1536
345.125	0.1616
345.3345	0.1669
345.544	0.1576
345.7534	0.1627
345.9629	0.1603
346.1723	0.1636
346.3817	0.167
346.5911	0.1608
346.8005	0.1701
347.0099	0.1602
347.2193	0.1699
347.4286	0.1791
347.638	0.1683
347.8473	0.1736
348.0566	0.1683
348.2659	0.1783
348.4752	0.1736
348.6845	0.1741
348.8937	0.1716
349.103	0.1727
349.3122	0.1744
349.5214	0.182
349.7306	0.18
349.9398	0.1788
350.149	0.1759
350.3582	0.177
350.5674	0.1766
350.7765	0.1835
350.9856	0.1781
351.1948	0.185
351.4039	0.177
351.613	0.1823
351.822	0.1833
352.0311	0.1768
352.2402	0.1801
352.4492	0.1802
352.6582	0.1863
352.8672	0.1856
353.0762	0.1774
353.2852	0.188
353.4942	0.1861
353.7032	0.1867
353.9121	0.1815
354.1211	0.1839
354.33	0.1871
354.5389	0.1844
354.7478	0.1823
354.9567	0.1778
355.1655	0.1762
355.3744	0.1834
355.5833	0.1827
355.7921	0.1883
356.0009	0.1879
356.2097	0.1772
356.4185	0.1834
356.6273	0.1847
356.8361	0.1845
357.0448	0.1893
357.2536	0.1859
357.4623	0.1911
357.671	0.1931
357.8797	0.1892
358.0884	0.1793
358.2971	0.1855
358.5057	0.1936
358.7144	0.1867
358.923	0.195
359.1316	0.1967
359.3402	0.1872
359.5488	0.192
359.7574	0.203
359.966	0.188
360.1746	0.1925
360.3831	0.1989
360.5916	0.2017
360.8002	0.2057
361.0087	0.1928
361.2172	0.2007
361.4256	0.2062
361.6341	0.2001
361.8426	0.2109
362.051	0.2012
362.2594	0.2044
362.4678	0.2022
362.6762	0.206
362.8846	0.2029
363.093	0.2063
363.3014	0.2132
363.5097	0.2043
363.718	0.2116
363.9264	0.2104
364.1347	0.2088
364.343	0.211
364.5513	0.2106
364.7595	0.2181
364.9678	0.2158
365.176	0.216
365.3842	0.2206
365.5925	0.2181
365.8007	0.2226
366.0089	0.2211
366.217	0.2214
366.4252	0.2275
366.6333	0.2286
366.8415	0.221
367.0496	0.2267
367.2577	0.2245
367.4658	0.2223
367.6739	0.2224
367.882	0.2285
368.09	0.2292
368.2981	0.2303
368.5061	0.2291
368.7141	0.2331
368.9221	0.2435
369.1301	0.236
369.3381	0.236
369.5461	0.2387
369.754	0.2407
369.962	0.2364
370.1699	0.2376
370.3778	0.2514
370.5857	0.2385
370.7936	0.2367
371.0015	0.2356
371.2093	0.2358
371.4172	0.2408
371.625	0.2427
371.8328	0.2288
372.0406	0.2461
372.2484	0.2372
372.4562	0.2541
372.664	0.2486
372.8717	0.2425
373.0795	0.2565
373.2872	0.247
373.4949	0.2447
373.7026	0.2493
373.9103	0.243
374.118	0.2555
374.3256	0.2535
374.5333	0.25
374.7409	0.2492
374.9485	0.253
375.1561	0.2609
375.3637	0.2436
375.5713	0.256
375.7789	0.2602
375.9864	0.2456
376.194	0.2643
376.4015	0.2596
376.609	0.2641
376.8165	0.2662
377.024	0.2581
377.2315	0.2606
377.4389	0.2568
377.6464	0.2726
377.8538	0.2632
378.0612	0.2683
378.2686	0.2657
378.476	0.2716
378.6834	0.2576
378.8908	0.2672
379.0981	0.2704
379.3055	0.2811
379.5128	0.2607
379.7201	0.2712
379.9274	0.2639
380.1347	0.2747
380.342	0.2705
380.5492	0.2686
380.7565	0.2817
380.9637	0.2739
381.1709	0.2676
381.3781	0.2751
381.5853	0.2818
381.7925	0.2717
381.9997	0.2795
382.2068	0.2812
382.4139	0.2695
382.6211	0.2948
382.8282	0.2823
383.0353	0.2821
383.2424	0.2812
383.4494	0.2745
383.6565	0.2775
383.8635	0.2791
384.0706	0.2865
384.2776	0.281
384.4846	0.2813
384.6916	0.284
384.8986	0.2907
385.1055	0.289
385.3125	0.2932
385.5194	0.2903
385.7263	0.2746
385.9333	0.2929
386.1402	0.2861
386.347	0.2804
386.5539	0.2933
386.7608	0.2789
386.9676	0.2888
387.1744	0.2806
387.3813	0.2892
387.5881	0.2759
387.7948	0.2947
388.0016	0.2919
388.2084	0.2855
388.4151	0.2779
388.6219	0.2791
388.8286	0.2798
389.0353	0.2831
389.242	0.2822
389.4487	0.283
389.6553	0.2711
389.862	0.2754
390.0686	0.2771
390.2753	0.2756
390.4819	0.2769
390.6885	0.2771
390.8951	0.2712
391.1016	0.2792
391.3082	0.2717
391.5147	0.269
391.7213	0.2611
391.9278	0.2655
392.1343	0.2679
392.3408	0.2708
392.5473	0.2699
392.7537	0.2699
392.9602	0.26
393.1666	0.267
393.373	0.2671
393.5794	0.2641
393.7858	0.2608
393.9922	0.254
394.1986	0.2629
394.4049	0.2588
394.6113	0.2589
394.8176	0.2606
395.0239	0.2561
395.2302	0.2545
395.4365	0.2598
395.6428	0.2507
395.8491	0.2478
396.0553	0.2486
396.2615	0.2497
396.4678	0.2574
396.674	0.2403
396.8802	0.2412
397.0863	0.2433
397.2925	0.2551
397.4987	0.2405
397.7048	0.2479
397.9109	0.2433
398.117	0.2433
398.3231	0.2453
398.5292	0.2334
398.7353	0.2348
398.9413	0.2372
399.1474	0.2461
399.3534	0.2488
399.5594	0.2434
399.7654	0.2405
399.9714	0.2405
400.1774	0.2392
400.3833	0.24
400.5893	0.2379
400.7952	0.2473
401.0011	0.239
401.207	0.2423
401.4129	0.2393
401.6188	0.2418
401.8247	0.2418
402.0305	0.2379
402.2364	0.2477
402.4422	0.2386
402.648	0.2403
402.8538	0.236
403.0596	0.2335
403.2654	0.2399
403.4711	0.2318
403.6768	0.2306
403.8826	0.2441
404.0883	0.2363
404.294	0.2339
404.4997	0.2407
404.7054	0.2438
404.911	0.2392
405.1167	0.2401
405.3223	0.2324
405.5279	0.2359
405.7335	0.2341
405.9391	0.2267
406.1447	0.2472
406.3502	0.2379
406.5558	0.2321
406.7613	0.2385
406.9668	0.2444
407.1724	0.2404
407.3778	0.2413
407.5833	0.2278
407.7888	0.2328
407.9942	0.239
408.1997	0.237
408.4051	0.2332
408.6105	0.2443
408.8159	0.227
409.0213	0.2345
409.2267	0.2334
409.432	0.2363
409.6374	0.2386
409.8427	0.2428
410.048	0.2428
410.2533	0.2371
410.4586	0.234
410.6639	0.2376
410.8691	0.2367
411.0744	0.2315
411.2796	0.2297
411.4848	0.2275
411.69	0.2231
411.8952	0.2423
412.1004	0.2362
412.3056	0.2325
412.5107	0.2385
412.7158	0.242
412.921	0.2479
413.1261	0.2281
413.3312	0.2388
413.5362	0.2461
413.7413	0.2309
413.9464	0.2261
414.1514	0.2223
414.3564	0.234
414.5614	0.2332
414.7664	0.2254
414.9714	0.2279
415.1764	0.2428
415.3813	0.2288
415.5863	0.2332
415.7912	0.2342
415.9961	0.2393
416.201	0.2351
416.4059	0.2323
416.6108	0.235
416.8156	0.2239
417.0205	0.2293
417.2253	0.2268
417.4301	0.2321
417.6349	0.2311
417.8397	0.2249
418.0445	0.2357
418.2492	0.2224
418.454	0.226
418.6587	0.2241
418.8634	0.2361
419.0681	0.2406
419.2728	0.2239
419.4775	0.2393
419.6822	0.2201
419.8868	0.2202
420.0915	0.2248
420.2961	0.2143
420.5007	0.2214
420.7053	0.2222
420.9099	0.2223
421.1144	0.2093
421.319	0.2214
421.5235	0.2146
421.728	0.2204
421.9325	0.2238
422.137	0.2177
422.3415	0.2175
422.546	0.2158
422.7504	0.2158
422.9549	0.2154
423.1593	0.2076
423.3637	0.2093
423.5681	0.2166
423.7725	0.2028
423.9769	0.2149
424.1812	0.2043
424.3856	0.21
424.5899	0.2082
424.7942	0.2077
424.9985	0.2109
425.2028	0.218
425.4071	0.2066
425.6113	0.2029
425.8156	0.1981
426.0198	0.2051
426.224	0.2004
426.4282	0.1954
426.6324	0.1971
426.8366	0.1925
427.0407	0.1966
427.2449	0.1953
427.449	0.1876
427.6531	0.1946
427.8572	0.1954
428.0613	0.1966
428.2654	0.1936
428.4694	0.1779
428.6735	0.1837
428.8775	0.1844
429.0815	0.193
429.2855	0.1813
429.4895	0.1773
429.6935	0.1766
429.8975	0.1738
430.1014	0.1816
430.3053	0.1792
430.5093	0.1714
430.7132	0.1747
430.9171	0.1589
431.1209	0.1731
431.3248	0.159
431.5286	0.1557
431.7325	0.1756
431.9363	0.1576
432.1401	0.1647
432.3439	0.161
432.5477	0.1557
432.7514	0.1591
432.9552	0.1537
433.1589	0.149
433.3627	0.1564
433.5664	0.1599
433.7701	0.1597
433.9737	0.1565
434.1774	0.1551
434.3811	0.1426
434.5847	0.1451
434.7883	0.143
434.9919	0.1287
435.1955	0.1387
435.3991	0.1391
435.6027	0.128
435.8062	0.1518
436.0098	0.1323
436.2133	0.1291
436.4168	0.1298
436.6203	0.1291
436.8238	0.1165
437.0272	0.1267
437.2307	0.1271
437.4341	0.1171
437.6375	0.1256
437.841	0.12
438.0443	0.1201
438.2477	0.1123
438.4511	0.1052
438.6545	0.125
438.8578	0.1149
439.0611	0.1165
439.2644	0.1184
439.4677	0.1093
439.671	0.1027
439.8743	0.114
440.0775	0.0976
440.2808	0.0991
440.484	0.0955
440.6872	0.0997
440.8904	0.0872
441.0936	0.095
441.2967	0.0814
441.4999	0.0831
441.703	0.0924
441.9062	0.0959
442.1093	0.0915
442.3124	0.0908
442.5155	0.0904
442.7185	0.0815
442.9216	0.0884
443.1246	0.0802
443.3276	0.0804
443.5307	0.0773
443.7337	0.078
443.9366	0.0726
444.1396	0.0743
444.3426	0.0731
444.5455	0.078
444.7484	0.0608
444.9513	0.0673
445.1542	0.0771
445.3571	0.0657
445.56	0.0573
445.7628	0.0653
445.9657	0.067
446.1685	0.0667
446.3713	0.0742
446.5741	0.0662
446.7769	0.0674
446.9797	0.0673
447.1824	0.0545
447.3852	0.0475
447.5879	0.0612
447.7906	0.0529
447.9933	0.0599
448.196	0.0485
448.3986	0.0523
448.6013	0.0443
448.8039	0.0589
449.0066	0.0678
449.2092	0.0554
449.4118	0.0478
449.6143	0.0494
449.8169	0.0418
450.0195	0.0471
450.222	0.0499
450.4245	0.0412
450.627	0.0484
450.8295	0.0356
451.032	0.0411
451.2345	0.0382
451.4369	0.0475
451.6394	0.0387
451.8418	0.0355
452.0442	0.0468
452.2466	0.032
452.449	0.0416
452.6513	0.0325
452.8537	0.0292
453.056	0.0357
453.2583	0.0382
453.4607	0.024
453.663	0.0342
453.8652	0.0331
454.0675	0.0327
454.2697	0.0371
454.472	0.0322
454.6742	0.038
454.8764	0.0378
455.0786	0.0237
455.2808	0.0211
455.4829	0.037
455.6851	0.0382
455.8872	0.0154
456.0893	0.0254
456.2915	0.0195
456.4935	0.0361
456.6956	0.0242
456.8977	0.0261
457.0997	0.0272
457.3018	0.0131
457.5038	0.0293
457.7058	0.027
457.9078	0.0274
458.1098	0.0249
458.3117	0.0167
458.5137	0.0139
458.7156	0.0175
458.9175	0.0223
459.1194	0.0191
459.3213	0.0121
459.5232	0.0168
459.725	0.0238
459.9269	0.0145
460.1287	0.0181
460.3305	0.0183
460.5323	0.0196
460.7341	0.0245
460.9359	0.006
461.1376	0.0165
461.3394	0.0155
461.5411	0.0142
461.7428	0.0108
461.9445	0.0128
462.1462	0.0083
462.3479	0.0153
462.5495	0.0177
462.7512	0.0246
462.9528	0.0127
463.1544	0.012
463.356	-0.0003
463.5576	0.0245
463.7592	0.0064
463.9607	0.0171
464.1623	0.0068
464.3638	0.0071
464.5653	0.0142
464.7668	0.0197
464.9683	0.011
465.1697	0.0165
465.3712	-0.0003
465.5726	0.0016
465.7741	0.0164
465.9755	0.0178
466.1769	0.0062
466.3782	0.0151
466.5796	0.0115
466.7809	0.0116
466.9823	0.0061
467.1836	0.0136
467.3849	0.0083
467.5862	-0.007
467.7875	-0.0016
467.9887	0.0059
468.19	0.0078
468.3912	0.0133
468.5924	0.0065
468.7936	0.0059
468.9948	0.0051
469.196	0.0045
469.3972	0.0035
469.5983	0.0013
469.7994	0.0129
470.0006	0.0087
470.2017	0.0109
470.4027	0.0138
470.6038	0.0071
470.8049	0.0128
471.0059	0.0116
471.2069	0.0037
471.408	0.0139
471.6089	0.0028
471.8099	0.0101
472.0109	-0.0041
472.2119	0.01
472.4128	0.0116
472.6137	0.0054
472.8146	0.0041
473.0155	0.0131
473.2164	0.0112
473.4173	-0.0003
473.6181	-0.0015
473.819	-0.0037
474.0198	0.0001
474.2206	0.0013
474.4214	0.0088
474.6222	-0.0105
474.8229	0.0088
475.0237	0.0034
475.2244	0.0075
475.4251	0.0019
475.6258	0.0043
475.8265	0.0085
476.0272	0.0016
476.2278	0.0046
476.4285	0.0017
476.6291	0.0074
476.8297	0.0124
477.0303	0.001
477.2309	0.0041
477.4315	0.009
477.632	-0.0029
477.8326	0.0069
478.0331	0.0025
478.2336	0.0016
478.4341	0.0082
478.6346	0.0079
478.8351	0.0017
479.0355	0.0119
479.236	0.016
479.4364	0.0021
479.6368	-0.0028
479.8372	0.0021
480.0376	0.0073
480.2379	0.0055
480.4383	0.0126
480.6386	-0.0077
480.8389	-0.0043
481.0392	-0.0001
481.2395	0.0077
481.4398	0.0083
481.6401	0.0025
481.8403	-0.0008
482.0405	0.0066
482.2408	0.0029
482.441	0.0054
482.6411	-0.0026
482.8413	0.0023
483.0415	0.015
483.2416	-0.0001
483.4417	-0.0017
483.6419	0.0003
483.8419	-0.0024
484.042	0.0043
484.2421	-0.0037
484.4422	0.0006
484.6422	0.0036
484.8422	0.0018
485.0422	0.0044
485.2422	0.0025
485.4422	0.0033
485.6422	0.0021
485.8421	0.0039
486.042	0.0108
486.242	0.0004
486.4419	0.0077
486.6417	0.0012
486.8416	0.001
487.0415	-0.0011
487.2413	-0.0015
487.4411	0.0028
487.641	-0.0015
487.8408	0.0072
488.0405	0.0141
488.2403	0.0013
488.4401	-0.0002
488.6398	0.0007
488.8395	0.008
489.0392	0.0111
489.2389	0.0074
489.4386	-0.0011
489.6383	0.0048
489.8379	0.0009
490.0376	-0.0043
490.2372	-0.0044
490.4368	0.0052
490.6364	0.0004
490.836	-0.0031
491.0355	-0.0073
491.2351	0.0015
491.4346	0.0054
491.6341	-0.0038
491.8336	0.0038
492.0331	0.0025
492.2326	-0.0018
492.432	0.0035
492.6315	0.008
492.8309	0
493.0303	0.0035
493.2297	0.0021
493.4291	0.0006
493.6284	0.0095
493.8278	-0.002
494.0271	-0.0051
494.2264	-0.0104
494.4257	0.0052
494.625	0.0001
494.8243	-0.0036
495.0236	0.0064
495.2228	0.0011
495.422	0.0048
495.6213	0.0017
495.8205	-0.0006
496.0196	0.0029
496.2188	-0.002
496.418	-0.005
496.6171	0.0013
496.8162	0.0077
497.0153	0.0015
497.2144	-0
497.4135	0.0015
497.6126	0.0039
497.8116	-0.0104
498.0107	0.0059
498.2097	-0.0026
498.4087	0.0002
498.6077	-0.0033
498.8067	0.0038
499.0056	0.0016
499.2046	0.0021
499.4035	0.0036
499.6024	-0.0037
499.8013	0.001
500.0002	0.0076
500.199	0.0128
500.3979	-0.0077
500.5967	-0.0007
500.7956	0.0034
500.9944	-0.0038
501.1932	0.0084
501.3919	0.0085
501.5907	0.0047
501.7895	0.004
501.9882	0.0031
502.1869	0.0069
502.3856	-0.0056
502.5843	0.0009
502.783	-0.0044
502.9816	0.0062
503.1803	-0.0004
503.3789	0.0054
503.5775	-0.0039
503.7761	0.002
503.9747	0.0054
504.1732	-0.001
504.3718	0.0087
504.5703	-0
504.7689	-0.0008
504.9674	-0.0081
505.1658	-0.0027
505.3643	0.0062
505.5628	0.0034
505.7612	0.0052
505.9597	-0.0079
506.1581	-0.0004
506.3565	-0.0039
506.5549	-0.0018
506.7532	-0.0039
506.9516	-0.0005
507.1499	-0.0063
507.3482	-0.0001
507.5465	-0.0004
507.7448	-0.0008
507.9431	0.0044
508.1414	-0.0114
508.3396	0.0012
508.5379	0.0063
508.7361	-0.0002
508.9343	0.004
509.1325	0.0054
509.3306	-0.0081
509.5288	-0.0039
509.7269	0.0108
509.9251	-0.0032
510.1232	0.0011
510.3213	0.0017
510.5193	0.0025
510.7174	-0.0002
510.9154	-0.0005
511.1135	0.0009
511.3115	0.0018
511.5095	-0.0039
511.7075	0.0012
511.9055	0.0049
512.1034	-0.0011
512.3014	-0.0073
512.4993	-0.001
512.6972	0.0039
512.8951	-0.002
513.093	-0.0064
513.2908	0.0108
513.4887	0.0006
513.6865	0.0069
513.8844	-0.0031
514.0822	0.0019
514.2799	-0.0072
514.4777	-0.004
514.6755	-0.0062
514.8732	-0.0011
515.0709	-0.0004
515.2687	-0.002
515.4664	0.0032
515.664	0.0102
515.8617	0.0048
516.0594	-0.0003
516.257	0.0033
516.4546	0.0065
516.6522	0.0051
516.8498	-0.0003
517.0474	-0.0048
517.2449	-0.004
517.4425	0.0007
517.64	-0.0026
517.8375	0.0078
518.035	-0.0075
518.2325	-0.0142
518.43	-0.0048
518.6274	0.0024
518.8249	-0.0066
519.0223	-0.0027
519.2197	-0.0002
519.4171	-0.0144
519.6145	0.0069
519.8118	-0.0149
520.0092	-0.005
520.2065	0.0043
520.4038	-0.0043
520.6011	0.0104
520.7984	0.0046
520.9956	0.0034
521.1929	-0.0009
521.3901	0.0024
521.5874	-0.0013
521.7846	0
521.9818	-0.0029
522.1789	0.002
522.3761	0.0113
522.5732	0.0026
522.7704	-0.0152
522.9675	-0.0148
523.1646	-0.0074
523.3617	0.0063
523.5587	0.0084
523.7558	-0.0009
523.9528	0.0043
524.1498	-0.0057
524.3468	-0.0041
524.5438	-0.0017
524.7408	-0.0065
524.9378	0.0064
525.1347	0.0023
525.3316	-0.0075
525.5285	-0.0082
525.7254	0.0014
525.9223	0.0015
526.1192	-0.0048
526.316	-0.0021
526.5129	-0.0028
526.7097	-0.0008
526.9065	0.0122
527.1033	-0
527.3	-0.0116
527.4968	0.003
527.6935	-0.017
527.8903	0.0084
528.087	-0.0021
528.2837	0.0077
528.4804	-0.0054
528.677	0.0008
528.8737	0.0019
529.0703	0.0048
529.2669	0.0034
529.4635	-0.0102
529.6601	-0.0018
529.8567	-0.0045
530.0532	-0.0065
530.2498	-0.0021
530.4463	-0.0088
530.6428	0.0032
530.8393	0.0079
531.0358	-0.0034
531.2322	-0.0131
531.4287	0.001
531.6251	-0.0128
531.8215	-0.0055
532.0179	0.0038
532.2143	-0.0032
532.4107	0.01
532.607	0.0011
532.8034	-0.0052
532.9997	-0.0032
533.196	-0.0047
533.3923	0.0091
533.5886	-0.0017
533.7848	0
533.9811	0.0052
534.1773	0.0041
534.3735	0.007
534.5697	0.0017
534.7659	0.0045
534.9621	0.0035
535.1582	0.0066
535.3544	0.0052
535.5505	0.0086
535.7466	0.0001
535.9427	-0.0007
536.1387	0.0015
536.3348	-0.008
536.5308	-0.0093
536.7269	-0.0018
536.9229	-0.0034
537.1189	0.011
537.3148	0.0062
537.5108	-0.0025
537.7068	0.0051
537.9027	-0.0108
538.0986	0.0046
538.2945	0.0003
538.4904	-0.0052
538.6863	-0.0063
538.8821	0.007
539.078	0.0044
539.2738	0.0029
539.4696	-0.0009
539.6654	0.0041
539.8611	0.0034
540.0569	-0.0101
540.2526	0.0104
540.4484	-0.0093
540.6441	0.0028
540.8398	0.0081
541.0355	-0.0057
541.2311	-0.007
541.4268	0.005
541.6224	0.0104
541.818	0.003
542.0136	0.0031
542.2092	-0.0036
542.4048	-0.001
542.6003	-0.005
542.7959	0.0008
542.9914	0.0029
543.1869	0.0006
543.3824	-0.0021
543.5779	0.0068
543.7734	0.0174
543.9688	-0.0043
544.1642	-0.0055
544.3596	0.0057
544.555	-0.0031
544.7504	0.0171
544.9458	-0.0004
545.1411	-0.0014
545.3365	-0.0035
545.5318	0.0063
545.7271	0.0006
545.9224	0.0043
546.1177	0.0071
546.3129	-0.0046
546.5081	0.0005
546.7034	0.0045
546.8986	-0.0026
547.0938	0.0043
547.289	0.0035
547.4841	0.0011
547.6793	-0.002
547.8744	0.0063
548.0695	0.0019
548.2646	0.0044
548.4597	-0.0049
548.6548	0.0037
548.8498	0.0094
549.0448	-0.0013
549.2399	-0.0003
549.4349	-0.0072
549.6298	0.0018
549.8248	-0.0071
550.0198	0.0078
550.2147	0.0184
550.4096	-0.0079
550.6045	-0.0035
550.7994	0.0046
550.9943	0.0028
551.1892	-0.0141
551.384	0.0035
551.5788	-0.0026
551.7737	0.0081
551.9685	0.0076
552.1632	-0.0061
552.358	0.0023
552.5528	0.0039
552.7475	0.0081
552.9422	0.0094
553.1369	0.0096
553.3316	-0.0013
553.5263	0.0103
553.7209	0.0005
553.9156	-0.0011
554.1102	0.0038
554.3048	-0.0049
554.4994	0.0022
554.694	0.0037
554.8885	0.0089
555.0831	0.0077
555.2776	0.0125
555.4721	0.0059
555.6666	0.0031
555.8611	-0.003
556.0555	-0.0044
556.25	-0.0029
556.4444	-0.0119
556.6388	-0.0053
556.8332	-0.0025
557.0276	0.0052
557.222	-0.0072
557.4163	0.0007
557.6107	0.0016
557.805	-0.0125
557.9993	0.0044
558.1936	-0.0057
558.3879	0.0062
558.5821	-0.0077
558.7764	0.003
558.9706	-0.0027
559.1648	0.0076
559.359	0.0026
559.5532	-0.0007
559.7473	-0.0022
559.9415	0
560.1356	0.0104
560.3297	0.0038
560.5238	0.0097
560.7179	-0.0039
560.9119	0.0072
561.106	-0.0017
561.3	0.0137
561.494	-0.0085
561.688	-0.0161
561.882	-0.0022
562.076	-0.001
562.2699	0.0088
562.4639	0.0095
562.6578	0.0045
562.8517	0.0011
563.0456	-0.0067
563.2395	0.007
563.4333	-0.0107
563.6272	0.0059
563.821	-0.0037
564.0148	0.0014
564.2086	0.0075
564.4024	0.0045
564.5961	0.0033
564.7899	0.0118
564.9836	-0.0002
565.1773	0.0089
565.371	0.0026
565.5647	0.0109
565.7584	0.0147
565.952	0.0031
566.1456	0.0014
566.3393	0.0039
566.5329	-0.0008
566.7264	0.0051
566.92	0.0044
567.1136	-0.0019
567.3071	-0.0062
567.5006	0.0074
567.6941	0.0023
567.8876	0.0005
568.0811	0.0129
568.2745	-0.0098
568.468	0.0105
568.6614	0.0038
568.8548	0.0042
569.0482	0.0082
569.2416	0.005
569.4349	0.0019
569.6283	-0.0023
569.8216	0.0047
570.0149	-0.003
570.2082	0.0066
570.4015	0.0012
570.5947	0.0026
570.788	0.0044
570.9812	0.0003
571.1744	0.0075
571.3676	0.006
571.5608	0.0037
571.754	0.0074
571.9471	0.0102
572.1402	0.0026
572.3333	0.009
572.5264	0.0026
572.7195	-0.0013
572.9126	0.0048
573.1057	0.0057
573.2987	0.0038
573.4917	0.0066
573.6847	0.0039
573.8777	0.0092
574.0707	0.0011
574.2636	0.0042
574.4566	0.0023
574.6495	0.0008
574.8424	0.0075
575.0353	0.0059
575.2281	0.0088
575.421	-0.0005
575.6138	0.0026
575.8067	0.0063
575.9995	0.0065
576.1923	0.0064
576.385	0.0041
576.5778	0.0021
576.7706	0.0068
576.9633	0.0046
577.156	0.0014
577.3487	0.0014
577.5414	0.0016
577.734	0.002
577.9267	0.0041
578.1193	0.0061
578.3119	0.0038
578.5045	0.0047
578.6971	0.0011
578.8897	0.0026
579.0822	0.0087
579.2747	0.001
579.4673	0.0041
579.6598	0.0096
579.8522	0.0049
580.0447	0.006
580.2372	0.0106
580.4296	0.0076
580.622	0.0029
580.8144	0.0055
581.0068	0.0035
581.1992	0.0079
581.3915	0.0002
581.5839	0.0027
581.7762	0.0048
581.9685	0.0019
582.1608	0.0049
582.353	0.0047
582.5453	0.0052
582.7375	0.0058
582.9298	-0.0011
583.122	-0.0007
583.3142	0.0088
583.5063	0.0078
583.6985	-0.0006
583.8906	0.0036
584.0827	0.0014
584.2749	-0.0011
584.4669	0.0005
584.659	0.0058
584.8511	0.0087
585.0431	0.0075
585.2352	0.004
585.4272	0.0005
585.6192	0.0028
585.8111	0.0077
586.0031	0.0024
586.195	0.0044
586.387	-0.0002
586.5789	0.006
586.7708	0.0059
586.9627	0.0072
587.1545	0.008
587.3464	0.0017
587.5382	0.0045
587.73	0.0049
587.9218	0.0019
588.1136	-0.0006
588.3053	0.0033
588.4971	0.0075
588.6888	-0.0037
588.8805	0.0083
589.0722	0.0098
589.2639	0.003
589.4556	0.001
589.6472	0.0062
589.8389	0.0056
590.0305	0.0031
590.2221	0.0084
590.4137	0.0042
590.6052	0.0012
590.7968	0.009
590.9883	0.0075
591.1798	0.009
591.3713	0.0013
591.5628	0.0081
591.7543	0.0035
591.9458	0.0002
592.1372	-0.0006
592.3286	-0.0006
592.52	0.0032
592.7114	0.0025
592.9028	0.0044
593.0941	0.002
593.2855	0.0004
593.4768	0.0048
593.6681	0.007
593.8594	0.0064
594.0506	-0.0034
594.2419	0.0052
594.4331	0.0056
594.6244	0.0011
594.8156	-0.0003
595.0067	-0.0007
595.1979	-0.0061
595.3891	0.0022
595.5802	0.0098
595.7713	0.0032
595.9624	0.0031
596.1535	0.004
596.3446	0.0006
596.5357	0.0021
596.7267	0.0073
596.9177	-0.0005
597.1087	-0.0002
597.2997	0.0104
597.4907	-0.0019
597.6817	0.0055
597.8726	0.0104
598.0635	-0.0049
598.2544	0.0077
598.4453	0.003
598.6362	0.0015
598.827	0.006
599.0179	0.0072
599.2087	0.0076
599.3995	0.0063
599.5903	0.0042
599.7811	0.0157
599.9718	0.0004
600.1626	-0.0029
600.3533	-0.0025
600.544	0.0032
600.7347	0.0057
600.9254	0.0113
601.116	0.0018
601.3067	0.0012
601.4973	0.0101
601.6879	0.0006
601.8785	0.0048
602.0691	0.0101
602.2596	0.0072
602.4502	0.0087
602.6407	-0.0025
602.8312	0.0046
603.0217	0.0034
603.2122	0.0075
603.4027	0.0039
603.5931	0.006
603.7835	0.0085
603.9739	0.0029
604.1643	0.01
604.3547	0.0114
604.5451	0.0081
604.7354	-0.0014
604.9257	0.0056
605.116	0.0039
605.3063	0.0053
605.4966	0.0032
605.6869	0.0091
605.8771	0.0054
606.0673	0.0019
606.2575	0.0013
606.4477	0.0067
606.6379	-0.0058
606.8281	0.0011
607.0182	-0.0007
607.2083	-0.0002
607.3985	0.0093
607.5885	0.0016
607.7786	0.0042
607.9687	0.005
608.1587	0.0074
608.3488	0.0028
608.5388	0.002
608.7288	-0.0009
608.9187	0.0003
609.1087	0.0035
609.2986	0.0072
609.4886	0.0035
609.6785	0.0043
609.8684	0.0003
610.0582	-0.0049
610.2481	-0.0062
610.4379	0.011
610.6278	0.0027
610.8176	0.0046
611.0074	0.0045
611.1971	0.0087
611.3869	0.0051
611.5766	-0.0006
611.7664	0.0024
611.9561	0.0069
612.1458	0.0085
612.3354	0.0046
612.5251	0.002
612.7147	0.0076
612.9044	-0.0032
613.094	0.0068
613.2836	0.0002
613.4731	0.0011
613.6627	0.0065
613.8522	0.0062
614.0417	0.0072
614.2313	0.0054
614.4207	0.0084
614.6102	0.0108
614.7997	0.0166
614.9891	0.0055
615.1785	-0.0033
615.3679	0.0062
615.5573	0.0056
615.7467	0.0041
615.9361	0.0125
616.1254	0.0066
616.3147	0.005
616.504	0.001
616.6933	0.0082
616.8826	-0.0053
617.0718	0.0043
617.2611	0.0082
617.4503	0.0055
617.6395	0.0061
617.8287	0.005
618.0179	0.0033
618.207	0.0112
618.3961	0.0005
618.5853	0.0082
618.7744	-0.0019
618.9634	0.0157
619.1525	-0.0037
619.3416	-0.004
619.5306	0.0079
619.7196	0.0058
619.9086	0.0005
620.0976	0.0011
620.2866	0.0131
620.4755	-0.0045
620.6645	0.0052
620.8534	0.0108
621.0423	0.0029
621.2312	0.0001
621.42	0.0061
621.6089	-0.0012
621.7977	0.0056
621.9865	0.0023
622.1753	-0.0012
622.3641	-0.0019
622.5529	0.0063
622.7416	0.002
622.9303	0.0035
623.1191	0.0012
623.3078	0.006
623.4964	0.0108
623.6851	0.0063
623.8737	-0.002
624.0624	-0.0059
624.251	0.0017
624.4396	0.0071
624.6282	0.0174
624.8167	-0.0067
625.0053	0.0153
625.1938	-0.0012
625.3823	0.0082
625.5708	-0.0045
625.7593	-0.0004
625.9477	0.0119
626.1362	0.0019
626.3246	-0.0052
626.513	0.0108
626.7014	0.0003
626.8898	0.0083
627.0781	0.0079
627.2665	0.0163
627.4548	-0.0058
627.6431	0.011
627.8314	0.01
628.0197	-0.0011
628.2079	-0.0061
628.3962	0.0036
628.5844	-0.0034
628.7726	-0.0151
628.9608	0.0072
629.1489	0.0085
629.3371	-0.0115
629.5252	0.0003
629.7134	-0.0059
629.9015	0.0078
630.0895	0.0049
630.2776	0.0166
630.4657	0.01
630.6537	0.0103
630.8417	-0.0147
631.0297	-0.0067
631.2177	0.006
631.4057	0.0081
631.5936	0.0092
631.7815	0.0056
631.9695	0.0225
632.1574	0.0018
632.3452	0.0183
632.5331	0.0097
632.7209	0.0023
632.9088	-0.0028
633.0966	0.0267
633.2844	0.0021
633.4722	0.0068
633.6599	0.0216
633.8477	0.011
634.0354	0.0072
634.2231	-0.021
634.4108	-0.0041
634.5985	0.0106
634.7861	-0.0032
634.9738	-0.014
635.1614	0.0115
635.349	0.0083
635.5366	0.0041
635.7242	0.0087
635.9117	-0.0052
636.0993	0.0104
636.2868	0.0048
636.4743	0.005
636.6618	-0.0029
636.8492	0.0174
637.0367	-0.0058
637.2241	-0.0097
637.4115	0.0186
637.5989	0.0084
637.7863	0.0191
637.9737	-0.009
638.161	0.0152
638.3484	-0.0126
638.5357	0.0109
638.723	0.0087
638.9103	-0.0092
639.0975	0.003
639.2848	0.0091
639.472	0.0021
639.6592	-0.0109
639.8464	0.006
640.0336	0.0163
640.2208	0.005
640.4079	0.003
640.595	-0.0042
640.7821	0.0168
640.9692	-0.004
641.1563	0.0159
641.3434	0.0134
641.5304	0.0017
641.7174	0.003
641.9044	0.0049
642.0914	0.0245
642.2784	-0.0125
642.4653	-0.0058
642.6523	0.0191
642.8392	-0.0167
643.0261	0.0067
643.213	0.0092
643.3999	0.0145
643.5867	0.0076
643.7735	-0.009
643.9604	0.0031
644.1472	0.0213
644.3339	-0.0024
644.5207	0.0096
644.7075	0.0018
644.8942	-0.0117
645.0809	0.0041
645.2676	-0.0013
645.4543	-0.0094
645.6409	0.0069
645.8276	-0.003
646.0142	0.0072
646.2008	-0.0066
646.3874	-0.0075
646.574	0.0106
646.7605	-0.011
646.9471	0.0049
647.1336	-0.0348
647.3201	0.0046
647.5066	0.0032
647.6931	0.0138
647.8795	0.017
648.0659	0.003
648.2524	0.0075
648.4388	0.0037
648.6252	0.0176
648.8115	0.0004
648.9979	-0.0009
649.1842	0.0186
649.3705	0.0144
649.5568	-0.0041
649.7431	-0.0116
649.9294	-0.0033
650.1156	0.0006
650.3018	0.0117
650.488	0.0019
650.6742	0.0238
650.8604	-0.0089
651.0466	-0.0083
651.2327	-0.0008
651.4188	0.0006
651.6049	0.0233
651.791	-0.0084
651.9771	0.0145
652.1632	0.02
652.3492	0.0142
652.5352	0.0224
652.7212	0.0066
652.9072	0.0032
653.0932	0.013
653.2791	0.0137
653.465	-0.0005
653.651	0.0065
653.8369	0.0051
654.0227	-0.005
654.2086	0.0019
654.3944	0.0129
654.5803	0.0047
654.7661	0.0028
654.9519	0.0015
655.1377	0.0002
655.3234	0.0002
655.5092	0.0002
655.6949	0.0002
655.8806	0.0002
656.0663	0.0002
656.2519	0.0002
656.4376	0.0002
656.6232	0.0002
656.8088	0.0002
656.9945	0.0002
657.18	0.0002
657.3656	0.0002
657.5511	0.0002
657.7367	0.0002
657.9222	0.0002
658.1077	0.0002
658.2932	0.0002
658.4786	0.0002
658.6641	0.0002
658.8495	0.0002
659.0349	0.0002
659.2203	0.0002
659.4057	0.0002
659.591	0.1252
659.7764	0.0287
659.9617	0.0007
660.147	-0.0017
660.3323	-0.0032
660.5176	0.0003
660.7028	-0.0123
660.888	-0.0075
661.0733	0.0133
661.2585	-0.0091
661.4436	0.0001
661.6288	-0.0065
661.8139	-0.0051
661.9991	-0.0147
662.1842	-0.0043
662.3693	0.0124
662.5544	-0.0025
662.7394	0.0083
662.9245	0.0048
663.1095	-0.0252
663.2945	0.003
663.4795	-0.0012
663.6644	-0.0101
663.8494	0.0043
664.0343	0.012
664.2193	0.0089
664.4042	0.0113
664.589	0.0048
664.7739	0.0046
664.9587	-0.0171
665.1436	0.0026
665.3284	0.0191
665.5132	-0.0174
665.698	0.0098
665.8827	0.0135
666.0675	-0.0077
666.2522	0.0017
666.4369	-0.0066
666.6216	0.0094
666.8063	-0.0059
666.9909	-0.0022
667.1756	0.0129
667.3602	0.0005
667.5448	0.0061
667.7294	0.0069
667.9139	0.0051
668.0985	0.0228
668.283	-0.0113
668.4675	0.0119
668.652	0.023
668.8365	0.0025
669.0209	0.0166
669.2054	0.0114
669.3898	0.0104
669.5742	0.0236
669.7586	0.0083
669.943	0.0134
670.1273	-0.0014
670.3117	0.0094
670.496	-0.0005
670.6803	-0.0016
670.8646	-0.0253
671.0488	0.0214
671.2331	-0.0074
671.4173	-0.0012
671.6015	0.0047
671.7857	0.0053
671.9699	0.0158
672.1541	0.0006
672.3382	0.0073
672.5223	0.0088
672.7064	-0.0003
672.8905	-0.0081
673.0746	0.0055
673.2587	0.0022
673.4427	-0.0185
673.6267	0.0042
673.8107	0.0282
673.9947	0.0132
674.1787	0.005
674.3626	0.003
674.5465	0.0101
674.7304	-0.0028
674.9143	-0.009
675.0982	-0.0072
675.2821	0.0217
675.4659	-0.012
675.6497	0.0123
675.8335	-0.0064
676.0173	-0.0084
676.2011	0.0387
676.3849	-0.016
676.5686	0.0255
676.7523	0.0065
676.936	0.0001
677.1197	-0.0042
677.3034	0.0305
677.487	0.0043
677.6706	0.0064
677.8542	-0.0136
678.0378	0.0106
678.2214	0.0078
678.405	0.0013
678.5885	0.015
678.772	0.0029
678.9555	0.0014
679.139	0.0161
679.3225	0.0058
679.5059	-0.0069
679.6894	-0.0062
679.8728	-0.0017
680.0562	0.0202
680.2395	-0.009
680.4229	-0.0053
680.6062	0.0133
680.7896	-0.003
680.9729	0.0074
681.1562	-0.0036
681.3394	0.016
681.5227	0.0237
681.7059	0.0081
681.8891	0.0087
682.0723	0.0091
682.2555	-0.01
682.4387	0.0196
682.6218	0.0202
682.805	0.0036
682.9881	0.0118
683.1712	0.0197
683.3542	0.0087
683.5373	-0.0006
683.7203	0.0037
683.9034	-0.0093
684.0864	0.0003
684.2694	0.0105
684.4523	0.0068
684.6353	0.0008
684.8182	-0.0028
685.0011	0.0137
685.184	0.0014
685.3669	0.0141
685.5498	0.0004
685.7326	0.0131
685.9154	-0.0107
686.0982	0.0229
686.281	0.0038
686.4638	0.0067
686.6465	0.0059
686.8293	-0.0125
687.012	0.0075
687.1947	-0.0055
687.3774	0.0103
687.56	-0.0047
687.7427	0.0025
687.9253	-0.0022
688.1079	-0.0143
688.2905	0.0026
688.4731	0.0082
688.6556	-0.0057
688.8382	-0.0243
689.0207	0.0019
689.2032	0.0318
689.3857	-0.02
689.5681	-0.0043
689.7506	0.0273
689.933	-0.0038
690.1154	0.0252
690.2978	0.0174
690.4802	0.0176
690.6626	0.0028
690.8449	0.0068
691.0272	-0.018
691.2095	-0.0218
691.3918	0.0202
691.5741	-0.0017
691.7563	0.0052
691.9386	0.0085
692.1208	0.0065
692.303	0.0044
692.4852	0.0265
692.6673	0.0112
692.8495	0.0021
693.0316	-0.0016
693.2137	0.0184
693.3958	0.0272
693.5778	0.0046
693.7599	-0.0102
693.9419	0.0054
694.1239	0.0148
694.3059	0.0115
694.4879	0.0119
694.6699	-0.0027
694.8518	0.0085
695.0337	0.0103
695.2157	0.039
695.3975	-0.0093
695.5794	0.0126
695.7613	0.0038
695.9431	-0.0026
696.1249	0.0033
696.3067	-0.021
696.4885	0.0147
696.6703	0.0068
696.852	-0.0028
697.0337	0.0182
697.2154	-0.0019
697.3971	0.0164
697.5788	0.0092
697.7605	0.0071
697.9421	0.022
698.1237	0.0104
698.3053	-0.0017
698.4869	0.005
698.6685	-0.014
698.85	0.0125
699.0315	-0.0128
699.213	0.0315
699.3945	-0.0035
699.576	0.0196
699.7575	-0.0106
699.9389	0.0255
700.1203	0.0103
700.3017	-0.019
700.4831	0.0147
700.6645	0.0382
700.8458	0.0205
701.0271	0.0479
701.2084	0.0101
701.3897	0.0096
701.571	0.009
701.7523	-0.0197
701.9335	0.0293
702.1147	0.0302
702.2959	-0.0161
702.4771	-0.0007
702.6583	0.0126
702.8394	0.0019
703.0205	0.019
703.2016	-0.026
703.3827	-0.0161
703.5638	-0.0154
703.7449	0.0208
703.9259	0.0045
704.1069	0.0056
704.2879	-0.0182
704.4689	0.0104
704.6499	-0.0025
704.8308	0.0096
705.0117	0.019
705.1927	0.0225
705.3735	0.0104
705.5544	-0.0002
705.7353	0.0173
705.9161	-0.0266
706.0969	-0.0039
706.2777	0.0165
706.4585	-0.0176
706.6393	0.0044
706.82	0.007
707.0007	-0.0001
707.1815	-0.0055
707.3621	0.0414
707.5428	0.0106
707.7235	0.0006
707.9041	0.0051
708.0847	0.0088
708.2653	0.0254
708.4459	-0.0066
708.6265	-0.0114
708.807	0.0002
708.9875	-0.0131
709.168	-0.0212
709.3485	0.006
709.529	0.0142
709.7095	-0.0134
709.8899	-0.0066
710.0703	0.0137
710.2507	-0.002
710.4311	-0.0384
710.6115	0.0172
710.7918	0.0328
710.9721	-0.0091
711.1524	0.0054
711.3327	-0.0088
711.513	-0.0242
711.6932	-0.0015
711.8735	0.0193
712.0537	0.0031
712.2339	-0.0207
712.4141	0.0256
712.5942	0.0002
712.7744	0.0005
712.9545	0.0171
713.1346	0.0078
713.3147	-0.0046
713.4947	0.0018
713.6748	0.0092
713.8548	0.0125
714.0348	0.0007
714.2148	0.0186
714.3948	0.0173
714.5748	0.0262
714.7547	0.0068
714.9346	0.0286
715.1145	0.0082
715.2944	-0.0295
715.4743	-0.0036
715.6541	-0.0272
715.834	0.0364
716.0138	0.0177
716.1936	-0.0398
716.3733	-0.0246
716.5531	-0.0003
716.7328	-0.015
716.9126	0.0282
717.0923	-0.0264
717.2719	0.0178
717.4516	0.0139
717.6312	0.007
717.8109	0.0301
717.9905	0.0187
718.1701	0.017
718.3496	-0.0164
718.5292	-0.0135
718.7087	0.0169
718.8882	0.0063
719.0677	0.0005
719.2472	-0.0133
719.4267	-0.0053
719.6061	-0.0006
719.7856	0.0482
719.965	-0.0187
720.1443	-0.0087
720.3237	-0.0277
720.5031	0.0067
720.6824	0.009
720.8617	-0.0039
721.041	0.0087
721.2203	-0.0219
721.3995	-0.0044
721.5788	-0.0084
721.758	-0.0213
721.9372	-0.0133
722.1164	-0.0166
722.2956	0.033
722.4747	0.0015
722.6538	0.0132
722.8329	0.0227
723.012	0.0011
723.1911	0.0079
723.3702	0.0094
723.5492	0.0032
723.7282	-0.0019
723.9072	0.0032
724.0862	-0.009
724.2652	0.0045
724.4441	-0.0083
724.623	0.0032
724.8019	0.0096
724.9808	0.0324
725.1597	0.0122
725.3385	0.0178
725.5174	-0.0005
725.6962	0.0151
725.875	0.0143
726.0538	0.005
726.2325	0.0092
726.4112	-0.0199
726.59	-0.0116
726.7687	-0.0132
726.9474	-0.0074
727.126	0.0021
727.3047	0.001
727.4833	0.0082
727.6619	-0.0252
727.8405	-0.0012
728.0191	0.0016
728.1976	-0.0044
728.3762	-0.0077
728.5547	-0.0138
728.7332	0.0128
728.9116	0.0008
729.0901	0.0043
729.2686	-0.002
729.447	-0.0058
729.6254	0.0123
729.8038	0.0087
729.9821	-0.0171
730.1605	0.0012
730.3388	0.011
730.5171	0.0289
730.6954	-0.0019
730.8737	0.0011
731.0519	0.0027
731.2302	0.0082
731.4084	-0.0097
731.5866	-0.0163
731.7648	-0.0052
731.9429	0.0075
732.1211	-0.0184
732.2992	-0.0016
732.4773	0.0085
732.6554	0.0016
732.8335	0.0151
733.0115	0.0081
733.1896	-0.0117
733.3676	0.006
733.5456	0.0161
733.7235	-0.0165
733.9015	0.0113
734.0794	-0.0067
734.2574	-0.018
734.4353	0.0089
734.6131	0.0172
734.791	-0.0063
734.9689	-0.013
735.1467	-0.0164
735.3245	0.0044
735.5023	0.0089
735.68	-0.0034
735.8578	0.0157
736.0355	0.0049
736.2132	0.0012
736.3909	0.0071
736.5686	0.0004
736.7463	-0.0158
736.9239	0.0174
737.1015	0.0091
737.2791	0.0121
737.4567	-0.0061
737.6343	0.0077
737.8118	0.0181
737.9894	0.009
738.1669	-0.0175
738.3444	0.0329
738.5218	-0.0028
738.6993	0.0077
738.8767	0.0067
739.0541	-0.0041
739.2315	-0.007
739.4089	0.0112
739.5863	0.0085
739.7636	-0.0036
739.9409	0.0024
740.1182	-0.0138
740.2955	0.0068
740.4728	-0.0205
740.65	-0.0225
740.8272	-0.0051
741.0044	-0.0229
741.1816	0.005
741.3588	-0.0188
741.5359	-0.0002
741.7131	-0.0325
741.8902	0.0086
742.0673	-0.0188
742.2444	0.0311
742.4214	-0.004
742.5985	0.015
742.7755	-0.0066
742.9525	-0.0527
743.1295	-0.0392
743.3064	-0.0108
743.4834	-0.0022
743.6603	0.0311
743.8372	-0.0493
744.0141	0.0144
744.191	-0.0063
744.3678	-0.0249
744.5446	0.0182
744.7215	0.002
744.8982	0.0133
745.075	0.0605
745.2518	0.0007
745.4285	0.0313
745.6052	-0.0227
745.7819	0.0059
745.9586	-0.0069
746.1353	-0.0345
746.3119	0.0026
746.4885	0.0087
746.6651	0.0002
746.8417	0.007
747.0183	0.0373
747.1948	0.0358
747.3714	0.004
747.5479	-0.0137
747.7244	-0.0174
747.9008	0.0014
748.0773	0.0356
748.2537	0.0172
748.4301	0.0495
748.6065	-0.0078
748.7829	-0.0416
748.9593	-0.0119
749.1356	0.0074
749.3119	0.019
749.4882	0.029
749.6645	-0.015
749.8408	0.0242
750.017	0.0172
750.1933	-0.0245
750.3695	0.0015
750.5457	-0.0155
750.7218	-0.0065
750.898	-0.0028
751.0741	0.0037
751.2502	0.0152
751.4263	-0.0064
751.6024	0.0136
751.7784	-0.0019
751.9545	0.0091
752.1305	-0.0006
752.3065	0.0401
752.4825	-0.0284
752.6584	0.0029
752.8344	-0.01
753.0103	-0.0206
753.1862	0.0075
753.3621	-0.0124
753.5379	0.0069
753.7138	0.0224
753.8896	0.0137
754.0654	-0.0056
754.2412	0.0236
754.417	0.0138
754.5927	-0.0093
754.7685	0.0037
754.9442	0.0207
755.1199	0.0182
755.2956	0.0001
755.4712	0.0025
755.6469	0.0077
755.8225	-0.0073
755.9981	0.0019
756.1736	0.0071
756.3492	-0.0004
756.5248	0.0179
756.7003	-0.0047
756.8758	-0.0056
757.0513	-0.0079
757.2267	0.0061
757.4022	0.0043
757.5776	-0.0037
757.753	-0.0014
757.9284	0.0119
758.1038	0.0216
758.2791	0.0029
758.4545	-0.0112
758.6298	0.0004
758.8051	0.0087
758.9803	0.0056
759.1556	-0.0064
759.3308	-0.0048
759.506	-0.008
759.6812	0.0125
759.8564	-0.0039
760.0316	-0.0124
760.2067	0.0285
760.3819	-0.0063
760.557	-0.0053
760.732	0.0035
760.9071	0.0166
761.0821	-0.007
761.2572	0.0074
761.4322	0.0235
761.6072	0.0175
761.7821	-0.0109
761.9571	0.0181
762.132	0.0044
762.3069	0.0147
762.4818	0.0036
762.6567	0.009
762.8316	0.0103
763.0064	-0.0136
763.1812	-0.0026
763.356	-0.0116
763.5308	0.0262
763.7055	-0.019
763.8803	0.0187
764.055	0.0109
764.2297	-0.0176
764.4044	0.0072
764.579	-0.0013
764.7537	0.0074
764.9283	0.0027
765.1029	0.007
765.2775	0.0069
765.4521	0.0021
765.6266	0.0093
765.8011	-0.0019
765.9756	0.0005
766.1501	-0.0216
766.3246	-0.0253
766.4991	0.0244
766.6735	0.0449
766.8479	-0.0129
767.0223	0.0158
767.1967	-0.0081
767.371	-0.0089
767.5454	0.0102
767.7197	0.009
767.894	-0.0117
768.0683	0.0323
768.2425	0.0192
768.4168	0.0262
768.591	-0.0163
768.7652	0.0028
768.9394	-0.0241
769.1135	-0.0019
769.2877	0.0243
769.4618	0.0429
769.6359	0.0069
769.81	0.0264
769.984	-0.0021
770.1581	0.0093
770.3321	0.0412
770.5061	-0.0048
770.6801	-0.0081
770.8541	0.0298
771.028	0.0416
771.202	0.0318
771.3759	0.0076
771.5498	0.0138
771.7236	-0.0051
771.8975	0.0146
772.0713	0.0315
772.2451	0.0111
772.4189	-0.0027
772.5927	-0.0324
772.7665	0.0088
772.9402	0.019
773.1139	0.027
773.2876	-0.0057
773.4613	0.03
773.635	0.0504
773.8086	0.0129
773.9822	0.0027
774.1558	0.0215
774.3294	0.0227
774.503	0.0109
774.6765	-0.0084
774.8501	0.0086
775.0236	0.0176
775.1971	-0.0205
775.3705	-0.0012
775.544	-0.0155
775.7174	0.0543
775.8908	-0.025
776.0642	0.0087
776.2376	0.0114
776.4109	-0.0131
776.5843	-0.0309
776.7576	-0.0251
776.9309	0.0253
777.1041	-0.017
777.2774	-0.0094
777.4506	0.026
777.6238	-0.0259
777.797	0.0082
777.9702	0.0177
778.1434	0.0193
778.3165	-0.0335
778.4896	-0.0181
778.6627	-0.006
778.8358	0.0044
779.0089	-0.0191
779.1819	0.0167
779.3549	-0.0003
779.5279	-0.0188
779.7009	0.0572
779.8739	0.0803
780.0468	-0.0073
780.2197	0.0098
780.3926	-0.0294
780.5655	0.0374
780.7384	0.0208
780.9112	0.0054
781.0841	0.0456
781.2569	0.0224
781.4297	0.0099
781.6024	0.026
781.7752	0.0402
781.9479	0.0447
782.1206	0.0067
782.2933	0.0054
782.466	0.0121
782.6386	-0.0132
782.8113	-0.0066
782.9839	0.0086
783.1565	0.0252
783.329	-0.0117
783.5016	0.0273
783.6741	-0.0106
783.8466	0.0274
784.0191	0.0242
784.1916	-0.0136
784.3641	-0.0646
784.5365	0.0135
784.7089	-0.0544
784.8813	0.0545
785.0537	0.0338
785.2261	0.0185
785.3984	0.0333
785.5707	-0.0219
785.743	0.032
785.9153	0.0026
786.0876	-0.0027
786.2598	0.0102
786.432	-0.0055
786.6042	0.0373
786.7764	-0.0028
786.9486	-0.0265
787.1207	0.0343
787.2928	0.0275
787.4649	-0.001
787.637	-0.0159
787.8091	0.0098
787.9811	-0.0063
788.1532	0.0238
788.3252	0.0175
788.4972	0.0467
788.6691	-0.018
788.8411	-0.0033
789.013	-0.0059
789.1849	-0.0251
789.3568	0.0181
789.5287	0.0555
789.7005	-0.0314
789.8723	-0.0206
790.0442	-0.0045
790.2159	0.025
790.3877	0.0328
790.5595	-0.0208
790.7312	-0.0152
790.9029	-0.0116
791.0746	0.0006
791.2463	-0.0287
791.4179	-0.0047
791.5896	0.0084
791.7612	0.0106
791.9328	-0.0236
792.1044	0.0086
792.2759	-0.0464
792.4474	0.0196
792.619	-0.0095
792.7905	0.0513
792.9619	0.0036
793.1334	0.0249
793.3048	0.0538
793.4762	0.0503
793.6476	-0.0279
793.819	0.0187
793.9904	-0.0267
794.1617	-0.0332
794.333	-0.0212
794.5043	0.0066
794.6756	0.037
794.8469	0.0171
795.0181	0.033
795.1893	0.011
795.3605	0.0203
795.5317	0.01
795.7029	-0.0249
795.874	-0.0464
796.0452	0.0067
796.2163	0.056
796.3873	0.012
796.5584	0.0172
796.7294	-0.0067
796.9005	0.1198
797.0715	-0.0024
797.2425	0.1157
797.4134	-0.0087
797.5844	0.0868
797.7553	-0.08
797.9262	0.0867
798.0971	0.0251
798.2679	-0.0218
798.4388	0.0946
798.6096	-0.0007
798.7804	0.0117
798.9512	0.0246
799.122	-0.0255
799.2927	0.15
799.4635	-0.028
799.6342	-0.0789
799.8049	0.045
799.9755	0.0123
800.1462	0.0333
800.3168	0.0751
800.4874	-0.0569
800.658	-0.0151
800.8286	0.0397
800.9991	0.0992
801.1696	0.0155
801.3402	0.028
801.5106	-0.0449
801.6811	0.0458
801.8516	0.1054
802.022	0.0262
802.1924	-0.0857
802.3628	0.0877
802.5332	0.1212
802.7035	0.0981
802.8739	0.0291
803.0442	0.026
803.2145	0.0567
803.3847	-0.0517
803.555	0.022
803.7252	-0.0284
803.8954	-0.0089
804.0656	-0.0313
804.2358	0.0594
804.4059	0.0713
804.5761	0.0243
804.7462	0.0909
804.9163	0.0525
805.0864	0.0097
805.2564	-0.0508
805.4264	0.0316
805.5965	0.0136
805.7665	0.0194
805.9364	-0.0547
806.1064	0.0029
806.2763	0.0536
806.4462	0.0321
806.6161	0.0057
806.786	0.0015
806.9559	0.0235
807.1257	0.0364
807.2955	-0.0139
807.4653	0.0498
807.6351	0.013
807.8048	-0.0334
807.9746	0.0329
808.1443	0.0344
808.314	0.0077
808.4837	0.0665
808.6533	0.0055
808.8229	0.0049
808.9926	0.0145
809.1622	-0.0167
809.3317	-0.0094
809.5013	-0.0153
809.6708	0.0008
809.8403	0.0653
810.0098	0.0558
810.1793	0.0865
810.3488	-0.05
810.5182	0.0777
810.6876	0.0724
810.857	0.1002
811.0264	0.0327
811.1958	0.0087
811.3651	-0.0436
811.5344	0.1483
811.7037	0.1914
811.873	0.011
812.0422	-0.093
812.2115	0.0453
812.3807	-0.1532
812.5499	0.1236
812.7191	0.06
812.8882	0.0016
813.0574	0.1919
813.2265	-0.0121
813.3956	0.0246
813.5646	0.062
813.7337	0.0543
813.9027	-0.0476
814.0718	0.0693
814.2407	0.0648
814.4097	0.0049
814.5787	0.095
814.7476	0.0633
814.9165	0.0162
815.0854	0.0406
815.2543	-0.0012
815.4232	0.1137
815.592	0.1798
815.7608	0.0061
815.9296	-0.0204
816.0984	0.1471
816.2671	0.1279
816.4359	0.1203
816.6046	0.071
816.7733	-0.0502
816.942	-0.0093
817.1106	0.213
817.2793	0.0376
817.4479	-0.0328
817.6165	-0.0245
817.785	0.12
817.9536	-0.0667
818.1221	0.1191
818.2906	-0.0213
818.4591	0.087
818.6276	-0.0341
818.7961	0.0279
818.9645	0.0585
819.1329	0.0958
819.3013	-0.0292
819.4697	0.1925
819.638	0.7276
819.8064	0.0691
819.9747	-0.0113
820.143	-0.0175
820.3113	0.217
820.4795	0.0955
820.6477	-0.0191
820.816	0.0696
820.9842	0.0692
821.1523	0.0688
821.3205	0.0282
821.4886	-0.0846
821.6567	0.0061
821.8248	0.1355
821.9929	-0.1119
822.1609	0.091
822.329	0.083
822.497	0.1294
822.665	-0.0174
822.833	0.1083
823.0009	0.0386
823.1688	0.3382
823.3367	-0.105
823.5046	0.1235
823.6725	-0.0926
823.8404	0.0375
824.0082	-0.0606
824.176	0.0619
824.3438	0.1424
824.5116	-0.0748
824.6793	0.0955
824.847	0.0939
825.0147	-0.0134
825.1824	0.068
825.3501	0.0736
825.5177	-0.0478
825.6854	-0.1667
825.853	0.1812
826.0206	0.0054
826.1881	0.1279
826.3557	0.1058
826.5232	0.3343
826.6907	0.0756
826.8582	0.149
827.0257	0.2469
827.1931	0.0098
827.3605	0.1306
827.528	0.0186
827.6953	-0.1361
827.8627	-0.138
828.03	0.0749
828.1974	-0.0972
828.3647	0.1409
828.532	-0.0959
828.6992	0.1607
828.8665	-0.2109
829.0337	-0.0772
829.2009	-0.0837
829.3681	-0.0438
829.5352	-0.191
829.7024	0.1112
829.8695	0.0135
830.0366	0.2291
830.2037	0.208
830.3707	0.0721
830.5378	-0.1007
830.7048	0.0465
830.8718	1.0949
831.0388	-0.1181
831.2057	-0.1438
831.3727	-0.2778
831.5396	-0.0525
831.7065	-0.9595
831.8734	0.4608
832.0402	0.1202
832.2071	-0.4424
832.3739	-0.0387
832.5407	-1.2788
832.7075	0.0893
832.8742	-0
833.041	1.1632
833.2077	0.6342
833.3744	0.1241
833.541	-0.0159
833.7077	0.2618
833.8743	0.101
834.0409	0.1369
834.2075	0.0652
834.3741	-0.1195
834.5407	0.0231
834.7072	0.0669
834.8737	0.1168
835.0402	0.1012
835.2067	0.2248
835.3731	0.2243
835.5395	0.1205
835.706	0.1656
835.8723	-0.0475
836.0387	0.1982
836.2051	0.4484
836.3714	-0.0484
836.5377	0.1451
836.704	0.1107
836.8703	-0.1323
837.0365	-0.978
837.2027	0.1798
837.3689	0.1536
837.5351	0.2273
837.7013	0.4067
837.8674	-0.3833
838.0335	0.102
838.1997	-0.258
838.3657	0.5232
838.5318	-0
838.6978	-0.0208
838.8639	-0.2234
839.0299	-0.0664
839.1958	0.4833
839.3618	0.6628
839.5277	0.7915
839.6937	0.5367
839.8596	-0.2672
840.0254	-0.2224
840.1913	0.0089
840.3571	-0.1808
840.523	-0
840.6888	-0.0962
840.8545	-0.6879
841.0203	0.2387
841.186	0.3514
841.3517	-0.1774
841.5174	0.3477
841.6831	0.0166
841.8488	-0.0805
842.0144	0.0684
842.18	0.4092
842.3456	-0
842.5112	-0
842.6767	-0.0755
842.8422	-0.2185
843.0077	0.1493
843.1732	-0.4652
843.3387	0.0645
843.5042	-0
843.6696	-0.1012
843.835	0.1756
844.0004	0.0967
844.1657	-0
844.3311	0.0759
844.4964	-0
844.6617	0.2178
844.827	1.5746
844.9923	0.1455
845.1575	0.2245
845.3227	0.1556
845.4879	0.4324
845.6531	0.2611
845.8183	0.9713
845.9834	0.5587
846.1485	0.2054
846.3136	-0.312
846.4787	-0
846.6438	-0
846.8088	0.4608
846.9738	-0
847.1388	0.2648
847.3038	0.0645
847.4687	0.6596
847.6337	-0.3917
847.7986	0.5779
847.9635	-0.026
848.1284	-0
848.2932	2.8241
848.458	-0
848.6228	0.8571
848.7876	-0
848.9524	-0
849.1172	-1.5369
849.2819	-0
849.4466	0.1819
849.6113	0.4718
849.7759	-0
849.9406	0.0701
850.1052	-0
850.2698	-0.1726
850.4344	-0
850.599	0.1177
850.7635	-0.037
850.928	0.0396
851.0925	0.5086
851.257	-0
851.4215	0.8745
851.5859	-0.1677
851.7503	-0
851.9147	0.3136
852.0791	0.4714
852.2434	0.5908
852.4078	-0
852.5721	-0
852.7364	1.0079
852.9007	0.061
853.0649	-0
853.2291	0.2688
853.3934	-0
853.5575	-0
853.7217	0.1731
853.8859	-0
854.05	-0.5264
854.2141	0.6264
854.3782	-0.4499
854.5423	0.539
854.7063	0.3876
854.8703	-0.0464
855.0343	0.4976
855.1983	0.0353
855.3623	-0.2564
855.5262	-0.34
855.6901	0.5107
855.854	-0
856.0179	-0
856.1818	-0
856.3456	0.4524
856.5094	0.0834
856.6732	-0
856.837	-0.8451
857.0008	-0
857.1645	-0.3621
857.3282	-0.2525
857.4919	1.2559
857.6556	0.1284
857.8192	-0
857.9828	0.2625
858.1465	-0
858.31	-0
858.4736	-0.0934
858.6372	-0.2372
858.8007	0.1062
858.9642	0.3459
859.1277	1.4667
859.2911	-0.3399
859.4546	-0
859.618	0.3127
859.7814	-0.2422
859.9448	-0
860.1081	-0
860.2715	-0
860.4348	0.0625
860.5981	-0
860.7614	-0
860.9246	-0.1279
861.0879	1.2676
861.2511	-0.5286
861.4143	1.7404
861.5774	-0.5074
861.7406	0.0535
861.9037	-0
862.0668	-0
862.2299	0.0744
862.393	-0
862.556	-0.1934
862.7191	-0.1102
862.8821	0.1302
863.0451	-0.2516
863.208	-0.3785
863.371	-0
863.5339	0.3252
863.6968	0.9973
863.8597	0.8739
864.0225	1.2788
864.1854	-0
864.3482	-0.9511
864.511	0.1114
864.6737	-0.046
864.8365	0.2317
864.9992	-0
865.1619	-0
865.3246	-1.9921
865.4873	-0
865.65	0.8914
865.8126	0.7289
865.9752	-0.3953
866.1378	0.0573
866.3004	-0.3154
866.4629	-1.8881
866.6254	-0.3179
866.7879	0.135
866.9504	-0.1258
867.1129	-0
867.2753	-0.0162
867.4377	-0.168
867.6001	-0.676
867.7625	0.105
867.9249	-0
868.0872	-0
868.2495	-0
868.4118	-0
868.5741	0.3226
868.7363	-0.9423
868.8986	-0.4713
869.0608	2.1038
869.223	-0.66
869.3851	-0
869.5473	0.0131
869.7094	-0
869.8715	-0.8621
870.0336	-0.1207
870.1957	-0
870.3577	-0.041
870.5197	-0.1777
870.6817	-0.8725
870.8437	0.2121
871.0057	-0
871.1676	0.3554
871.3295	-0.1476
871.4914	-1.5539
871.6533	-0.4735
871.8151	-0
871.977	-0.0137
872.1388	-0
872.3006	0.0551
872.4623	0.7837
872.6241	0.6393
872.7858	-0
872.9475	0.2667
873.1092	-0
873.2709	0.7168
873.4325	-1.558
873.5941	-0
873.7557	-0
873.9173	0.86
874.0789	-0
874.2404	-0
874.4019	0.708
874.5634	-0
874.7249	0.4264
874.8863	-0.0359
875.0478	-0.3136
875.2092	-0
875.3706	0.1237
875.5319	-0.2612
875.6933	0.6352
875.8546	-0.139
876.0159	0.1084
876.1772	-0.3213
876.3385	-0
876.4997	0.1966
876.6609	-0
876.8221	0.5329
876.9833	-0.5521
877.1445	0.344
877.3056	-0
877.4667	-0.9704
877.6278	-0
877.7889	-0
877.9499	-0
878.111	-0.0146
878.272	-0
878.433	0.1941
878.5939	0.0466
878.7549	0.9731
878.9158	-0
879.0767	-0.1345
879.2376	0.0962
879.3984	0.0113
879.5593	0.6036
879.7201	-0
879.8809	-0
880.0417	-0.1631
880.2024	-0
880.3632	-0.3356
880.5239	-0
880.6846	0.8989
880.8452	0.1104
881.0059	-0
881.1665	0.3604
881.3271	-0
881.4877	-0
881.6483	-1.7175
881.8088	-0
881.9693	-0
882.1298	-0
882.2903	-0
