Data from D4ACN5uM440nmA_Absorbance_13-50-24-862.txt Node
Date: Fri Feb 21 13:50:24 GMT 2025
User: LASERRRRR
Spectrometer: FLMT03099
Trigger mode: 0
Integration Time (sec): 1.500000E-2
Scans to average: 1
Electric dark correction enabled: true
Nonlinearity correction enabled: false
Boxcar width: 0
XAxis mode: Wavelengths
Number of Pixels in Spectrum: 3648
>>>>>Begin Spectral Data<<<<<
179.3399	-0.9478
179.5586	-0.9478
179.7771	-0.9478
179.9957	-0.023
180.2143	-0
180.4329	0.081
180.6514	-0
180.8699	-0.0816
181.0885	-0.2096
181.307	0.4539
181.5255	0.0782
181.744	-0.5232
181.9625	0.2558
182.181	-0
182.3994	-0.6765
182.6179	-0
182.8363	-0
183.0547	-0.2572
183.2732	0.0053
183.4916	0.105
183.71	0.1161
183.9284	0.1729
184.1467	0.2958
184.3651	0.0325
184.5835	0.1664
184.8018	0.0662
185.0201	0.0215
185.2385	0.2442
185.4568	0.2551
185.6751	0.0402
185.8934	0.1609
186.1117	-0.1794
186.3299	0.1708
186.5482	0.123
186.7664	0.0795
186.9847	0.1701
187.2029	0.177
187.4211	0.0236
187.6393	0.4091
187.8575	0.116
188.0757	0.6115
188.2939	0.0681
188.512	0.1539
188.7302	-0.032
188.9483	0.2927
189.1665	1.5436
189.3846	0.1672
189.6027	0.174
189.8208	0.3128
190.0389	0.1809
190.257	0.1672
190.475	-0.0213
190.6931	0.0605
190.9111	0.1749
191.1292	0.1476
191.3472	0.0533
191.5652	0.2477
191.7832	0.3906
192.0012	0.1879
192.2192	0.2215
192.4371	0.1477
192.6551	0.2034
192.873	0.2105
193.091	0.114
193.3089	0.1816
193.5268	0.2385
193.7447	0.1944
193.9626	0.1488
194.1805	0.2365
194.3984	0.2308
194.6162	0.2951
194.8341	0.3202
195.0519	0.2687
195.2697	0.2702
195.4875	0.3136
195.7054	0.285
195.9231	0.2135
196.1409	0.3209
196.3587	0.3492
196.5765	0.3431
196.7942	0.2747
197.012	0.3787
197.2297	0.32
197.4474	0.3771
197.6651	0.3367
197.8828	0.3491
198.1005	0.4172
198.3182	0.3444
198.5358	0.3688
198.7535	0.3896
198.9711	0.4363
199.1888	0.3505
199.4064	0.399
199.624	0.3613
199.8416	0.4134
200.0592	0.3587
200.2767	0.4142
200.4943	0.4477
200.7119	0.3763
200.9294	0.4354
201.1469	0.414
201.3645	0.4494
201.582	0.3637
201.7995	0.4488
202.017	0.3755
202.2344	0.4099
202.4519	0.4109
202.6694	0.3583
202.8868	0.3713
203.1042	0.4108
203.3217	0.3832
203.5391	0.3809
203.7565	0.3441
203.9739	0.3887
204.1913	0.3468
204.4086	0.3575
204.626	0.3975
204.8433	0.379
205.0607	0.3191
205.278	0.3494
205.4953	0.3454
205.7126	0.3267
205.9299	0.3114
206.1472	0.317
206.3644	0.3232
206.5817	0.3446
206.7989	0.3383
207.0162	0.3376
207.2334	0.3183
207.4506	0.3162
207.6678	0.315
207.885	0.3069
208.1022	0.3091
208.3194	0.275
208.5365	0.278
208.7537	0.3046
208.9708	0.284
209.1879	0.292
209.405	0.2913
209.6222	0.2581
209.8392	0.2962
210.0563	0.2858
210.2734	0.2778
210.4905	0.2901
210.7075	0.2795
210.9245	0.2537
211.1416	0.2781
211.3586	0.262
211.5756	0.2717
211.7926	0.2721
212.0096	0.2665
212.2265	0.2673
212.4435	0.261
212.6604	0.2595
212.8774	0.2531
213.0943	0.2617
213.3112	0.2736
213.5281	0.261
213.745	0.2659
213.9619	0.2475
214.1788	0.2556
214.3956	0.2569
214.6125	0.2483
214.8293	0.2604
215.0461	0.2491
215.2629	0.2676
215.4798	0.257
215.6965	0.2499
215.9133	0.2337
216.1301	0.2452
216.3469	0.2534
216.5636	0.2443
216.7803	0.2487
216.9971	0.2491
217.2138	0.2575
217.4305	0.2437
217.6472	0.2368
217.8639	0.248
218.0805	0.2498
218.2972	0.2421
218.5138	0.2697
218.7305	0.2504
218.9471	0.2483
219.1637	0.2618
219.3803	0.2595
219.5969	0.2545
219.8135	0.2685
220.0301	0.2543
220.2466	0.2537
220.4632	0.2538
220.6797	0.2504
220.8962	0.2517
221.1127	0.263
221.3292	0.2582
221.5457	0.2661
221.7622	0.2675
221.9787	0.2827
222.1951	0.2746
222.4116	0.2772
222.628	0.2892
222.8444	0.2652
223.0608	0.2708
223.2772	0.2921
223.4936	0.2906
223.71	0.2847
223.9264	0.2926
224.1427	0.2846
224.3591	0.2864
224.5754	0.2989
224.7917	0.2939
225.008	0.293
225.2243	0.3063
225.4406	0.295
225.6569	0.2988
225.8732	0.3055
226.0894	0.3096
226.3057	0.31
226.5219	0.3106
226.7381	0.3136
226.9543	0.3132
227.1705	0.3192
227.3867	0.3205
227.6029	0.3265
227.8191	0.3413
228.0352	0.3411
228.2513	0.3497
228.4675	0.3445
228.6836	0.3427
228.8997	0.3368
229.1158	0.3629
229.3319	0.3594
229.548	0.3566
229.764	0.3522
229.9801	0.382
230.1961	0.3694
230.4121	0.3603
230.6282	0.3774
230.8442	0.3863
231.0602	0.3792
231.2761	0.3761
231.4921	0.3934
231.7081	0.3863
231.924	0.3952
232.14	0.4001
232.3559	0.4062
232.5718	0.4091
232.7877	0.404
233.0036	0.4072
233.2195	0.4103
233.4353	0.4115
233.6512	0.4209
233.867	0.4242
234.0829	0.4219
234.2987	0.4271
234.5145	0.4234
234.7303	0.434
234.9461	0.4327
235.1619	0.4373
235.3776	0.4359
235.5934	0.4287
235.8091	0.4424
236.0249	0.4561
236.2406	0.4406
236.4563	0.4422
236.672	0.4363
236.8877	0.4422
237.1034	0.4392
237.319	0.4488
237.5347	0.4471
237.7503	0.4516
237.966	0.4488
238.1816	0.4509
238.3972	0.4424
238.6128	0.4733
238.8284	0.4662
239.0439	0.4602
239.2595	0.4583
239.475	0.4641
239.6906	0.4504
239.9061	0.4511
240.1216	0.4558
240.3371	0.4653
240.5526	0.4559
240.7681	0.4668
240.9836	0.4601
241.199	0.451
241.4145	0.4483
241.6299	0.4422
241.8453	0.4315
242.0607	0.4276
242.2761	0.4307
242.4915	0.4291
242.7069	0.4259
242.9223	0.4133
243.1376	0.4122
243.353	0.3978
243.5683	0.4028
243.7836	0.3845
243.9989	0.3822
244.2142	0.3645
244.4295	0.3695
244.6448	0.3604
244.86	0.3461
245.0753	0.3412
245.2905	0.3341
245.5057	0.3346
245.721	0.3334
245.9362	0.3134
246.1514	0.3117
246.3665	0.3078
246.5817	0.2984
246.7969	0.2955
247.012	0.2873
247.2271	0.2957
247.4423	0.2861
247.6574	0.2816
247.8725	0.2773
248.0876	0.2687
248.3026	0.2674
248.5177	0.2575
248.7328	0.2474
248.9478	0.2491
249.1628	0.247
249.3779	0.2427
249.5929	0.2326
249.8079	0.2348
250.0228	0.2249
250.2378	0.2304
250.4528	0.2285
250.6677	0.2236
250.8827	0.2178
251.0976	0.2139
251.3125	0.2106
251.5274	0.2085
251.7423	0.2088
251.9572	0.2036
252.172	0.2097
252.3869	0.2029
252.6017	0.2024
252.8166	0.198
253.0314	0.198
253.2462	0.1935
253.461	0.193
253.6758	0.1941
253.8906	0.1933
254.1053	0.1923
254.3201	0.1901
254.5348	0.1841
254.7496	0.1797
254.9643	0.1873
255.179	0.185
255.3937	0.1896
255.6083	0.1895
255.823	0.188
256.0377	0.18
256.2523	0.1838
256.467	0.1835
256.6816	0.1821
256.8962	0.1873
257.1108	0.182
257.3254	0.1901
257.54	0.1723
257.7545	0.1845
257.9691	0.1771
258.1836	0.1775
258.3981	0.1777
258.6127	0.1671
258.8272	0.1789
259.0417	0.1774
259.2561	0.1725
259.4706	0.177
259.6851	0.1749
259.8995	0.1733
260.114	0.1809
260.3284	0.173
260.5428	0.1751
260.7572	0.1738
260.9716	0.1828
261.186	0.178
261.4003	0.1689
261.6147	0.1721
261.829	0.1762
262.0433	0.1783
262.2577	0.1748
262.472	0.1739
262.6863	0.1811
262.9005	0.1792
263.1148	0.171
263.3291	0.1757
263.5433	0.1789
263.7576	0.1805
263.9718	0.1781
264.186	0.1756
264.4002	0.1789
264.6144	0.1833
264.8286	0.1784
265.0427	0.1827
265.2569	0.1826
265.471	0.1857
265.6851	0.1761
265.8993	0.1802
266.1134	0.1774
266.3275	0.183
266.5415	0.1804
266.7556	0.1861
266.9697	0.1788
267.1837	0.1787
267.3978	0.175
267.6118	0.176
267.8258	0.1813
268.0398	0.1853
268.2538	0.1809
268.4677	0.1777
268.6817	0.1802
268.8957	0.1797
269.1096	0.1734
269.3235	0.1733
269.5374	0.1765
269.7514	0.1707
269.9652	0.1732
270.1791	0.1729
270.393	0.1781
270.6068	0.174
270.8207	0.1682
271.0345	0.1675
271.2483	0.1634
271.4622	0.1713
271.676	0.1687
271.8897	0.1719
272.1035	0.1686
272.3173	0.1687
272.531	0.1722
272.7448	0.1693
272.9585	0.1676
273.1722	0.1705
273.3859	0.1682
273.5996	0.172
273.8133	0.1719
274.0269	0.1644
274.2406	0.1721
274.4542	0.1703
274.6679	0.1738
274.8815	0.1675
275.0951	0.1733
275.3087	0.1746
275.5223	0.1687
275.7358	0.1732
275.9494	0.175
276.1629	0.1751
276.3765	0.1774
276.59	0.1671
276.8035	0.1734
277.017	0.1761
277.2305	0.1747
277.444	0.1797
277.6574	0.1802
277.8709	0.1792
278.0843	0.1816
278.2978	0.174
278.5112	0.1841
278.7246	0.1763
278.938	0.1788
279.1513	0.1795
279.3647	0.1791
279.5781	0.1758
279.7914	0.1797
280.0047	0.1799
280.2181	0.1782
280.4314	0.1818
280.6447	0.1797
280.8579	0.1808
281.0712	0.1802
281.2845	0.1784
281.4977	0.1759
281.711	0.1788
281.9242	0.1849
282.1374	0.1848
282.3506	0.1831
282.5638	0.1761
282.7769	0.1735
282.9901	0.1799
283.2033	0.1785
283.4164	0.1807
283.6295	0.185
283.8426	0.1799
284.0557	0.1873
284.2688	0.1889
284.4819	0.1795
284.695	0.1861
284.908	0.1784
285.1211	0.182
285.3341	0.1768
285.5471	0.1877
285.7601	0.185
285.9731	0.1887
286.1861	0.1883
286.3991	0.1851
286.612	0.184
286.825	0.1918
287.0379	0.1847
287.2508	0.1879
287.4637	0.1867
287.6766	0.1899
287.8895	0.1868
288.1024	0.1894
288.3152	0.1883
288.5281	0.1883
288.7409	0.193
288.9538	0.192
289.1666	0.191
289.3794	0.1895
289.5922	0.1897
289.8049	0.1887
290.0177	0.1909
290.2304	0.1919
290.4432	0.19
290.6559	0.1924
290.8686	0.1968
291.0813	0.1937
291.294	0.1915
291.5067	0.1875
291.7194	0.1925
291.932	0.1904
292.1447	0.1935
292.3573	0.1928
292.5699	0.194
292.7825	0.1853
292.9951	0.1892
293.2077	0.1872
293.4203	0.1978
293.6328	0.1982
293.8454	0.1969
294.0579	0.1875
294.2704	0.1995
294.4829	0.1969
294.6954	0.1895
294.9079	0.1924
295.1204	0.1956
295.3328	0.1938
295.5453	0.1958
295.7577	0.1922
295.9701	0.1955
296.1825	0.1955
296.3949	0.1914
296.6073	0.1907
296.8197	0.1928
297.0321	0.1934
297.2444	0.1892
297.4567	0.2019
297.6691	0.1941
297.8814	0.1914
298.0937	0.1913
298.306	0.1852
298.5182	0.1968
298.7305	0.1923
298.9428	0.1935
299.155	0.1847
299.3672	0.1909
299.5794	0.19
299.7916	0.1942
300.0038	0.1945
300.216	0.19
300.4282	0.1887
300.6403	0.1956
300.8525	0.193
301.0646	0.195
301.2767	0.1891
301.4888	0.1889
301.7009	0.1963
301.913	0.1945
302.125	0.1903
302.3371	0.1963
302.5491	0.1993
302.7612	0.1981
302.9732	0.2003
303.1852	0.1976
303.3972	0.1983
303.6092	0.1924
303.8211	0.1974
304.0331	0.1883
304.245	0.1891
304.457	0.1909
304.6689	0.1843
304.8808	0.1879
305.0927	0.1928
305.3046	0.1881
305.5164	0.1844
305.7283	0.1829
305.9401	0.1747
306.152	0.1812
306.3638	0.1806
306.5756	0.1818
306.7874	0.177
306.9992	0.1727
307.2109	0.1798
307.4227	0.1697
307.6344	0.1726
307.8462	0.1686
308.0579	0.1729
308.2696	0.166
308.4813	0.1644
308.693	0.1624
308.9046	0.1657
309.1163	0.1599
309.328	0.1624
309.5396	0.1556
309.7512	0.1551
309.9628	0.1538
310.1744	0.1515
310.386	0.1442
310.5976	0.1489
310.8091	0.1528
311.0207	0.1465
311.2322	0.1447
311.4437	0.1405
311.6552	0.1455
311.8667	0.1469
312.0782	0.1427
312.2897	0.1432
312.5012	0.1383
312.7126	0.1368
312.924	0.1433
313.1355	0.1393
313.3469	0.1347
313.5583	0.1371
313.7696	0.1299
313.981	0.1373
314.1924	0.13
314.4037	0.1327
314.6151	0.1279
314.8264	0.1307
315.0377	0.127
315.249	0.1313
315.4603	0.1229
315.6716	0.1272
315.8828	0.1253
316.0941	0.1301
316.3053	0.1189
316.5165	0.1271
316.7277	0.1225
316.9389	0.128
317.1501	0.1226
317.3613	0.1288
317.5724	0.1158
317.7836	0.1171
317.9947	0.1227
318.2058	0.1267
318.417	0.1225
318.6281	0.1214
318.8391	0.1251
319.0502	0.1228
319.2613	0.1215
319.4723	0.1202
319.6834	0.128
319.8944	0.1205
320.1054	0.1253
320.3164	0.1169
320.5274	0.1205
320.7383	0.1234
320.9493	0.1217
321.1602	0.1231
321.3712	0.1206
321.5821	0.118
321.793	0.1338
322.0039	0.1226
322.2148	0.1243
322.4257	0.1225
322.6365	0.1174
322.8474	0.1252
323.0582	0.1249
323.269	0.1254
323.4798	0.1243
323.6906	0.1223
323.9014	0.119
324.1122	0.1188
324.3229	0.1255
324.5337	0.1277
324.7444	0.1238
324.9551	0.1254
325.1658	0.1201
325.3765	0.1274
325.5872	0.1269
325.7979	0.1198
326.0085	0.1225
326.2192	0.1243
326.4298	0.1361
326.6404	0.132
326.851	0.1215
327.0616	0.1289
327.2722	0.128
327.4828	0.1236
327.6933	0.1353
327.9039	0.1269
328.1144	0.1289
328.3249	0.1339
328.5354	0.1283
328.7459	0.1318
328.9564	0.125
329.1669	0.1372
329.3773	0.1323
329.5878	0.126
329.7982	0.1312
330.0086	0.1309
330.219	0.1275
330.4294	0.1316
330.6398	0.1295
330.8502	0.1293
331.0605	0.125
331.2708	0.1301
331.4812	0.1314
331.6915	0.1361
331.9018	0.1324
332.1121	0.1366
332.3224	0.1318
332.5326	0.1289
332.7429	0.127
332.9531	0.1336
333.1633	0.1318
333.3735	0.1269
333.5837	0.136
333.7939	0.1387
334.0041	0.1358
334.2143	0.1298
334.4244	0.1412
334.6346	0.1369
334.8447	0.1325
335.0548	0.1362
335.2649	0.1433
335.475	0.1389
335.685	0.1418
335.8951	0.1366
336.1051	0.1415
336.3152	0.1367
336.5252	0.1352
336.7352	0.1372
336.9452	0.1365
337.1552	0.1353
337.3652	0.1367
337.5751	0.1345
337.7851	0.132
337.995	0.1373
338.2049	0.1353
338.4148	0.1403
338.6247	0.1455
338.8346	0.1411
339.0445	0.1376
339.2543	0.1432
339.4642	0.1397
339.674	0.1394
339.8838	0.1403
340.0936	0.1412
340.3034	0.1401
340.5132	0.1419
340.7229	0.145
340.9327	0.1485
341.1424	0.1411
341.3522	0.1348
341.5619	0.1466
341.7716	0.144
341.9813	0.1438
342.1909	0.1472
342.4006	0.1452
342.6102	0.1418
342.8199	0.1528
343.0295	0.1483
343.2391	0.1494
343.4487	0.1488
343.6583	0.1571
343.8679	0.1503
344.0774	0.1473
344.287	0.1524
344.4965	0.1558
344.706	0.1562
344.9155	0.1455
345.125	0.1504
345.3345	0.1571
345.544	0.1533
345.7534	0.1655
345.9629	0.1641
346.1723	0.1579
346.3817	0.1551
346.5911	0.1578
346.8005	0.1616
347.0099	0.1624
347.2193	0.1697
347.4286	0.1716
347.638	0.1651
347.8473	0.1625
348.0566	0.1642
348.2659	0.1605
348.4752	0.1657
348.6845	0.1607
348.8937	0.1662
349.103	0.1666
349.3122	0.1629
349.5214	0.1707
349.7306	0.1664
349.9398	0.1756
350.149	0.1695
350.3582	0.172
350.5674	0.1727
350.7765	0.1724
350.9856	0.163
351.1948	0.1735
351.4039	0.1789
351.613	0.1738
351.822	0.1789
352.0311	0.1816
352.2402	0.1783
352.4492	0.1761
352.6582	0.176
352.8672	0.1861
353.0762	0.1796
353.2852	0.1693
353.4942	0.1849
353.7032	0.1804
353.9121	0.18
354.1211	0.1804
354.33	0.1903
354.5389	0.1849
354.7478	0.1847
354.9567	0.1898
355.1655	0.1812
355.3744	0.1824
355.5833	0.181
355.7921	0.1889
356.0009	0.1893
356.2097	0.1771
356.4185	0.189
356.6273	0.1913
356.8361	0.1892
357.0448	0.1926
357.2536	0.1861
357.4623	0.195
357.671	0.1912
357.8797	0.1905
358.0884	0.1834
358.2971	0.1914
358.5057	0.1934
358.7144	0.1956
358.923	0.2064
359.1316	0.2032
359.3402	0.2047
359.5488	0.2003
359.7574	0.204
359.966	0.2039
360.1746	0.1956
360.3831	0.2088
360.5916	0.203
360.8002	0.2096
361.0087	0.2041
361.2172	0.2067
361.4256	0.2105
361.6341	0.2111
361.8426	0.2114
362.051	0.2128
362.2594	0.2118
362.4678	0.2153
362.6762	0.2213
362.8846	0.2124
363.093	0.2142
363.3014	0.2258
363.5097	0.2131
363.718	0.2133
363.9264	0.2174
364.1347	0.2225
364.343	0.2185
364.5513	0.2202
364.7595	0.2381
364.9678	0.2226
365.176	0.2242
365.3842	0.228
365.5925	0.2315
365.8007	0.232
366.0089	0.2382
366.217	0.2396
366.4252	0.2352
366.6333	0.2342
366.8415	0.2401
367.0496	0.2365
367.2577	0.2431
367.4658	0.2367
367.6739	0.2347
367.882	0.2419
368.09	0.2312
368.2981	0.2424
368.5061	0.2482
368.7141	0.242
368.9221	0.2551
369.1301	0.2506
369.3381	0.2537
369.5461	0.2474
369.754	0.2518
369.962	0.2514
370.1699	0.2488
370.3778	0.2588
370.5857	0.2443
370.7936	0.2521
371.0015	0.251
371.2093	0.2556
371.4172	0.2545
371.625	0.2532
371.8328	0.254
372.0406	0.2559
372.2484	0.2584
372.4562	0.2575
372.664	0.2627
372.8717	0.2642
373.0795	0.2641
373.2872	0.2711
373.4949	0.2626
373.7026	0.2552
373.9103	0.2565
374.118	0.2716
374.3256	0.2643
374.5333	0.2657
374.7409	0.2655
374.9485	0.2668
375.1561	0.2736
375.3637	0.2692
375.5713	0.2815
375.7789	0.2658
375.9864	0.2702
376.194	0.2787
376.4015	0.277
376.609	0.2766
376.8165	0.2845
377.024	0.2728
377.2315	0.2753
377.4389	0.2769
377.6464	0.28
377.8538	0.2808
378.0612	0.2841
378.2686	0.286
378.476	0.2873
378.6834	0.2836
378.8908	0.2874
379.0981	0.2834
379.3055	0.29
379.5128	0.2862
379.7201	0.2907
379.9274	0.295
380.1347	0.2837
380.342	0.2972
380.5492	0.2929
380.7565	0.287
380.9637	0.2929
381.1709	0.2955
381.3781	0.2979
381.5853	0.295
381.7925	0.2953
381.9997	0.2941
382.2068	0.3001
382.4139	0.2969
382.6211	0.2992
382.8282	0.3011
383.0353	0.3011
383.2424	0.2897
383.4494	0.2955
383.6565	0.3
383.8635	0.2915
384.0706	0.3138
384.2776	0.3023
384.4846	0.3053
384.6916	0.306
384.8986	0.3058
385.1055	0.3121
385.3125	0.3071
385.5194	0.3059
385.7263	0.3122
385.9333	0.3184
386.1402	0.296
386.347	0.2919
386.5539	0.3077
386.7608	0.2935
386.9676	0.3014
387.1744	0.309
387.3813	0.3105
387.5881	0.3076
387.7948	0.3093
388.0016	0.3182
388.2084	0.3006
388.4151	0.3137
388.6219	0.2958
388.8286	0.3054
389.0353	0.3053
389.242	0.3004
389.4487	0.2954
389.6553	0.2852
389.862	0.3005
390.0686	0.3052
390.2753	0.2906
390.4819	0.2939
390.6885	0.3013
390.8951	0.2965
391.1016	0.2976
391.3082	0.2963
391.5147	0.2907
391.7213	0.3006
391.9278	0.292
392.1343	0.2915
392.3408	0.2881
392.5473	0.2924
392.7537	0.2845
392.9602	0.285
393.1666	0.2814
393.373	0.2808
393.5794	0.2814
393.7858	0.2729
393.9922	0.2732
394.1986	0.2623
394.4049	0.2815
394.6113	0.278
394.8176	0.2748
395.0239	0.2772
395.2302	0.2823
395.4365	0.2764
395.6428	0.2696
395.8491	0.2697
396.0553	0.2637
396.2615	0.2681
396.4678	0.2691
396.674	0.2583
396.8802	0.2702
397.0863	0.2661
397.2925	0.2689
397.4987	0.2587
397.7048	0.2691
397.9109	0.2584
398.117	0.2663
398.3231	0.2549
398.5292	0.2663
398.7353	0.2573
398.9413	0.2599
399.1474	0.2678
399.3534	0.2644
399.5594	0.2699
399.7654	0.2614
399.9714	0.2635
400.1774	0.2594
400.3833	0.259
400.5893	0.2597
400.7952	0.2622
401.0011	0.2551
401.207	0.2561
401.4129	0.2579
401.6188	0.2566
401.8247	0.267
402.0305	0.2553
402.2364	0.2588
402.4422	0.2661
402.648	0.2531
402.8538	0.2522
403.0596	0.2464
403.2654	0.2623
403.4711	0.2539
403.6768	0.254
403.8826	0.2659
404.0883	0.2609
404.294	0.2626
404.4997	0.2564
404.7054	0.2564
404.911	0.2622
405.1167	0.2615
405.3223	0.2513
405.5279	0.2474
405.7335	0.2558
405.9391	0.2578
406.1447	0.2644
406.3502	0.2549
406.5558	0.2559
406.7613	0.2655
406.9668	0.2581
407.1724	0.2605
407.3778	0.2646
407.5833	0.2537
407.7888	0.2647
407.9942	0.2609
408.1997	0.259
408.4051	0.2637
408.6105	0.2645
408.8159	0.2591
409.0213	0.2617
409.2267	0.2598
409.432	0.2612
409.6374	0.2628
409.8427	0.2593
410.048	0.2652
410.2533	0.2539
410.4586	0.248
410.6639	0.261
410.8691	0.2424
411.0744	0.2632
411.2796	0.254
411.4848	0.256
411.69	0.2495
411.8952	0.2586
412.1004	0.2545
412.3056	0.2596
412.5107	0.2541
412.7158	0.2569
412.921	0.2556
413.1261	0.2554
413.3312	0.2497
413.5362	0.2655
413.7413	0.2568
413.9464	0.2501
414.1514	0.2516
414.3564	0.2537
414.5614	0.2509
414.7664	0.2507
414.9714	0.2454
415.1764	0.2527
415.3813	0.2482
415.5863	0.2528
415.7912	0.2479
415.9961	0.2554
416.201	0.2655
416.4059	0.2414
416.6108	0.2544
416.8156	0.2441
417.0205	0.2521
417.2253	0.2504
417.4301	0.2532
417.6349	0.2455
417.8397	0.2498
418.0445	0.2457
418.2492	0.2583
418.454	0.2496
418.6587	0.24
418.8634	0.2418
419.0681	0.2516
419.2728	0.245
419.4775	0.2483
419.6822	0.2338
419.8868	0.2393
420.0915	0.2406
420.2961	0.2321
420.5007	0.2422
420.7053	0.2445
420.9099	0.2414
421.1144	0.239
421.319	0.2305
421.5235	0.2357
421.728	0.2429
421.9325	0.2418
422.137	0.2313
422.3415	0.2239
422.546	0.2318
422.7504	0.2185
422.9549	0.2487
423.1593	0.2217
423.3637	0.2311
423.5681	0.2367
423.7725	0.225
423.9769	0.2285
424.1812	0.2194
424.3856	0.2169
424.5899	0.2298
424.7942	0.2253
424.9985	0.2149
425.2028	0.2239
425.4071	0.2165
425.6113	0.2228
425.8156	0.2284
426.0198	0.2222
426.224	0.2294
426.4282	0.2173
426.6324	0.2012
426.8366	0.2191
427.0407	0.2062
427.2449	0.2109
427.449	0.2044
427.6531	0.2189
427.8572	0.2135
428.0613	0.2206
428.2654	0.2016
428.4694	0.2
428.6735	0.198
428.8775	0.1962
429.0815	0.2023
429.2855	0.1953
429.4895	0.1898
429.6935	0.1964
429.8975	0.193
430.1014	0.2012
430.3053	0.1982
430.5093	0.1812
430.7132	0.1833
430.9171	0.1808
431.1209	0.1885
431.3248	0.1778
431.5286	0.1748
431.7325	0.1869
431.9363	0.1845
432.1401	0.181
432.3439	0.1809
432.5477	0.1685
432.7514	0.1701
432.9552	0.1633
433.1589	0.1604
433.3627	0.1718
433.5664	0.1597
433.7701	0.1694
433.9737	0.1723
434.1774	0.165
434.3811	0.1492
434.5847	0.1594
434.7883	0.1568
434.9919	0.1549
435.1955	0.1571
435.3991	0.1552
435.6027	0.1414
435.8062	0.1659
436.0098	0.14
436.2133	0.1484
436.4168	0.1378
436.6203	0.1352
436.8238	0.1366
437.0272	0.1388
437.2307	0.1324
437.4341	0.1354
437.6375	0.1346
437.841	0.1292
438.0443	0.1314
438.2477	0.1112
438.4511	0.1192
438.6545	0.1201
438.8578	0.1184
439.0611	0.124
439.2644	0.1199
439.4677	0.1119
439.671	0.1095
439.8743	0.1207
440.0775	0.1119
440.2808	0.1117
440.484	0.1126
440.6872	0.1046
440.8904	0.0953
441.0936	0.105
441.2967	0.0955
441.4999	0.1
441.703	0.0917
441.9062	0.1014
442.1093	0.1015
442.3124	0.0958
442.5155	0.0946
442.7185	0.0899
442.9216	0.0877
443.1246	0.0908
443.3276	0.0854
443.5307	0.0843
443.7337	0.0846
443.9366	0.0739
444.1396	0.0721
444.3426	0.0865
444.5455	0.0777
444.7484	0.0793
444.9513	0.0663
445.1542	0.0841
445.3571	0.0782
445.56	0.0772
445.7628	0.0748
445.9657	0.0689
446.1685	0.0719
446.3713	0.0833
446.5741	0.0759
446.7769	0.0662
446.9797	0.0717
447.1824	0.0698
447.3852	0.0542
447.5879	0.0627
447.7906	0.0514
447.9933	0.0559
448.196	0.054
448.3986	0.0577
448.6013	0.051
448.8039	0.0619
449.0066	0.0662
449.2092	0.063
449.4118	0.0551
449.6143	0.0547
449.8169	0.0517
450.0195	0.0533
450.222	0.0542
450.4245	0.045
450.627	0.0493
450.8295	0.0398
451.032	0.0452
451.2345	0.0464
451.4369	0.0419
451.6394	0.0465
451.8418	0.0386
452.0442	0.041
452.2466	0.0343
452.449	0.0425
452.6513	0.0358
452.8537	0.0316
453.056	0.0394
453.2583	0.0358
453.4607	0.0298
453.663	0.0331
453.8652	0.0348
454.0675	0.0349
454.2697	0.0329
454.472	0.0255
454.6742	0.0414
454.8764	0.0357
455.0786	0.033
455.2808	0.0203
455.4829	0.0295
455.6851	0.0259
455.8872	0.0186
456.0893	0.0262
456.2915	0.0244
456.4935	0.0354
456.6956	0.0226
456.8977	0.022
457.0997	0.0332
457.3018	0.0178
457.5038	0.0272
457.7058	0.0248
457.9078	0.0264
458.1098	0.0221
458.3117	0.0305
458.5137	0.012
458.7156	0.0238
458.9175	0.0194
459.1194	0.0186
459.3213	0.0179
459.5232	0.0255
459.725	0.0211
459.9269	0.0153
460.1287	0.0076
460.3305	0.0225
460.5323	0.0135
460.7341	0.0195
460.9359	0.0103
461.1376	0.0158
461.3394	0.0191
461.5411	0.0232
461.7428	0.018
461.9445	0.0083
462.1462	0.0052
462.3479	0.0135
462.5495	0.0227
462.7512	0.0288
462.9528	0.0109
463.1544	0.0117
463.356	0.0018
463.5576	0.0276
463.7592	0.0139
463.9607	0.0147
464.1623	0.017
464.3638	0.0067
464.5653	0.0111
464.7668	0.018
464.9683	0.0106
465.1697	0.0144
465.3712	0.0065
465.5726	0.0165
465.7741	0.0141
465.9755	0.0069
466.1769	0.0099
466.3782	0.0109
466.5796	0.0071
466.7809	0.0107
466.9823	0.018
467.1836	0.013
467.3849	-0.0006
467.5862	0.0008
467.7875	0.005
467.9887	0.0036
468.19	0.0119
468.3912	0.0119
468.5924	0.0099
468.7936	0.0119
468.9948	0.0022
469.196	0.0006
469.3972	-0.0049
469.5983	0.0045
469.7994	0.0073
470.0006	0.0093
470.2017	0.0019
470.4027	0.0111
470.6038	0.0033
470.8049	0.003
471.0059	0.0097
471.2069	0.0058
471.408	0.0115
471.6089	0.006
471.8099	0.0157
472.0109	0.0023
472.2119	0.0092
472.4128	0.0133
472.6137	0.0104
472.8146	0.009
473.0155	0.0059
473.2164	0.0045
473.4173	-0.0028
473.6181	-0.0044
473.819	0.0061
474.0198	-0.0028
474.2206	0.0013
474.4214	0.0066
474.6222	-0.0051
474.8229	0.0047
475.0237	0.0078
475.2244	0.0061
475.4251	0.0024
475.6258	-0.0037
475.8265	0.0104
476.0272	0.0012
476.2278	0.0036
476.4285	0.0055
476.6291	0.0025
476.8297	0.0073
477.0303	0.0018
477.2309	0.0069
477.4315	0.0024
477.632	-0.003
477.8326	0.0047
478.0331	0.0069
478.2336	0.0127
478.4341	0.009
478.6346	0.0061
478.8351	0.003
479.0355	0.0038
479.236	0.0102
479.4364	0.005
479.6368	0.0083
479.8372	0.0025
480.0376	0.0052
480.2379	0.0009
480.4383	0.0121
480.6386	-0.006
480.8389	0.0037
481.0392	-0.0019
481.2395	0.0115
481.4398	0.0072
481.6401	0.0067
481.8403	-0.0021
482.0405	0.0025
482.2408	0.0035
482.441	0.0083
482.6411	0.0095
482.8413	-0.0028
483.0415	0.0101
483.2416	0.0001
483.4417	0.0002
483.6419	0.0004
483.8419	-0.0032
484.042	0.0015
484.2421	-0.0007
484.4422	-0.002
484.6422	0.0033
484.8422	-0.0014
485.0422	0.0045
485.2422	0.0041
485.4422	-0.0001
485.6422	0.0021
485.8421	0.0021
486.042	0.0093
486.242	-0.0029
486.4419	0.0027
486.6417	0.0016
486.8416	0.0055
487.0415	-0.0023
487.2413	0.0021
487.4411	0.0051
487.641	-0.0047
487.8408	0.0068
488.0405	0.0011
488.2403	-0.0026
488.4401	0.0069
488.6398	0.0041
488.8395	0.0012
489.0392	0.0054
489.2389	0.0104
489.4386	-0.0021
489.6383	0.0035
489.8379	0.0004
490.0376	-0.0003
490.2372	-0.0067
490.4368	0.0016
490.6364	-0.0012
490.836	0.0043
491.0355	-0.0052
491.2351	-0.0006
491.4346	-0.0038
491.6341	-0.0051
491.8336	-0.0012
492.0331	-0.0007
492.2326	0.0046
492.432	0.008
492.6315	0.0079
492.8309	0.0026
493.0303	0.0033
493.2297	0.0104
493.4291	-0.0042
493.6284	0.0059
493.8278	0.0004
494.0271	-0.0009
494.2264	0.0009
494.4257	0.0033
494.625	-0.0011
494.8243	-0.0052
495.0236	0.0026
495.2228	-0.0002
495.422	-0
495.6213	-0.0047
495.8205	-0.0002
496.0196	0.0045
496.2188	0.0048
496.418	-0.0013
496.6171	0.0028
496.8162	0.0041
497.0153	-0.0043
497.2144	-0.0031
497.4135	0.0015
497.6126	0.0024
497.8116	0.0006
498.0107	0.0031
498.2097	0.0051
498.4087	0.0022
498.6077	-0.0055
498.8067	-0.005
499.0056	-0.0023
499.2046	0.0067
499.4035	-0.001
499.6024	-0.0081
499.8013	0.0066
500.0002	0.002
500.199	0.0101
500.3979	-0.0048
500.5967	0.0007
500.7956	0.0018
500.9944	0.0038
501.1932	0.0085
501.3919	0.0081
501.5907	0.0082
501.7895	-0.0028
501.9882	0.0006
502.1869	0.0077
502.3856	-0.0009
502.5843	-0.0032
502.783	-0
502.9816	0.0049
503.1803	0.0007
503.3789	0.004
503.5775	-0.0045
503.7761	-0.0044
503.9747	0.0028
504.1732	-0.0033
504.3718	0.0123
504.5703	-0.0006
504.7689	-0.0088
504.9674	-0.0026
505.1658	-0.0071
505.3643	0
505.5628	0.0078
505.7612	0.0014
505.9597	-0.0067
506.1581	0.0007
506.3565	0.0014
506.5549	-0.0062
506.7532	-0.004
506.9516	0.002
507.1499	-0.0041
507.3482	-0.0004
507.5465	0.0013
507.7448	0.0025
507.9431	-0.0004
508.1414	-0.0012
508.3396	-0.0005
508.5379	-0.0031
508.7361	-0
508.9343	0.0059
509.1325	0.0065
509.3306	-0.007
509.5288	-0.0094
509.7269	0.0114
509.9251	0.0085
510.1232	-0.0015
510.3213	0.0083
510.5193	0.0014
510.7174	-0.0059
510.9154	-0.0017
511.1135	-0.0073
511.3115	-0.0061
511.5095	0
511.7075	-0.0023
511.9055	0.0059
512.1034	-0.0005
512.3014	-0.0079
512.4993	-0.009
512.6972	-0.0033
512.8951	-0.0036
513.093	-0.0022
513.2908	0.011
513.4887	0.0047
513.6865	-0.0027
513.8844	-0.0064
514.0822	0.0016
514.2799	-0.0018
514.4777	-0.0045
514.6755	-0.0053
514.8732	-0.0011
515.0709	-0.0055
515.2687	-0.0079
515.4664	0.0086
515.664	-0.0004
515.8617	-0.0012
516.0594	0.0011
516.257	-0.0059
516.4546	0.0102
516.6522	0.0006
516.8498	-0.0024
517.0474	0.0045
517.2449	-0.0034
517.4425	0.0077
517.64	0.0037
517.8375	0.0025
518.035	-0.0106
518.2325	-0.0103
518.43	0.0045
518.6274	-0.0006
518.8249	-0.0035
519.0223	0.0112
519.2197	-0.0104
519.4171	-0.0068
519.6145	0.0009
519.8118	-0.009
520.0092	-0.0027
520.2065	0.0059
520.4038	-0.0048
520.6011	0.0015
520.7984	-0.0023
520.9956	0.0031
521.1929	0.0024
521.3901	0.0019
521.5874	0.0052
521.7846	-0.0085
521.9818	-0.0006
522.1789	-0.0073
522.3761	0.0113
522.5732	0.0034
522.7704	-0.0115
522.9675	-0.009
523.1646	-0.0017
523.3617	-0.0001
523.5587	-0.0049
523.7558	-0.0023
523.9528	0.0084
524.1498	-0.0095
524.3468	-0.0031
524.5438	0.0009
524.7408	-0.0048
524.9378	0.0036
525.1347	0.0049
525.3316	-0.0048
525.5285	-0.0056
525.7254	-0.003
525.9223	0.0039
526.1192	-0.0041
526.316	0.0006
526.5129	-0.0029
526.7097	0.0082
526.9065	0.0018
527.1033	-0.0056
527.3	0.001
527.4968	0.0003
527.6935	-0.0019
527.8903	-0.0088
528.087	-0.0042
528.2837	0.0169
528.4804	-0.0035
528.677	-0.0053
528.8737	-0.0037
529.0703	-0.0029
529.2669	0.0012
529.4635	-0.0005
529.6601	-0.0108
529.8567	-0.0035
530.0532	0.0062
530.2498	-0.0007
530.4463	-0.0044
530.6428	-0.0012
530.8393	0.0127
531.0358	-0.0066
531.2322	-0.0029
531.4287	0
531.6251	-0.0086
531.8215	0.0021
532.0179	-0.0011
532.2143	-0.0006
532.4107	0.0017
532.607	-0.0077
532.8034	-0.0055
532.9997	0.0022
533.196	-0.0041
533.3923	0.0081
533.5886	-0.0015
533.7848	0.0004
533.9811	0.0033
534.1773	0.0019
534.3735	0.0066
534.5697	0.0018
534.7659	0.0034
534.9621	0.0093
535.1582	0.0105
535.3544	0.0056
535.5505	-0.0001
535.7466	0.0018
535.9427	0.0026
536.1387	-0.0036
536.3348	0.0049
536.5308	-0.0081
536.7269	-0.0102
536.9229	-0.0101
537.1189	0.0055
537.3148	0.0002
537.5108	0.0051
537.7068	-0.0006
537.9027	-0.004
538.0986	0.0073
538.2945	-0.0031
538.4904	0.0014
538.6863	-0.0041
538.8821	-0.0015
539.078	0.006
539.2738	0.0015
539.4696	-0.0109
539.6654	0.0107
539.8611	0.0018
540.0569	0.0052
540.2526	0.0078
540.4484	-0.01
540.6441	-0.0081
540.8398	0.0162
541.0355	-0.0066
541.2311	0.0012
541.4268	0.0013
541.6224	0.0217
541.818	0.0065
542.0136	0.0017
542.2092	0.0078
542.4048	0.0009
542.6003	-0.0143
542.7959	0.0025
542.9914	-0.0023
543.1869	0.0038
543.3824	0.0045
543.5779	0.0068
543.7734	0.0039
543.9688	0.005
544.1642	0.0012
544.3596	0.0054
544.555	0.0069
544.7504	0.0075
544.9458	-0.0014
545.1411	0.0017
545.3365	0.005
545.5318	0.0016
545.7271	-0.0019
545.9224	0.002
546.1177	0.0038
546.3129	-0.0031
546.5081	-0.0033
546.7034	-0.0018
546.8986	-0.0038
547.0938	0.0038
547.289	-0.0032
547.4841	-0.0038
547.6793	-0.0028
547.8744	0.0082
548.0695	-0.0137
548.2646	0.0019
548.4597	0.0035
548.6548	0.0145
548.8498	0.007
549.0448	0.002
549.2399	0.0155
549.4349	0.0056
549.6298	0.0026
549.8248	-0.0131
550.0198	0.0018
550.2147	0.0025
550.4096	-0.0028
550.6045	-0.0013
550.7994	-0.0021
550.9943	0.002
551.1892	-0.0066
551.384	0.0017
551.5788	0.004
551.7737	-0.0051
551.9685	0.0046
552.1632	-0.0107
552.358	0.0022
552.5528	0.0056
552.7475	-0.0023
552.9422	0.0062
553.1369	0.0087
553.3316	0.0043
553.5263	-0.0001
553.7209	0.0071
553.9156	0.0021
554.1102	0.0034
554.3048	-0.0049
554.4994	-0.0023
554.694	-0.0001
554.8885	0.0132
555.0831	0.0089
555.2776	0.0042
555.4721	0.0028
555.6666	-0.0025
555.8611	0.0115
556.0555	-0.0022
556.25	-0.0014
556.4444	0.0053
556.6388	-0.0072
556.8332	0.0052
557.0276	0.0057
557.222	-0.0025
557.4163	-0.0018
557.6107	-0.0046
557.805	-0.0121
557.9993	0.006
558.1936	-0.0055
558.3879	0.0024
558.5821	-0.0131
558.7764	-0.004
558.9706	-0.0003
559.1648	0.0013
559.359	-0.0008
559.5532	-0.0033
559.7473	-0.0024
559.9415	0.0026
560.1356	0.0044
560.3297	-0.0005
560.5238	-0.0042
560.7179	-0.0008
560.9119	-0.0094
561.106	-0.0073
561.3	0.0005
561.494	-0.0083
561.688	-0.0048
561.882	-0.0012
562.076	0.0072
562.2699	0.008
562.4639	0.0121
562.6578	0.0068
562.8517	0.0041
563.0456	-0.0064
563.2395	0.0075
563.4333	0.0027
563.6272	-0.0029
563.821	-0.0023
564.0148	-0.0043
564.2086	0.0031
564.4024	0.0025
564.5961	0.0045
564.7899	0.0014
564.9836	-0.007
565.1773	0.004
565.371	0.0008
565.5647	0.0028
565.7584	0.0077
565.952	0.0073
566.1456	0.0008
566.3393	0.0124
566.5329	-0.0062
566.7264	0.0104
566.92	0.0077
567.1136	0.0024
567.3071	0.0031
567.5006	0.0013
567.6941	-0.0012
567.8876	0.0052
568.0811	0.0172
568.2745	-0.0001
568.468	0.0017
568.6614	0.0096
568.8548	-0.0011
569.0482	0.0099
569.2416	0.0019
569.4349	0.0001
569.6283	0.0041
569.8216	0.0099
570.0149	-0
570.2082	0.009
570.4015	0.0006
570.5947	0.0039
570.788	0.0043
570.9812	0.003
571.1744	0.0015
571.3676	0.0077
571.5608	0.0057
571.754	0.0057
571.9471	0.0102
572.1402	0.0046
572.3333	0.002
572.5264	0.0019
572.7195	0.0012
572.9126	0.0043
573.1057	0.0055
573.2987	0.0031
573.4917	0.0013
573.6847	0.0066
573.8777	0.0094
574.0707	0.0051
574.2636	0.0044
574.4566	0.0016
574.6495	0.0013
574.8424	0.0088
575.0353	0.0041
575.2281	0.0122
575.421	0.0003
575.6138	0.0049
575.8067	0.0064
575.9995	0.0024
576.1923	0.0059
576.385	0.0043
576.5778	0.008
576.7706	0.0068
576.9633	0.0026
577.156	-0.0053
577.3487	0.0023
577.5414	0.0026
577.734	0.0032
577.9267	0.0043
578.1193	0.0069
578.3119	0.0019
578.5045	0.003
578.6971	0.0003
578.8897	0.0004
579.0822	0.0095
579.2747	0.003
579.4673	0.0058
579.6598	0.0073
579.8522	0.0034
580.0447	0.0062
580.2372	0.0053
580.4296	0.0098
580.622	0.0027
580.8144	0.005
581.0068	0.0043
581.1992	0.0041
581.3915	-0
581.5839	0.005
581.7762	0.0033
581.9685	0.0004
582.1608	0.0036
582.353	0.0035
582.5453	0.005
582.7375	0.0071
582.9298	0.0022
583.122	0.0005
583.3142	0.0034
583.5063	0.0076
583.6985	-0.0026
583.8906	0.0029
584.0827	0.0033
584.2749	-0.0014
584.4669	0.0023
584.659	0.003
584.8511	0.0063
585.0431	0.0057
585.2352	-0.0013
585.4272	0.0068
585.6192	0.0058
585.8111	-0
586.0031	0.0019
586.195	0.0045
586.387	0.0028
586.5789	0.0029
586.7708	0.0072
586.9627	0.007
587.1545	0.0094
587.3464	0.0067
587.5382	0.0025
587.73	0.0092
587.9218	-0.0011
588.1136	-0.0026
588.3053	0.0031
588.4971	0.003
588.6888	0.0041
588.8805	-0.0006
589.0722	0.0148
589.2639	0.009
589.4556	0.004
589.6472	0.0126
589.8389	0.0033
590.0305	0.0053
590.2221	0.0091
590.4137	0.0011
590.6052	0.0043
590.7968	0.0031
590.9883	0.0005
591.1798	0.0035
591.3713	0.0014
591.5628	0.0059
591.7543	0.0035
591.9458	0.0037
592.1372	0.0096
592.3286	0.0058
592.52	0.0066
592.7114	0.0026
592.9028	0.0086
593.0941	0.0008
593.2855	0.0033
593.4768	0.0084
593.6681	0.0062
593.8594	0.007
594.0506	0.0005
594.2419	0.0072
594.4331	0.0037
594.6244	-0.0064
594.8156	0.0018
595.0067	-0.0019
595.1979	-0.0021
595.3891	0.0058
595.5802	0.0111
595.7713	0.0035
595.9624	0.0111
596.1535	0.0057
596.3446	-0.0013
596.5357	0.0072
596.7267	-0.0026
596.9177	0.0088
597.1087	-0.0008
597.2997	0.0054
597.4907	0.0029
597.6817	0.0089
597.8726	0.0084
598.0635	-0.0007
598.2544	0.0084
598.4453	0.0061
598.6362	0.0033
598.827	0.0041
599.0179	0.0048
599.2087	0.0057
599.3995	0.0092
599.5903	0.0116
599.7811	0.0085
599.9718	0.0008
600.1626	0.0061
600.3533	-0.0008
600.544	0.0032
600.7347	0.008
600.9254	0.0088
601.116	0.004
601.3067	0.0008
601.4973	0.0097
601.6879	0.0072
601.8785	0.002
602.0691	0.0001
602.2596	0.0029
602.4502	0.0041
602.6407	0.0047
602.8312	0.0028
603.0217	0.0075
603.2122	0.0069
603.4027	0.0075
603.5931	-0.0005
603.7835	0.0067
603.9739	-0.0005
604.1643	0.0103
604.3547	0.008
604.5451	0.0083
604.7354	0.0023
604.9257	0.0068
605.116	0.0009
605.3063	0.0084
605.4966	0.001
605.6869	0.003
605.8771	0.006
606.0673	0.0036
606.2575	-0.0003
606.4477	0.0131
606.6379	-0.0045
606.8281	-0.0003
607.0182	-0.0005
607.2083	0.0018
607.3985	0.0024
607.5885	0.0062
607.7786	0.0049
607.9687	0.0055
608.1587	0.0082
608.3488	0.0053
608.5388	0.0028
608.7288	-0.0013
608.9187	-0.0017
609.1087	0.0075
609.2986	0.0027
609.4886	0.0051
609.6785	0.0031
609.8684	-0.0026
610.0582	-0.0002
610.2481	-0.0029
610.4379	0.0069
610.6278	0.0019
610.8176	0.0104
611.0074	0.0091
611.1971	0.003
611.3869	0.0019
611.5766	-0.0009
611.7664	0.0094
611.9561	0.0044
612.1458	0.01
612.3354	-0.0046
612.5251	0.0036
612.7147	0.0134
612.9044	0.0072
613.094	-0.0021
613.2836	0.0091
613.4731	0.005
613.6627	0.0039
613.8522	0.0065
614.0417	0.0094
614.2313	0.0035
614.4207	0.0064
614.6102	0.0084
614.7997	0.0128
614.9891	0.0042
615.1785	-0.0019
615.3679	0.0097
615.5573	-0.0032
615.7467	-0.0021
615.9361	0.0071
616.1254	0.0071
616.3147	-0.0028
616.504	0.0049
616.6933	0.0051
616.8826	-0.0023
617.0718	0.0066
617.2611	-0.0019
617.4503	0.0064
617.6395	0.0008
617.8287	0.0083
618.0179	0.0041
618.207	0.006
618.3961	0
618.5853	-0.005
618.7744	0.0123
618.9634	0.009
619.1525	0.0047
619.3416	-0.0097
619.5306	0.0089
619.7196	0.0102
619.9086	0.0019
620.0976	-0.0044
620.2866	0.0118
620.4755	0.0047
620.6645	0.0103
620.8534	0.0034
621.0423	-0.0053
621.2312	0.0033
621.42	-0.0082
621.6089	0.004
621.7977	0.01
621.9865	0.001
622.1753	-0.0013
622.3641	-0.0009
622.5529	0.0066
622.7416	0.0038
622.9303	-0.0028
623.1191	0.0089
623.3078	0.0053
623.4964	0.0034
623.6851	0.0039
623.8737	0.0022
624.0624	-0.0038
624.251	0.0053
624.4396	0.0042
624.6282	0.0122
624.8167	-0.0003
625.0053	0.0157
625.1938	-0.0018
625.3823	0.0024
625.5708	0.0056
625.7593	-0.0099
625.9477	0.0073
626.1362	0.0074
626.3246	0.0033
626.513	0.0039
626.7014	0.0106
626.8898	0.013
627.0781	0.0039
627.2665	0.0119
627.4548	-0.0017
627.6431	0.002
627.8314	0.0179
628.0197	0.0087
628.2079	-0.0049
628.3962	0.0021
628.5844	0.0004
628.7726	0.0059
628.9608	0.0102
629.1489	0.0048
629.3371	0.0016
629.5252	0.0056
629.7134	-0.0055
629.9015	-0.0032
630.0895	-0.006
630.2776	0.0072
630.4657	0.0065
630.6537	0.0065
630.8417	-0.003
631.0297	0.004
631.2177	-0.0032
631.4057	0.0003
631.5936	0.0036
631.7815	0.0002
631.9695	0.0265
632.1574	0.0008
632.3452	0.0137
632.5331	0.0215
632.7209	0.0141
632.9088	0.0153
633.0966	0.0154
633.2844	-0.0097
633.4722	0.0062
633.6599	0.0164
633.8477	0.011
634.0354	0.0084
634.2231	0.0009
634.4108	0.0144
634.5985	0.0154
634.7861	0.0109
634.9738	-0.0067
635.1614	-0.0069
635.349	0.0054
635.5366	0.0024
635.7242	0.0045
635.9117	0.0063
636.0993	0.0117
636.2868	-0.0065
636.4743	-0.008
636.6618	-0.0119
636.8492	0.0102
637.0367	0.0054
637.2241	0.0071
637.4115	0.0246
637.5989	0.0098
637.7863	0.0165
637.9737	0.0006
638.161	0.0009
638.3484	-0.0044
638.5357	-0.0039
638.723	0.013
638.9103	-0.0143
639.0975	-0.0019
639.2848	0.0102
639.472	0.0207
639.6592	-0.016
639.8464	0.0071
640.0336	-0.0024
640.2208	-0.0017
640.4079	-0.0083
640.595	-0.0099
640.7821	0.014
640.9692	0.0047
641.1563	0.0023
641.3434	0.0075
641.5304	0.024
641.7174	0.0193
641.9044	0.0009
642.0914	0.0078
642.2784	0.007
642.4653	-0.0083
642.6523	0.0096
642.8392	-0.0059
643.0261	-0.0077
643.213	-0.0076
643.3999	0.022
643.5867	0.0224
643.7735	-0.008
643.9604	0.0165
644.1472	0.0102
644.3339	-0.0004
644.5207	0.0167
644.7075	-0.0018
644.8942	-0.003
645.0809	-0.0048
645.2676	0.0065
645.4543	-0.0009
645.6409	0.022
645.8276	0.0141
646.0142	0.0082
646.2008	0.0034
646.3874	-0.0013
646.574	0.0004
646.7605	0.0029
646.9471	0.0034
647.1336	-0.0147
647.3201	0.0025
647.5066	0.0061
647.6931	0.0017
647.8795	0.0014
648.0659	0.0046
648.2524	0.0091
648.4388	0.0108
648.6252	0.0025
648.8115	-0.0056
648.9979	0.0039
649.1842	0.0111
649.3705	0.018
649.5568	-0.0168
649.7431	-0.0085
649.9294	-0.0096
650.1156	-0.019
650.3018	-0.0074
650.488	0.0096
650.6742	0.0168
650.8604	0.0152
651.0466	-0.006
651.2327	-0.0032
651.4188	-0.0215
651.6049	0.0224
651.791	0.0023
651.9771	0.0028
652.1632	0.0154
652.3492	-0.0027
652.5352	0.0072
652.7212	-0.0065
652.9072	-0.0024
653.0932	0.0114
653.2791	-0.0087
653.465	-0.0066
653.651	0.0026
653.8369	0.0103
654.0227	0.0037
654.2086	0.0043
654.3944	0.0229
654.5803	0.0075
654.7661	0.0044
654.9519	0.0008
655.1377	-0
655.3234	-0
655.5092	-0
655.6949	-0
655.8806	-0
656.0663	-0
656.2519	-0
656.4376	-0
656.6232	-0
656.8088	-0
656.9945	-0
657.18	-0
657.3656	-0
657.5511	-0
657.7367	-0
657.9222	-0
658.1077	-0
658.2932	-0
658.4786	-0
658.6641	-0
658.8495	-0
659.0349	-0
659.2203	-0
659.4057	-0
659.591	0.1276
659.7764	0.0259
659.9617	0.0059
660.147	0.0069
660.3323	0.0058
660.5176	0.0014
660.7028	-0.0073
660.888	-0.0069
661.0733	0.01
661.2585	-0.0048
661.4436	-0.0166
661.6288	0.0257
661.8139	-0.0096
661.9991	-0.0153
662.1842	-0.0059
662.3693	0.017
662.5544	0.0201
662.7394	0.0088
662.9245	-0.0094
663.1095	-0.0106
663.2945	-0.0083
663.4795	0.0028
663.6644	-0.008
663.8494	0.0009
664.0343	0.0016
664.2193	0.0054
664.4042	0.0063
664.589	0.004
664.7739	0.007
664.9587	-0.0145
665.1436	-0.0136
665.3284	0.0028
665.5132	-0.0356
665.698	0.0053
665.8827	0.006
666.0675	-0.0096
666.2522	-0.0154
666.4369	-0.0009
666.6216	-0.0026
666.8063	-0.0106
666.9909	-0.0036
667.1756	-0.0081
667.3602	-0.0009
667.5448	0.015
667.7294	0.02
667.9139	0.0053
668.0985	0.0245
668.283	0.008
668.4675	0.027
668.652	-0.0025
668.8365	0.0075
669.0209	-0.0267
669.2054	0.0219
669.3898	-0.0071
669.5742	0.0279
669.7586	0.0098
669.943	0.0137
670.1273	0.0136
670.3117	0.005
670.496	0.0014
670.6803	-0.0124
670.8646	-0.0084
671.0488	0.0186
671.2331	-0.0205
671.4173	0.0056
671.6015	0.0129
671.7857	-0.0003
671.9699	0.0153
672.1541	-0.0092
672.3382	0.0022
672.5223	0.0008
672.7064	-0.0052
672.8905	-0.0052
673.0746	0.0173
673.2587	0.0145
673.4427	-0.0018
673.6267	0.0253
673.8107	-0.0068
673.9947	0.0091
674.1787	-0.0008
674.3626	0.0135
674.5465	0.0084
674.7304	-0.0067
674.9143	-0.0066
675.0982	-0.0024
675.2821	-0.0124
675.4659	-0.0115
675.6497	0.0174
675.8335	0.0004
676.0173	-0.0135
676.2011	-0.0055
676.3849	0.0091
676.5686	0.018
676.7523	-0.0061
676.936	-0.0055
677.1197	-0.0206
677.3034	0.0533
677.487	0.0085
677.6706	0.0072
677.8542	0.0087
678.0378	-0.0193
678.2214	0.0071
678.405	-0.0006
678.5885	0.0057
678.772	-0.0047
678.9555	-0.003
679.139	-0.0015
679.3225	0.0018
679.5059	-0.0077
679.6894	0.0016
679.8728	-0.0001
680.0562	-0.0027
680.2395	-0.0053
680.4229	-0.0056
680.6062	0.0078
680.7896	-0.0028
680.9729	0.0188
681.1562	-0.0015
681.3394	0.0032
681.5227	-0.0011
681.7059	0.0089
681.8891	0.002
682.0723	-0.011
682.2555	0.014
682.4387	0.0056
682.6218	0.0062
682.805	0.0088
682.9881	-0.0015
683.1712	0.0154
683.3542	0.0289
683.5373	0.0015
683.7203	0.0168
683.9034	-0.007
684.0864	0.0021
684.2694	0.0011
684.4523	-0.0033
684.6353	0.0071
684.8182	-0.0062
685.0011	0.0147
685.184	0.019
685.3669	0.0151
685.5498	-0.0151
685.7326	-0.0014
685.9154	0.0027
686.0982	0.0202
686.281	-0.0032
686.4638	0.006
686.6465	-0.0091
686.8293	-0.0098
687.012	0.0085
687.1947	0.0082
687.3774	0.0068
687.56	-0.0157
687.7427	-0.007
687.9253	-0.0134
688.1079	0.0042
688.2905	-0.0014
688.4731	0.0334
688.6556	0.0007
688.8382	-0.0162
689.0207	0.0082
689.2032	0.0234
689.3857	-0.0096
689.5681	-0.0043
689.7506	0.0445
689.933	-0.0075
690.1154	0.0225
690.2978	0.0043
690.4802	0.0193
690.6626	0.0037
690.8449	0.0024
691.0272	-0.0018
691.2095	-0.0305
691.3918	-0.0075
691.5741	-0.0116
691.7563	0.0114
691.9386	0.0148
692.1208	0.0016
692.303	-0.0103
692.4852	-0.0006
692.6673	0.009
692.8495	-0.0041
693.0316	0.0102
693.2137	0.0186
693.3958	0.0095
693.5778	0.0078
693.7599	0.0067
693.9419	0.0036
694.1239	0.0123
694.3059	0.0161
694.4879	0.0058
694.6699	-0.0097
694.8518	-0.0068
695.0337	0.01
695.2157	0.0291
695.3975	0.0027
695.5794	-0.0314
695.7613	0.0238
695.9431	-0.0262
696.1249	0.0177
696.3067	-0.0054
696.4885	0.0215
696.6703	0.0119
696.852	-0.0155
697.0337	0.0224
697.2154	0.0067
697.3971	0.0079
697.5788	0.0114
697.7605	-0.0229
697.9421	0.0128
698.1237	0.0058
698.3053	0.0036
698.4869	0.0082
698.6685	-0.0099
698.85	0.0254
699.0315	-0.0146
699.213	0.0112
699.3945	0.0015
699.576	0.0174
699.7575	0.0093
699.9389	0.0021
700.1203	-0.0066
700.3017	-0.0134
700.4831	0.0108
700.6645	0.0276
700.8458	-0.0007
701.0271	0.0205
701.2084	0.0112
701.3897	-0.004
701.571	-0.0114
701.7523	-0.0054
701.9335	0.0124
702.1147	0.0099
702.2959	-0.0117
702.4771	-0.0061
702.6583	-0.0008
702.8394	-0.0106
703.0205	0.0176
703.2016	0.0045
703.3827	-0.0169
703.5638	0.0062
703.7449	0.0074
703.9259	0.007
704.1069	-0.0288
704.2879	0.0033
704.4689	0.0095
704.6499	0.0112
704.8308	0.011
705.0117	0.0264
705.1927	0.0177
705.3735	0.0462
705.5544	0.0246
705.7353	-0.0024
705.9161	-0.0343
706.0969	0.0118
706.2777	0.01
706.4585	0.0078
706.6393	0.0161
706.82	0.0359
707.0007	-0.0036
707.1815	0.0012
707.3621	0.0342
707.5428	0.0152
707.7235	0.0129
707.9041	-0.0061
708.0847	0.0135
708.2653	0.0208
708.4459	-0.0076
708.6265	-0.0042
708.807	0.0053
708.9875	0.0108
709.168	0.0112
709.3485	0.014
709.529	0.0105
709.7095	0.0039
709.8899	0.0017
710.0703	0.0143
710.2507	-0.0008
710.4311	-0.0148
710.6115	0.0139
710.7918	0.0127
710.9721	-0.003
711.1524	-0.0054
711.3327	-0.0146
711.513	-0.0144
711.6932	-0.009
711.8735	0.0094
712.0537	-0.0067
712.2339	0.0058
712.4141	0.0279
712.5942	-0.0177
712.7744	0.0225
712.9545	-0.0028
713.1346	-0.009
713.3147	0.0112
713.4947	-0.001
713.6748	0.013
713.8548	0.0025
714.0348	0.0131
714.2148	-0.0098
714.3948	0.0197
714.5748	0.0027
714.7547	0.0106
714.9346	0.019
715.1145	0.0085
715.2944	-0.0265
715.4743	0.0299
715.6541	0.0119
715.834	0.0293
716.0138	0.0002
716.1936	-0.003
716.3733	0.0108
716.5531	-0.0025
716.7328	0.0313
716.9126	-0.0093
717.0923	-0.036
717.2719	0.0052
717.4516	-0.0096
717.6312	-0.0093
717.8109	0.0373
717.9905	0.0327
718.1701	-0.0108
718.3496	0.0161
718.5292	0.002
718.7087	0.0103
718.8882	0.0138
719.0677	-0.0006
719.2472	-0.0088
719.4267	0.0035
719.6061	-0.0016
719.7856	0.0126
719.965	0.0027
720.1443	-0.0283
720.3237	0.0228
720.5031	0.0105
720.6824	0.0039
720.8617	-0.0073
721.041	0.0243
721.2203	-0.0067
721.3995	-0.0258
721.5788	-0.0153
721.758	0.0175
721.9372	0.0079
722.1164	0.0071
722.2956	-0.0196
722.4747	0.0041
722.6538	-0.0064
722.8329	0.015
723.012	0.0197
723.1911	0.0104
723.3702	0.0209
723.5492	0.0088
723.7282	0.0001
723.9072	0.0057
724.0862	-0.0109
724.2652	0.0014
724.4441	-0.0083
724.623	0.0043
724.8019	-0.0063
724.9808	0.0056
725.1597	0.0018
725.3385	0.0042
725.5174	-0.0056
725.6962	0.014
725.875	0.0098
726.0538	-0.0047
726.2325	0.0379
726.4112	-0.0043
726.59	-0.0139
726.7687	-0.0121
726.9474	-0.0227
727.126	0.0036
727.3047	0.0158
727.4833	0.0119
727.6619	-0.0077
727.8405	-0.0026
728.0191	0.0145
728.1976	0.0083
728.3762	0.0215
728.5547	0.0001
728.7332	0.0138
728.9116	-0.0083
729.0901	0.0014
729.2686	-0.0037
729.447	0.0062
729.6254	-0.0027
729.8038	-0.0064
729.9821	0.0029
730.1605	0.0083
730.3388	-0.0033
730.5171	0.0093
730.6954	-0.0294
730.8737	0.0097
731.0519	0.0088
731.2302	0.0297
731.4084	-0.0035
731.5866	0.0062
731.7648	0.0113
731.9429	0.0142
732.1211	-0.0084
732.2992	0.0094
732.4773	-0.0097
732.6554	-0.0347
732.8335	0.022
733.0115	0.0049
733.1896	-0.0102
733.3676	0.011
733.5456	-0.0069
733.7235	0.0003
733.9015	0.0178
734.0794	-0.0108
734.2574	-0.0054
734.4353	0.0256
734.6131	0.0001
734.791	0.0038
734.9689	-0.0047
735.1467	0.0051
735.3245	0.0179
735.5023	0.0064
735.68	0.0045
735.8578	0.0201
736.0355	0.0175
736.2132	0.0154
736.3909	0.0117
736.5686	0.0042
736.7463	-0.0139
736.9239	0.0225
737.1015	0.0099
737.2791	0.0212
737.4567	0.0105
737.6343	-0.0228
737.8118	0.0086
737.9894	0.0075
738.1669	-0.0022
738.3444	0.0291
738.5218	-0.0108
738.6993	0.0132
738.8767	-0.0012
739.0541	-0.0068
739.2315	0.0022
739.4089	0.038
739.5863	-0.0136
739.7636	0.0008
739.9409	0.0034
740.1182	-0.0018
740.2955	0.02
740.4728	-0.0148
740.65	0.0002
740.8272	0.037
741.0044	-0.0195
741.1816	0.0107
741.3588	0.0078
741.5359	0.0007
741.7131	-0.0003
741.8902	-0.0129
742.0673	-0.0374
742.2444	0.0199
742.4214	0.0151
742.5985	-0.0106
742.7755	0.0076
742.9525	-0.015
743.1295	-0.0171
743.3064	0.0075
743.4834	0.0072
743.6603	0.0301
743.8372	-0.0558
744.0141	0.0314
744.191	0.0068
744.3678	-0.0273
744.5446	0.0015
744.7215	0.0037
744.8982	-0.013
745.075	0.0254
745.2518	0.0149
745.4285	0.019
745.6052	0.0096
745.7819	0.0173
745.9586	-0.0052
746.1353	0.0038
746.3119	0.0179
746.4885	0.0057
746.6651	0.004
746.8417	-0.0144
747.0183	0.0336
747.1948	0.0062
747.3714	0.002
747.5479	0.0299
747.7244	0.0151
747.9008	0.0109
748.0773	0.0153
748.2537	0.0052
748.4301	0.019
748.6065	-0.0106
748.7829	-0.0309
748.9593	-0.0033
749.1356	-0.0101
749.3119	-0.0075
749.4882	0.0265
749.6645	0.0268
749.8408	0.0132
750.017	-0.0005
750.1933	-0.0136
750.3695	-0.0086
750.5457	-0.0046
750.7218	-0.0143
750.898	-0.0012
751.0741	0.0011
751.2502	-0.0063
751.4263	0.0052
751.6024	0.0099
751.7784	-0.0037
751.9545	-0.0002
752.1305	0.0151
752.3065	0.0204
752.4825	0.0041
752.6584	0.0025
752.8344	-0.0232
753.0103	-0.0056
753.1862	0.0205
753.3621	0.0114
753.5379	-0.0227
753.7138	0.0206
753.8896	0.0126
754.0654	-0.0039
754.2412	0.0287
754.417	0.0062
754.5927	-0.0016
754.7685	0.0212
754.9442	0.0041
755.1199	0.001
755.2956	-0.0017
755.4712	0.0243
755.6469	0.0059
755.8225	-0.0024
755.9981	0.0208
756.1736	0.0212
756.3492	0.0072
756.5248	0.0188
756.7003	0.0067
756.8758	-0.0075
757.0513	0.0035
757.2267	-0.0009
757.4022	0.0017
757.5776	0.0021
757.753	0.0155
757.9284	0.0081
758.1038	0.0076
758.2791	0.0196
758.4545	-0.0251
758.6298	0.0052
758.8051	0.0049
758.9803	-0.0023
759.1556	-0.0051
759.3308	-0.0004
759.506	0.0065
759.6812	0.0016
759.8564	-0.0049
760.0316	-0.0076
760.2067	0.0311
760.3819	0.0021
760.557	-0.0124
760.732	-0.0006
760.9071	0.0048
761.0821	-0.0117
761.2572	0.0119
761.4322	0.0088
761.6072	-0.0046
761.7821	-0.0131
761.9571	-0.0024
762.132	-0.0052
762.3069	0.0187
762.4818	0.0188
762.6567	0.0068
762.8316	0.0064
763.0064	0.0082
763.1812	0.0119
763.356	-0.0134
763.5308	0.0166
763.7055	0.0013
763.8803	0.0083
764.055	0.0003
764.2297	0.002
764.4044	0.0117
764.579	0.0017
764.7537	-0.011
764.9283	0.0176
765.1029	-0.0022
765.2775	0.013
765.4521	-0.0013
765.6266	-0.007
765.8011	0.0111
765.9756	0.0067
766.1501	0.0035
766.3246	0.0015
766.4991	-0.0268
766.6735	0.0268
766.8479	0.0165
767.0223	0.0107
767.1967	0.03
767.371	-0.008
767.5454	0.0208
767.7197	0.0355
767.894	-0.0176
768.0683	0.0337
768.2425	-0.0016
768.4168	0.0171
768.591	0.0108
768.7652	0.0229
768.9394	-0.0284
769.1135	0.0014
769.2877	0.0103
769.4618	0.0193
769.6359	-0.019
769.81	0.0022
769.984	0.0005
770.1581	0.0073
770.3321	0.0008
770.5061	-0.015
770.6801	0.0065
770.8541	-0.0016
771.028	0.0365
771.202	0.0307
771.3759	0.0032
771.5498	0.0309
771.7236	-0.0144
771.8975	0.0108
772.0713	-0.0058
772.2451	-0.0203
772.4189	0.017
772.5927	-0.053
772.7665	-0.0136
772.9402	0.0189
773.1139	-0.0187
773.2876	0.0205
773.4613	0.0013
773.635	0.019
773.8086	-0.0158
773.9822	0.0124
774.1558	0.0232
774.3294	0.0141
774.503	0.0348
774.6765	0.0379
774.8501	0.0162
775.0236	0.0196
775.1971	-0.0328
775.3705	-0.0052
775.544	-0.0406
775.7174	0.0027
775.8908	0.0003
776.0642	0.0309
776.2376	0.0199
776.4109	0.0063
776.5843	-0.0144
776.7576	0.0028
776.9309	0.0147
777.1041	-0.042
777.2774	0.018
777.4506	-0.0311
777.6238	-0.0818
777.797	0.0234
777.9702	0.0217
778.1434	-0.0078
778.3165	-0.0387
778.4896	-0.0424
778.6627	-0.0045
778.8358	-0.0295
779.0089	-0.0277
779.1819	0.0211
779.3549	0.0215
779.5279	-0.0347
779.7009	0.0549
779.8739	0.0461
780.0468	-0.0376
780.2197	-0.0161
780.3926	-0.0017
780.5655	0.0071
780.7384	0.017
780.9112	0.0111
781.0841	0.0124
781.2569	-0.0003
781.4297	-0.0066
781.6024	-0.0137
781.7752	0.0274
781.9479	0.0506
782.1206	0.0002
782.2933	-0.0132
782.466	0.0345
782.6386	-0.0216
782.8113	0.0025
782.9839	-0.0244
783.1565	0.0176
783.329	-0.0033
783.5016	0.0159
783.6741	-0.0065
783.8466	0.0329
784.0191	-0.0039
784.1916	-0.0122
784.3641	-0.0535
784.5365	0.036
784.7089	-0.0288
784.8813	0.0847
785.0537	0.0149
785.2261	-0.027
785.3984	-0.0167
785.5707	-0.0164
785.743	0.0413
785.9153	-0.015
786.0876	-0.0306
786.2598	-0.0159
786.432	-0.0151
786.6042	0.0282
786.7764	-0.0208
786.9486	-0.0344
787.1207	0.0077
787.2928	0.0262
787.4649	-0.0175
787.637	-0.0033
787.8091	0.0249
787.9811	-0.0037
788.1532	0.0083
788.3252	-0.0073
788.4972	0.0147
788.6691	0.0097
788.8411	-0.0312
789.013	-0.0072
789.1849	-0.0019
789.3568	0.005
789.5287	0.1353
789.7005	-0.0325
789.8723	-0.0584
790.0442	-0.0753
790.2159	-0.0315
790.3877	0.0552
790.5595	0.0521
790.7312	-0.0027
790.9029	-0.0037
791.0746	0.0084
791.2463	-0.0782
791.4179	0.0004
791.5896	-0.0007
791.7612	0.0033
791.9328	-0.0355
792.1044	-0.0131
792.2759	-0.0295
792.4474	-0.0267
792.619	-0.0356
792.7905	0.0004
792.9619	0.0162
793.1334	0.0226
793.3048	0.07
793.4762	-0.0089
793.6476	-0.077
793.819	-0.0116
793.9904	-0.0359
794.1617	-0.0452
794.333	0.0037
794.5043	0.0268
794.6756	0.0048
794.8469	0.0292
795.0181	-0.0189
795.1893	0.0015
795.3605	0.0064
795.5317	-0.0068
795.7029	-0.0162
795.874	-0.0277
796.0452	0.0085
796.2163	0.1082
796.3873	0.075
796.5584	0.0288
796.7294	0.0951
796.9005	0.0109
797.0715	0.0384
797.2425	0.0718
797.4134	0.0315
797.5844	0.0545
797.7553	-0.0553
797.9262	0.0876
798.0971	0.0109
798.2679	0.0016
798.4388	0.02
798.6096	0.0316
798.7804	0.0255
798.9512	0.0712
799.122	-0.0938
799.2927	-0.0022
799.4635	0.0005
799.6342	0.002
799.8049	-0.0008
799.9755	-0.0091
800.1462	-0.0311
800.3168	0.0124
800.4874	-0.1094
800.658	0.107
800.8286	-0.0408
800.9991	0.0383
801.1696	0.0034
801.3402	-0.0662
801.5106	-0.0638
801.6811	-0.0481
801.8516	0.039
802.022	0.0199
802.1924	-0.0843
802.3628	0.0731
802.5332	0.0635
802.7035	0.0746
802.8739	-0.0109
803.0442	0.0158
803.2145	0.0241
803.3847	0.0147
803.555	0.0456
803.7252	-0.0591
803.8954	-0.0357
804.0656	-0.0259
804.2358	0.0782
804.4059	-0.0026
804.5761	-0.0013
804.7462	0.0146
804.9163	0.0332
805.0864	-0.0425
805.2564	-0.0561
805.4264	-0.0235
805.5965	0.0192
805.7665	-0.0246
805.9364	-0.0117
806.1064	-0.0279
806.2763	0.0167
806.4462	0.039
806.6161	0.0465
806.786	0.0198
806.9559	0.0574
807.1257	-0.0047
807.2955	0.013
807.4653	-0.0137
807.6351	-0.0187
807.8048	0.0101
807.9746	0.0247
808.1443	-0.0517
808.314	-0.0123
808.4837	0.0169
808.6533	-0.0238
808.8229	0.0646
808.9926	0.0257
809.1622	0.0461
809.3317	-0.0245
809.5013	0.0061
809.6708	0.0592
809.8403	0.1452
810.0098	-0.027
810.1793	0.0311
810.3488	-0.0416
810.5182	0.1091
810.6876	0.0743
810.857	0.0915
811.0264	-0.0284
811.1958	0.0824
811.3651	0.0079
811.5344	0.0437
811.7037	-0.0701
811.873	0.0409
812.0422	-0.1119
812.2115	0.015
812.3807	-0.1397
812.5499	-0.0435
812.7191	-0.0497
812.8882	-0.0021
813.0574	-0.0843
813.2265	-0.0178
813.3956	0.0492
813.5646	-0.0606
813.7337	0.017
813.9027	-0.0588
814.0718	-0.0175
814.2407	-0.0152
814.4097	0.0456
814.5787	0.0619
814.7476	0.0664
814.9165	0.0419
815.0854	0.0161
815.2543	-0.0563
815.4232	0.0856
815.592	0.1289
815.7608	-0.0929
815.9296	-0.0288
816.0984	-0.1046
816.2671	-0.3897
816.4359	0.0577
816.6046	0.0887
816.7733	0.0296
816.942	0.0401
817.1106	0.0268
817.2793	-0.1172
817.4479	0.0008
817.6165	0.0101
817.785	0.1255
817.9536	-0.0539
818.1221	0.0048
818.2906	-0.0154
818.4591	-0.0613
818.6276	-0.0299
818.7961	-0.0237
818.9645	-0.0609
819.1329	0.1055
819.3013	-0.0957
819.4697	-0.009
819.638	0.2122
819.8064	-0.0118
819.9747	0.0881
820.143	-0.1784
820.3113	0.1073
820.4795	0.0291
820.6477	0.1134
820.816	0.0613
820.9842	0.2068
821.1523	0.0102
821.3205	-0.023
821.4886	-0.0291
821.6567	0.077
821.8248	0.106
821.9929	-0.1522
822.1609	-0.0757
822.329	-0.0726
822.497	-0.0065
822.665	-0.0301
822.833	0.0448
823.0009	-0.0991
823.1688	-0.0234
823.3367	-0.0553
823.5046	0.012
823.6725	0.0282
823.8404	0.0691
824.0082	-0.1314
824.176	-0.0722
824.3438	0.0542
824.5116	-0.109
824.6793	0.0751
824.847	-0.0153
825.0147	-0.0641
825.1824	-0.1017
825.3501	-0.139
825.5177	0.0047
825.6854	-0.1569
825.853	0.0301
826.0206	0.0085
826.1881	0.0086
826.3557	0.0421
826.5232	0.0738
826.6907	0.0031
826.8582	-0.0071
827.0257	0.167
827.1931	0.0929
827.3605	-0.0425
827.528	-0.1687
827.6953	-0.1441
827.8627	-0.0063
828.03	0.0429
828.1974	-0.0022
828.3647	0.0091
828.532	-0.0299
828.6992	0.0617
828.8665	-0.3319
829.0337	0.1123
829.2009	-0.2356
829.3681	0.1431
829.5352	-0.2232
829.7024	-0.0672
829.8695	-0.0489
830.0366	0.0284
830.2037	0.0063
830.3707	0.1095
830.5378	-0.0454
830.7048	-0.1849
830.8718	0.126
831.0388	-0.1106
831.2057	0.0899
831.3727	-0.3016
831.5396	0.0874
831.7065	-0.9347
831.8734	0.7544
832.0402	0.2538
832.2071	-0
832.3739	-0.2591
832.5407	-2.1163
832.7075	-0.2713
832.8742	0.5262
833.041	0.1602
833.2077	0.241
833.3744	-0.0107
833.541	-0.0427
833.7077	0.0698
833.8743	-0.0191
834.0409	0.1224
834.2075	0.1054
834.3741	-0.1894
834.5407	0.0153
834.7072	-0.0333
834.8737	0.0165
835.0402	0.5062
835.2067	-0.1971
835.3731	-0.0193
835.5395	-0.0703
835.706	-0.1718
835.8723	-0.043
836.0387	0.5151
836.2051	0.7183
836.3714	-0.1569
836.5377	0.3348
836.704	0.1097
836.8703	-0.232
837.0365	-0.7853
837.2027	0.0107
837.3689	0.0389
837.5351	0.0312
837.7013	-0.0618
837.8674	-0.2313
838.0335	-0.2248
838.1997	-0.1431
838.3657	-0
838.5318	-0.5461
838.6978	-0
838.8639	1.1722
839.0299	-0.1845
839.1958	0.0714
839.3618	0.0181
839.5277	0.1351
839.6937	-0.1752
839.8596	-0.1858
840.0254	0.0971
840.1913	-0.3517
840.3571	-0.0351
840.523	-0
840.6888	-0.0871
840.8545	-0.3708
841.0203	0.3178
841.186	0.1739
841.3517	-0.2872
841.5174	0.2245
841.6831	0.131
841.8488	-0.0746
842.0144	0.2469
842.18	0.0461
842.3456	-0.4828
842.5112	-0
842.6767	-0.0255
842.8422	-0.0258
843.0077	-0.1065
843.1732	-0.3123
843.3387	-0.3274
843.5042	-0
843.6696	-0.1697
843.835	0.1915
844.0004	-0.3631
844.1657	-0
844.3311	-0.2881
844.4964	-0
844.6617	0.0916
844.827	-0
844.9923	0.5169
845.1575	0.549
845.3227	0.0068
845.4879	-0.2141
845.6531	0.1303
845.8183	0.0218
845.9834	-0
846.1485	0.2762
846.3136	0.0665
846.4787	-0
846.6438	-0.0463
846.8088	0.2729
846.9738	-0.6452
847.1388	0.1131
847.3038	0.505
847.4687	0.5385
847.6337	-0.0265
847.7986	-0.0363
847.9635	-0.0071
848.1284	-0
848.2932	0.0525
848.458	-0
848.6228	-0
848.7876	-0
848.9524	-0.5505
849.1172	-1.6851
849.2819	-0
849.4466	0.5704
849.6113	0.2629
849.7759	-0
849.9406	-0.1819
850.1052	-1.3597
850.2698	-0
850.4344	0.084
850.599	0.0484
850.7635	0.0886
850.928	-0.0886
851.0925	-0.0397
851.257	-0.2371
851.4215	-0.0363
851.5859	0.0463
851.7503	-0
851.9147	0.3035
852.0791	-0.2839
852.2434	0.0292
852.4078	-0
852.5721	0.0727
852.7364	0.0971
852.9007	0.0494
853.0649	-0
853.2291	1.0398
853.3934	-0
853.5575	0.1559
853.7217	0.4387
853.8859	0.3962
854.05	-0.3703
854.2141	0.4087
854.3782	-0.1632
854.5423	0.157
854.7063	0.1089
854.8703	-0.1104
855.0343	-0.1608
855.1983	0.1555
855.3623	0.0867
855.5262	-0
855.6901	0.7667
855.854	0.4158
856.0179	-0.0679
856.1818	-0
856.3456	0.1505
856.5094	-0.2496
856.6732	-0.3029
856.837	-0
857.0008	-0.4686
857.1645	-0
857.3282	-0.3023
857.4919	-0.1199
857.6556	0.0913
857.8192	-0.0073
857.9828	-0.4233
858.1465	0.1414
858.31	0.3989
858.4736	-0.2778
858.6372	-0.3356
858.8007	-0.1875
858.9642	0.1361
859.1277	0.6145
859.2911	-0.2096
859.4546	-0
859.618	0.1243
859.7814	0.1827
859.9448	0.1685
860.1081	-0
860.2715	-2.014
860.4348	0.1988
860.5981	0.6529
860.7614	-0.173
860.9246	-0.0085
861.0879	-0.0074
861.2511	-0.9082
861.4143	-0
861.5774	-0.2929
861.7406	0.0068
861.9037	-0.6232
862.0668	-0.7052
862.2299	0.0207
862.393	-0
862.556	-0
862.7191	-0.3666
862.8821	0.2661
863.0451	1.4781
863.208	-0
863.371	-0.6818
863.5339	0.3162
863.6968	-0.118
863.8597	0.2762
864.0225	-0.0887
864.1854	-0
864.3482	-0.7416
864.511	-0
864.6737	-0
864.8365	0.348
864.9992	0.8016
865.1619	-0.1138
865.3246	-1.9571
865.4873	-0.331
865.65	0.8016
865.8126	0.2762
865.9752	-0.2553
866.1378	-0.0733
866.3004	-0.3238
866.4629	-1.9176
866.6254	-0.7574
866.7879	-0.1813
866.9504	-0
867.1129	-0
867.2753	0.1784
867.4377	0.2453
867.6001	-0.685
867.7625	-0.1824
867.9249	1.2569
868.0872	-0.3092
868.2495	1.2453
868.4118	-0
868.5741	0.5815
868.7363	-0
868.8986	-0.1804
869.0608	-0
869.223	-0.6397
869.3851	-0
869.5473	0.9838
869.7094	0.2692
869.8715	-0
870.0336	0.0862
870.1957	-0
870.3577	1.1166
870.5197	0.0271
870.6817	-0.5289
870.8437	-0.192
871.0057	-0
871.1676	0.1463
871.3295	0.6211
871.4914	-1.791
871.6533	-0.1216
871.8151	0.9
871.977	-0.4228
872.1388	0.1697
872.3006	-0.3025
872.4623	-0.466
872.6241	-0
872.7858	0.1382
872.9475	-0
873.1092	0.0363
873.2709	-0
873.4325	-1.9919
873.5941	-0.5833
873.7557	-0
873.9173	0.3488
874.0789	0.8513
874.2404	-0
874.4019	-0.1352
874.5634	-0
874.7249	-0
874.8863	0.3517
875.0478	-0.5174
875.2092	-0
875.3706	-0.0196
875.5319	0.0342
875.6933	0.0664
875.8546	1.0669
876.0159	-0.1121
876.1772	-0.4846
876.3385	-0
876.4997	-0.0599
876.6609	-0.2925
876.8221	-0
876.9833	0.2123
877.1445	0.3426
877.3056	-1.3749
877.4667	-0
877.6278	0.438
877.7889	-0
877.9499	0.4618
878.111	-0.2209
878.272	-0.3785
878.433	-0
878.5939	0.5303
878.7549	-0.5485
878.9158	-0
879.0767	1.1265
879.2376	-0.137
879.3984	0.4404
879.5593	0.4171
879.7201	-1.4953
879.8809	-0
880.0417	-0.3274
880.2024	-0.0569
880.3632	-0.6785
880.5239	-0
880.6846	-0.894
880.8452	-0
881.0059	-0
881.1665	-0.1535
881.3271	0.06
881.4877	0.4109
881.6483	-1.2423
881.8088	-0
881.9693	-0
882.1298	-0
882.2903	-0
