Data from D4ACN5uM440nmA_Absorbance_13-50-25-838.txt Node
Date: Fri Feb 21 13:50:25 GMT 2025
User: LASERRRRR
Spectrometer: FLMT03099
Trigger mode: 0
Integration Time (sec): 1.500000E-2
Scans to average: 1
Electric dark correction enabled: true
Nonlinearity correction enabled: false
Boxcar width: 0
XAxis mode: Wavelengths
Number of Pixels in Spectrum: 3648
>>>>>Begin Spectral Data<<<<<
179.3399	-0.5948
179.5586	-0.5948
179.7771	-0.5948
179.9957	-0.0308
180.2143	-0
180.4329	0.5827
180.6514	-0
180.8699	-0.0412
181.0885	-0
181.307	-0
181.5255	1.1204
181.744	0.0555
181.9625	0.509
182.181	0.2652
182.3994	-0.3526
182.6179	-0
182.8363	-0
183.0547	-0.1463
183.2732	-0.0164
183.4916	0.4043
183.71	0.2979
183.9284	0.4102
184.1467	0.1474
184.3651	0.5178
184.5835	0.1815
184.8018	0.0383
185.0201	0.0667
185.2385	0.2359
185.4568	0.158
185.6751	0.2068
185.8934	0.0953
186.1117	-0.1503
186.3299	0.2555
186.5482	0.185
186.7664	-0.0175
186.9847	-0.0409
187.2029	0.3405
187.4211	0.033
187.6393	0.2172
187.8575	0.1432
188.0757	0.4459
188.2939	-0.0879
188.512	0.1905
188.7302	0.1441
188.9483	0.6964
189.1665	0.3602
189.3846	0.4806
189.6027	0.1921
189.8208	0.2398
190.0389	0.2413
190.257	0.0798
190.475	0.0147
190.6931	0.0504
190.9111	0.1838
191.1292	0.0692
191.3472	-0.0167
191.5652	0.442
191.7832	0.1708
192.0012	0.08
192.2192	0.1836
192.4371	0.2222
192.6551	0.0774
192.873	0.1705
193.091	0.2186
193.3089	0.2039
193.5268	0.3325
193.7447	0.2888
193.9626	0.3127
194.1805	0.3515
194.3984	0.1747
194.6162	0.3157
194.8341	0.2519
195.0519	0.1819
195.2697	0.2922
195.4875	0.3296
195.7054	0.3079
195.9231	0.2294
196.1409	0.3371
196.3587	0.3394
196.5765	0.3677
196.7942	0.3685
197.012	0.289
197.2297	0.329
197.4474	0.4171
197.6651	0.3194
197.8828	0.3452
198.1005	0.4547
198.3182	0.4208
198.5358	0.3633
198.7535	0.4482
198.9711	0.4369
199.1888	0.3929
199.4064	0.4144
199.624	0.4111
199.8416	0.3288
200.0592	0.3914
200.2767	0.3868
200.4943	0.4526
200.7119	0.3832
200.9294	0.454
201.1469	0.4279
201.3645	0.4223
201.582	0.4245
201.7995	0.4284
202.017	0.4399
202.2344	0.3933
202.4519	0.3813
202.6694	0.4095
202.8868	0.3708
203.1042	0.3891
203.3217	0.3956
203.5391	0.3906
203.7565	0.3831
203.9739	0.364
204.1913	0.339
204.4086	0.3539
204.626	0.3623
204.8433	0.3909
205.0607	0.3728
205.278	0.3339
205.4953	0.3398
205.7126	0.3513
205.9299	0.3201
206.1472	0.3233
206.3644	0.3175
206.5817	0.3652
206.7989	0.3247
207.0162	0.3024
207.2334	0.3159
207.4506	0.3
207.6678	0.301
207.885	0.3108
208.1022	0.3117
208.3194	0.2819
208.5365	0.3377
208.7537	0.3052
208.9708	0.3338
209.1879	0.2997
209.405	0.2834
209.6222	0.2849
209.8392	0.3043
210.0563	0.281
210.2734	0.2396
210.4905	0.2718
210.7075	0.2595
210.9245	0.2569
211.1416	0.2751
211.3586	0.2708
211.5756	0.2531
211.7926	0.2642
212.0096	0.2574
212.2265	0.2653
212.4435	0.2658
212.6604	0.2544
212.8774	0.2437
213.0943	0.2519
213.3112	0.2494
213.5281	0.2639
213.745	0.2463
213.9619	0.2264
214.1788	0.2673
214.3956	0.2495
214.6125	0.2515
214.8293	0.2657
215.0461	0.2494
215.2629	0.241
215.4798	0.2547
215.6965	0.2574
215.9133	0.2455
216.1301	0.239
216.3469	0.2528
216.5636	0.2539
216.7803	0.2515
216.9971	0.266
217.2138	0.2487
217.4305	0.255
217.6472	0.2506
217.8639	0.2502
218.0805	0.2516
218.2972	0.2503
218.5138	0.2468
218.7305	0.2573
218.9471	0.2556
219.1637	0.2698
219.3803	0.254
219.5969	0.2707
219.8135	0.2629
220.0301	0.2602
220.2466	0.2569
220.4632	0.24
220.6797	0.2481
220.8962	0.2542
221.1127	0.2729
221.3292	0.2674
221.5457	0.2801
221.7622	0.271
221.9787	0.2952
222.1951	0.2681
222.4116	0.2695
222.628	0.2742
222.8444	0.2754
223.0608	0.2742
223.2772	0.275
223.4936	0.276
223.71	0.2926
223.9264	0.2797
224.1427	0.2827
224.3591	0.2811
224.5754	0.2895
224.7917	0.2858
225.008	0.285
225.2243	0.3084
225.4406	0.2805
225.6569	0.3004
225.8732	0.3153
226.0894	0.312
226.3057	0.2983
226.5219	0.3178
226.7381	0.3208
226.9543	0.3146
227.1705	0.3213
227.3867	0.325
227.6029	0.3243
227.8191	0.3448
228.0352	0.336
228.2513	0.3545
228.4675	0.3349
228.6836	0.3406
228.8997	0.3401
229.1158	0.3542
229.3319	0.3644
229.548	0.3491
229.764	0.352
229.9801	0.3764
230.1961	0.3774
230.4121	0.3645
230.6282	0.3826
230.8442	0.3939
231.0602	0.3901
231.2761	0.3824
231.4921	0.3942
231.7081	0.4005
231.924	0.4091
232.14	0.4071
232.3559	0.3923
232.5718	0.4104
232.7877	0.4114
233.0036	0.4017
233.2195	0.4147
233.4353	0.4269
233.6512	0.4195
233.867	0.4242
234.0829	0.4239
234.2987	0.424
234.5145	0.4329
234.7303	0.4322
234.9461	0.4437
235.1619	0.4379
235.3776	0.426
235.5934	0.4274
235.8091	0.4379
236.0249	0.4558
236.2406	0.4415
236.4563	0.4449
236.672	0.4462
236.8877	0.448
237.1034	0.4446
237.319	0.4529
237.5347	0.4486
237.7503	0.4524
237.966	0.4491
238.1816	0.4469
238.3972	0.4537
238.6128	0.4643
238.8284	0.4566
239.0439	0.459
239.2595	0.4627
239.475	0.464
239.6906	0.4593
239.9061	0.4631
240.1216	0.4628
240.3371	0.4673
240.5526	0.4569
240.7681	0.4683
240.9836	0.4574
241.199	0.4514
241.4145	0.4543
241.6299	0.4466
241.8453	0.4392
242.0607	0.4418
242.2761	0.4386
242.4915	0.4224
242.7069	0.4132
242.9223	0.4261
243.1376	0.4152
243.353	0.4051
243.5683	0.4068
243.7836	0.3926
243.9989	0.3832
244.2142	0.3771
244.4295	0.3738
244.6448	0.3602
244.86	0.3554
245.0753	0.3468
245.2905	0.347
245.5057	0.3333
245.721	0.3313
245.9362	0.3358
246.1514	0.3261
246.3665	0.3098
246.5817	0.3056
246.7969	0.299
247.012	0.2958
247.2271	0.3005
247.4423	0.2877
247.6574	0.2769
247.8725	0.2678
248.0876	0.2725
248.3026	0.2701
248.5177	0.2588
248.7328	0.2545
248.9478	0.2491
249.1628	0.248
249.3779	0.2435
249.5929	0.2369
249.8079	0.2456
250.0228	0.2352
250.2378	0.2302
250.4528	0.2259
250.6677	0.2188
250.8827	0.2165
251.0976	0.2144
251.3125	0.2179
251.5274	0.2071
251.7423	0.2075
251.9572	0.2093
252.172	0.2135
252.3869	0.2052
252.6017	0.2014
252.8166	0.1998
253.0314	0.1962
253.2462	0.1972
253.461	0.1963
253.6758	0.1936
253.8906	0.1897
254.1053	0.1954
254.3201	0.1958
254.5348	0.1843
254.7496	0.189
254.9643	0.1898
255.179	0.1807
255.3937	0.1869
255.6083	0.191
255.823	0.1848
256.0377	0.1822
256.2523	0.1888
256.467	0.1877
256.6816	0.1778
256.8962	0.1847
257.1108	0.1819
257.3254	0.1817
257.54	0.1716
257.7545	0.1794
257.9691	0.1821
258.1836	0.1781
258.3981	0.1772
258.6127	0.1796
258.8272	0.1838
259.0417	0.1688
259.2561	0.1816
259.4706	0.178
259.6851	0.1765
259.8995	0.1767
260.114	0.177
260.3284	0.1746
260.5428	0.1778
260.7572	0.1748
260.9716	0.1863
261.186	0.1741
261.4003	0.1784
261.6147	0.1786
261.829	0.176
262.0433	0.1797
262.2577	0.1781
262.472	0.1759
262.6863	0.1805
262.9005	0.177
263.1148	0.1796
263.3291	0.1775
263.5433	0.1823
263.7576	0.1852
263.9718	0.1808
264.186	0.1838
264.4002	0.1838
264.6144	0.1927
264.8286	0.1823
265.0427	0.1888
265.2569	0.1841
265.471	0.1827
265.6851	0.182
265.8993	0.1826
266.1134	0.1791
266.3275	0.1823
266.5415	0.1857
266.7556	0.1907
266.9697	0.1859
267.1837	0.1871
267.3978	0.1904
267.6118	0.1799
267.8258	0.1791
268.0398	0.1834
268.2538	0.1803
268.4677	0.1808
268.6817	0.1786
268.8957	0.1797
269.1096	0.171
269.3235	0.1793
269.5374	0.1785
269.7514	0.1765
269.9652	0.1777
270.1791	0.1747
270.393	0.1789
270.6068	0.179
270.8207	0.1768
271.0345	0.179
271.2483	0.172
271.4622	0.1762
271.676	0.1778
271.8897	0.1813
272.1035	0.1829
272.3173	0.1725
272.531	0.1743
272.7448	0.1749
272.9585	0.1726
273.1722	0.1759
273.3859	0.1792
273.5996	0.176
273.8133	0.1759
274.0269	0.1758
274.2406	0.1828
274.4542	0.1786
274.6679	0.1832
274.8815	0.1834
275.0951	0.1862
275.3087	0.1794
275.5223	0.1799
275.7358	0.1813
275.9494	0.1839
276.1629	0.1883
276.3765	0.1858
276.59	0.181
276.8035	0.1832
277.017	0.1888
277.2305	0.1899
277.444	0.1872
277.6574	0.1835
277.8709	0.1935
278.0843	0.1846
278.2978	0.1876
278.5112	0.1913
278.7246	0.1868
278.938	0.1828
279.1513	0.1838
279.3647	0.1889
279.5781	0.1868
279.7914	0.1826
280.0047	0.187
280.2181	0.1844
280.4314	0.1847
280.6447	0.1923
280.8579	0.183
281.0712	0.1821
281.2845	0.1823
281.4977	0.1866
281.711	0.1815
281.9242	0.1863
282.1374	0.1839
282.3506	0.1889
282.5638	0.182
282.7769	0.1776
282.9901	0.1844
283.2033	0.1879
283.4164	0.1791
283.6295	0.1855
283.8426	0.1869
284.0557	0.1893
284.2688	0.1849
284.4819	0.1805
284.695	0.1905
284.908	0.1856
285.1211	0.1874
285.3341	0.1823
285.5471	0.1857
285.7601	0.1841
285.9731	0.1903
286.1861	0.19
286.3991	0.1927
286.612	0.1892
286.825	0.185
287.0379	0.1905
287.2508	0.189
287.4637	0.1906
287.6766	0.1877
287.8895	0.1867
288.1024	0.1924
288.3152	0.1883
288.5281	0.1853
288.7409	0.1914
288.9538	0.1906
289.1666	0.187
289.3794	0.1811
289.5922	0.185
289.8049	0.1865
290.0177	0.189
290.2304	0.1893
290.4432	0.19
290.6559	0.188
290.8686	0.1903
291.0813	0.1886
291.294	0.1904
291.5067	0.1835
291.7194	0.1876
291.932	0.1817
292.1447	0.1859
292.3573	0.1891
292.5699	0.1908
292.7825	0.1861
292.9951	0.1935
293.2077	0.1841
293.4203	0.187
293.6328	0.1846
293.8454	0.1898
294.0579	0.1863
294.2704	0.1906
294.4829	0.1869
294.6954	0.1935
294.9079	0.1889
295.1204	0.1855
295.3328	0.1929
295.5453	0.19
295.7577	0.1884
295.9701	0.1938
296.1825	0.1937
296.3949	0.1853
296.6073	0.184
296.8197	0.1855
297.0321	0.1898
297.2444	0.1914
297.4567	0.1904
297.6691	0.1864
297.8814	0.1857
298.0937	0.1856
298.306	0.1844
298.5182	0.1937
298.7305	0.19
298.9428	0.1889
299.155	0.1843
299.3672	0.1869
299.5794	0.1901
299.7916	0.1862
300.0038	0.1865
300.216	0.1909
300.4282	0.1899
300.6403	0.1905
300.8525	0.1899
301.0646	0.1921
301.2767	0.1887
301.4888	0.1862
301.7009	0.1911
301.913	0.1898
302.125	0.1932
302.3371	0.1901
302.5491	0.1896
302.7612	0.1985
302.9732	0.1886
303.1852	0.1905
303.3972	0.1923
303.6092	0.1883
303.8211	0.1927
304.0331	0.1831
304.245	0.1843
304.457	0.187
304.6689	0.1854
304.8808	0.1889
305.0927	0.1864
305.3046	0.1841
305.5164	0.182
305.7283	0.1789
305.9401	0.1741
306.152	0.1774
306.3638	0.1775
306.5756	0.1774
306.7874	0.1689
306.9992	0.175
307.2109	0.1677
307.4227	0.1732
307.6344	0.1737
307.8462	0.1657
308.0579	0.1706
308.2696	0.1655
308.4813	0.1644
308.693	0.1642
308.9046	0.1641
309.1163	0.1551
309.328	0.1599
309.5396	0.1585
309.7512	0.1544
309.9628	0.153
310.1744	0.1524
310.386	0.1503
310.5976	0.1512
310.8091	0.1483
311.0207	0.1471
311.2322	0.1437
311.4437	0.1391
311.6552	0.1504
311.8667	0.1462
312.0782	0.1419
312.2897	0.1446
312.5012	0.1423
312.7126	0.1369
312.924	0.1427
313.1355	0.1363
313.3469	0.143
313.5583	0.1315
313.7696	0.1327
313.981	0.1436
314.1924	0.1308
314.4037	0.1308
314.6151	0.1356
314.8264	0.1387
315.0377	0.1361
315.249	0.133
315.4603	0.1327
315.6716	0.1356
315.8828	0.1299
316.0941	0.132
316.3053	0.1265
316.5165	0.1335
316.7277	0.126
316.9389	0.132
317.1501	0.1322
317.3613	0.1316
317.5724	0.1287
317.7836	0.123
317.9947	0.1239
318.2058	0.1247
318.417	0.1258
318.6281	0.1248
318.8391	0.1269
319.0502	0.1277
319.2613	0.1302
319.4723	0.1292
319.6834	0.1279
319.8944	0.1259
320.1054	0.1264
320.3164	0.1178
320.5274	0.1256
320.7383	0.1275
320.9493	0.1259
321.1602	0.1221
321.3712	0.1303
321.5821	0.1219
321.793	0.1337
322.0039	0.1303
322.2148	0.1325
322.4257	0.1238
322.6365	0.1269
322.8474	0.1365
323.0582	0.1293
323.269	0.1315
323.4798	0.1336
323.6906	0.1288
323.9014	0.1252
324.1122	0.1285
324.3229	0.1296
324.5337	0.1369
324.7444	0.1297
324.9551	0.1377
325.1658	0.1274
325.3765	0.1267
325.5872	0.1301
325.7979	0.1319
326.0085	0.1295
326.2192	0.129
326.4298	0.1359
326.6404	0.1357
326.851	0.1287
327.0616	0.1326
327.2722	0.133
327.4828	0.1326
327.6933	0.1375
327.9039	0.1329
328.1144	0.1313
328.3249	0.1395
328.5354	0.1312
328.7459	0.1375
328.9564	0.1334
329.1669	0.141
329.3773	0.1407
329.5878	0.138
329.7982	0.1426
330.0086	0.1367
330.219	0.136
330.4294	0.1346
330.6398	0.1376
330.8502	0.14
331.0605	0.1381
331.2708	0.1353
331.4812	0.1371
331.6915	0.1414
331.9018	0.1361
332.1121	0.1513
332.3224	0.1359
332.5326	0.1357
332.7429	0.1441
332.9531	0.1403
333.1633	0.1345
333.3735	0.1418
333.5837	0.1396
333.7939	0.1426
334.0041	0.1437
334.2143	0.1445
334.4244	0.1482
334.6346	0.1393
334.8447	0.1405
335.0548	0.1456
335.2649	0.1467
335.475	0.1403
335.685	0.1436
335.8951	0.144
336.1051	0.1418
336.3152	0.1425
336.5252	0.1413
336.7352	0.1473
336.9452	0.1424
337.1552	0.1421
337.3652	0.1406
337.5751	0.1459
337.7851	0.1437
337.995	0.1449
338.2049	0.1467
338.4148	0.1453
338.6247	0.1441
338.8346	0.143
339.0445	0.1396
339.2543	0.1453
339.4642	0.1395
339.674	0.1386
339.8838	0.1381
340.0936	0.1437
340.3034	0.1461
340.5132	0.1404
340.7229	0.1433
340.9327	0.1516
341.1424	0.1472
341.3522	0.1448
341.5619	0.1533
341.7716	0.1512
341.9813	0.1467
342.1909	0.1502
342.4006	0.1519
342.6102	0.1494
342.8199	0.1574
343.0295	0.1456
343.2391	0.1477
343.4487	0.1544
343.6583	0.157
343.8679	0.1596
344.0774	0.1521
344.287	0.1561
344.4965	0.1583
344.706	0.1646
344.9155	0.1558
345.125	0.1559
345.3345	0.1718
345.544	0.1613
345.7534	0.1584
345.9629	0.1609
346.1723	0.1688
346.3817	0.1614
346.5911	0.1715
346.8005	0.1683
347.0099	0.1639
347.2193	0.1736
347.4286	0.1708
347.638	0.1701
347.8473	0.1741
348.0566	0.1745
348.2659	0.1692
348.4752	0.177
348.6845	0.1784
348.8937	0.1715
349.103	0.1775
349.3122	0.1682
349.5214	0.1764
349.7306	0.1802
349.9398	0.1757
350.149	0.1734
350.3582	0.1763
350.5674	0.1771
350.7765	0.1815
350.9856	0.1778
351.1948	0.1784
351.4039	0.1827
351.613	0.1792
351.822	0.1775
352.0311	0.183
352.2402	0.1814
352.4492	0.187
352.6582	0.1821
352.8672	0.1783
353.0762	0.1795
353.2852	0.1827
353.4942	0.1845
353.7032	0.1809
353.9121	0.1801
354.1211	0.189
354.33	0.1873
354.5389	0.1747
354.7478	0.1818
354.9567	0.1884
355.1655	0.1874
355.3744	0.1844
355.5833	0.1819
355.7921	0.1936
356.0009	0.1818
356.2097	0.1854
356.4185	0.1834
356.6273	0.1872
356.8361	0.1893
357.0448	0.1883
357.2536	0.1851
357.4623	0.1912
357.671	0.1876
357.8797	0.1897
358.0884	0.1822
358.2971	0.1948
358.5057	0.192
358.7144	0.1903
358.923	0.196
359.1316	0.1951
359.3402	0.1989
359.5488	0.1843
359.7574	0.2022
359.966	0.1973
360.1746	0.1943
360.3831	0.2061
360.5916	0.2043
360.8002	0.2081
361.0087	0.2033
361.2172	0.2
361.4256	0.1986
361.6341	0.2042
361.8426	0.2069
362.051	0.2076
362.2594	0.2019
362.4678	0.2037
362.6762	0.2166
362.8846	0.2067
363.093	0.2089
363.3014	0.2115
363.5097	0.207
363.718	0.2126
363.9264	0.2133
364.1347	0.2138
364.343	0.2221
364.5513	0.2203
364.7595	0.2264
364.9678	0.2169
365.176	0.2235
365.3842	0.2183
365.5925	0.2194
365.8007	0.2263
366.0089	0.2214
366.217	0.2205
366.4252	0.2236
366.6333	0.2298
366.8415	0.231
367.0496	0.218
367.2577	0.2294
367.4658	0.2311
367.6739	0.2259
367.882	0.2313
368.09	0.2255
368.2981	0.2386
368.5061	0.2325
368.7141	0.2248
368.9221	0.239
369.1301	0.2356
369.3381	0.2353
369.5461	0.2441
369.754	0.2402
369.962	0.2395
370.1699	0.2419
370.3778	0.2511
370.5857	0.2475
370.7936	0.253
371.0015	0.2379
371.2093	0.2424
371.4172	0.2367
371.625	0.2374
371.8328	0.2354
372.0406	0.2506
372.2484	0.2422
372.4562	0.2507
372.664	0.2506
372.8717	0.2541
373.0795	0.2577
373.2872	0.2605
373.4949	0.2584
373.7026	0.254
373.9103	0.2496
374.118	0.253
374.3256	0.2575
374.5333	0.2609
374.7409	0.2557
374.9485	0.2546
375.1561	0.2526
375.3637	0.2601
375.5713	0.263
375.7789	0.2535
375.9864	0.2556
376.194	0.2688
376.4015	0.2628
376.609	0.2541
376.8165	0.2673
377.024	0.2653
377.2315	0.2667
377.4389	0.2584
377.6464	0.2667
377.8538	0.268
378.0612	0.267
378.2686	0.2674
378.476	0.2759
378.6834	0.2684
378.8908	0.2777
379.0981	0.2716
379.3055	0.2658
379.5128	0.2609
379.7201	0.2786
379.9274	0.2776
380.1347	0.2627
380.342	0.286
380.5492	0.2802
380.7565	0.2786
380.9637	0.284
381.1709	0.2794
381.3781	0.2689
381.5853	0.2737
381.7925	0.2713
381.9997	0.2742
382.2068	0.2864
382.4139	0.2834
382.6211	0.2873
382.8282	0.288
383.0353	0.289
383.2424	0.277
383.4494	0.285
383.6565	0.2886
383.8635	0.2871
384.0706	0.2861
384.2776	0.2792
384.4846	0.288
384.6916	0.2797
384.8986	0.2892
385.1055	0.292
385.3125	0.2916
385.5194	0.2885
385.7263	0.2838
385.9333	0.293
386.1402	0.2825
386.347	0.2791
386.5539	0.2973
386.7608	0.2917
386.9676	0.2881
387.1744	0.2822
387.3813	0.2852
387.5881	0.2815
387.7948	0.2891
388.0016	0.2877
388.2084	0.2795
388.4151	0.2806
388.6219	0.2749
388.8286	0.2789
389.0353	0.285
389.242	0.2793
389.4487	0.2814
389.6553	0.2699
389.862	0.279
390.0686	0.2849
390.2753	0.2773
390.4819	0.2808
390.6885	0.2773
390.8951	0.2774
391.1016	0.2759
391.3082	0.276
391.5147	0.2709
391.7213	0.2769
391.9278	0.2728
392.1343	0.2823
392.3408	0.2728
392.5473	0.2707
392.7537	0.2698
392.9602	0.2599
393.1666	0.265
393.373	0.2653
393.5794	0.2646
393.7858	0.2687
393.9922	0.2605
394.1986	0.2644
394.4049	0.268
394.6113	0.2552
394.8176	0.2671
395.0239	0.2437
395.2302	0.2526
395.4365	0.2604
395.6428	0.2603
395.8491	0.2488
396.0553	0.2454
396.2615	0.2517
396.4678	0.2523
396.674	0.2494
396.8802	0.2565
397.0863	0.2472
397.2925	0.2526
397.4987	0.2481
397.7048	0.2578
397.9109	0.2487
398.117	0.2498
398.3231	0.2481
398.5292	0.2357
398.7353	0.2393
398.9413	0.2461
399.1474	0.2486
399.3534	0.2477
399.5594	0.2481
399.7654	0.2442
399.9714	0.2485
400.1774	0.2364
400.3833	0.249
400.5893	0.247
400.7952	0.2464
401.0011	0.2359
401.207	0.2442
401.4129	0.2463
401.6188	0.2387
401.8247	0.2426
402.0305	0.2414
402.2364	0.2445
402.4422	0.2414
402.648	0.2453
402.8538	0.2459
403.0596	0.2457
403.2654	0.2436
403.4711	0.2505
403.6768	0.2398
403.8826	0.2451
404.0883	0.2505
404.294	0.2446
404.4997	0.2438
404.7054	0.2518
404.911	0.2375
405.1167	0.2449
405.3223	0.2429
405.5279	0.2419
405.7335	0.2475
405.9391	0.2412
406.1447	0.2483
406.3502	0.2385
406.5558	0.2372
406.7613	0.2407
406.9668	0.24
407.1724	0.2432
407.3778	0.2429
407.5833	0.2367
407.7888	0.242
407.9942	0.2378
408.1997	0.2439
408.4051	0.248
408.6105	0.2427
408.8159	0.2389
409.0213	0.2523
409.2267	0.2448
409.432	0.2381
409.6374	0.2439
409.8427	0.2489
410.048	0.2417
410.2533	0.2328
410.4586	0.2353
410.6639	0.2418
410.8691	0.2395
411.0744	0.2505
411.2796	0.2375
411.4848	0.2495
411.69	0.2363
411.8952	0.2428
412.1004	0.2454
412.3056	0.2269
412.5107	0.2403
412.7158	0.2467
412.921	0.2383
413.1261	0.2356
413.3312	0.2361
413.5362	0.2454
413.7413	0.2396
413.9464	0.229
414.1514	0.2341
414.3564	0.2305
414.5614	0.2394
414.7664	0.229
414.9714	0.2346
415.1764	0.2331
415.3813	0.2336
415.5863	0.2295
415.7912	0.2349
415.9961	0.2349
416.201	0.2464
416.4059	0.2339
416.6108	0.2335
416.8156	0.2337
417.0205	0.227
417.2253	0.2359
417.4301	0.2372
417.6349	0.231
417.8397	0.2215
418.0445	0.223
418.2492	0.2314
418.454	0.2232
418.6587	0.2336
418.8634	0.2316
419.0681	0.2286
419.2728	0.2234
419.4775	0.2445
419.6822	0.2282
419.8868	0.227
420.0915	0.2294
420.2961	0.2202
420.5007	0.2301
420.7053	0.2253
420.9099	0.2326
421.1144	0.2159
421.319	0.2176
421.5235	0.2155
421.728	0.2276
421.9325	0.2262
422.137	0.2203
422.3415	0.2191
422.546	0.2136
422.7504	0.2073
422.9549	0.2241
423.1593	0.2117
423.3637	0.2099
423.5681	0.2235
423.7725	0.2175
423.9769	0.2245
424.1812	0.2029
424.3856	0.2144
424.5899	0.2127
424.7942	0.2044
424.9985	0.2077
425.2028	0.2081
425.4071	0.2127
425.6113	0.2065
425.8156	0.21
426.0198	0.2068
426.224	0.2016
426.4282	0.1961
426.6324	0.2031
426.8366	0.2061
427.0407	0.1967
427.2449	0.1844
427.449	0.2066
427.6531	0.2011
427.8572	0.1987
428.0613	0.1991
428.2654	0.1938
428.4694	0.1813
428.6735	0.1875
428.8775	0.1849
429.0815	0.1848
429.2855	0.1862
429.4895	0.1813
429.6935	0.1793
429.8975	0.1782
430.1014	0.1746
430.3053	0.1925
430.5093	0.1836
430.7132	0.1755
430.9171	0.1739
431.1209	0.1699
431.3248	0.1634
431.5286	0.1648
431.7325	0.1743
431.9363	0.1589
432.1401	0.1617
432.3439	0.1649
432.5477	0.1639
432.7514	0.1603
432.9552	0.159
433.1589	0.1451
433.3627	0.1558
433.5664	0.1526
433.7701	0.1552
433.9737	0.1529
434.1774	0.1603
434.3811	0.1458
434.5847	0.147
434.7883	0.1466
434.9919	0.1388
435.1955	0.1493
435.3991	0.1436
435.6027	0.1409
435.8062	0.1622
436.0098	0.1317
436.2133	0.1324
436.4168	0.133
436.6203	0.1215
436.8238	0.1376
437.0272	0.1278
437.2307	0.1303
437.4341	0.1232
437.6375	0.1282
437.841	0.1145
438.0443	0.1226
438.2477	0.1158
438.4511	0.1043
438.6545	0.1168
438.8578	0.1091
439.0611	0.1202
439.2644	0.1198
439.4677	0.1098
439.671	0.1097
439.8743	0.1122
440.0775	0.1076
440.2808	0.1049
440.484	0.1022
440.6872	0.1062
440.8904	0.1027
441.0936	0.0938
441.2967	0.0926
441.4999	0.0872
441.703	0.0955
441.9062	0.0902
442.1093	0.0988
442.3124	0.0917
442.5155	0.0905
442.7185	0.0866
442.9216	0.0838
443.1246	0.0856
443.3276	0.0835
443.5307	0.0816
443.7337	0.0823
443.9366	0.0775
444.1396	0.076
444.3426	0.0717
444.5455	0.0832
444.7484	0.0725
444.9513	0.0731
445.1542	0.0734
445.3571	0.0733
445.56	0.0629
445.7628	0.073
445.9657	0.0743
446.1685	0.064
446.3713	0.0713
446.5741	0.0668
446.7769	0.0606
446.9797	0.0642
447.1824	0.0593
447.3852	0.0455
447.5879	0.062
447.7906	0.0574
447.9933	0.056
448.196	0.0478
448.3986	0.0517
448.6013	0.0497
448.8039	0.0553
449.0066	0.0522
449.2092	0.0569
449.4118	0.0523
449.6143	0.0515
449.8169	0.0469
450.0195	0.0541
450.222	0.0509
450.4245	0.0526
450.627	0.0406
450.8295	0.0473
451.032	0.0467
451.2345	0.0354
451.4369	0.0451
451.6394	0.0443
451.8418	0.0366
452.0442	0.0438
452.2466	0.0344
452.449	0.0407
452.6513	0.0281
452.8537	0.028
453.056	0.0372
453.2583	0.0346
453.4607	0.0256
453.663	0.0378
453.8652	0.0322
454.0675	0.0379
454.2697	0.0253
454.472	0.0334
454.6742	0.0318
454.8764	0.0371
455.0786	0.0246
455.2808	0.0214
455.4829	0.0339
455.6851	0.0209
455.8872	0.0223
456.0893	0.0293
456.2915	0.0214
456.4935	0.0315
456.6956	0.0268
456.8977	0.0257
457.0997	0.0303
457.3018	0.0193
457.5038	0.0287
457.7058	0.0231
457.9078	0.0272
458.1098	0.0279
458.3117	0.0303
458.5137	0.0136
458.7156	0.0194
458.9175	0.0255
459.1194	0.02
459.3213	0.023
459.5232	0.0195
459.725	0.0218
459.9269	0.0143
460.1287	0.0202
460.3305	0.0271
460.5323	0.0155
460.7341	0.0235
460.9359	0.0093
461.1376	0.0251
461.3394	0.0226
461.5411	0.0188
461.7428	0.015
461.9445	0.0055
462.1462	0.015
462.3479	0.0106
462.5495	0.0191
462.7512	0.0225
462.9528	0.0201
463.1544	0.0111
463.356	0.003
463.5576	0.0262
463.7592	0.0104
463.9607	0.0154
464.1623	0.0105
464.3638	0.0061
464.5653	0.0099
464.7668	0.0132
464.9683	0.0064
465.1697	0.0107
465.3712	0.0033
465.5726	0.0083
465.7741	0.0137
465.9755	0.0185
466.1769	0.0053
466.3782	0.0073
466.5796	0.0165
466.7809	0.0181
466.9823	0.0166
467.1836	0.0141
467.3849	0.0084
467.5862	0.0111
467.7875	0.0074
467.9887	0.0127
468.19	0.0154
468.3912	0.0172
468.5924	0.007
468.7936	0.0115
468.9948	0.0062
469.196	0.009
469.3972	0.0077
469.5983	0.0039
469.7994	0.0079
470.0006	0.0081
470.2017	0.0128
470.4027	0.0274
470.6038	0.0102
470.8049	0.0142
471.0059	0.008
471.2069	0.013
471.408	0.0226
471.6089	0.0131
471.8099	0.0136
472.0109	0.0086
472.2119	0.02
472.4128	0.0112
472.6137	0.0078
472.8146	0.0099
473.0155	0.0148
473.2164	0.0104
473.4173	0.011
473.6181	0.0025
473.819	0.0154
474.0198	0.0081
474.2206	-0.0007
474.4214	0.0069
474.6222	-0.007
474.8229	0.0014
475.0237	0.0148
475.2244	0.0118
475.4251	0.0052
475.6258	0
475.8265	0.0111
476.0272	0
476.2278	0.0077
476.4285	0.0163
476.6291	0.0091
476.8297	0.0047
477.0303	0.001
477.2309	0.0045
477.4315	0.006
477.632	0.0031
477.8326	0.0064
478.0331	0.0042
478.2336	0.0065
478.4341	0.0098
478.6346	0.0041
478.8351	0.0082
479.0355	0.0113
479.236	0.0158
479.4364	0.0086
479.6368	0.0112
479.8372	0.0069
480.0376	0.0089
480.2379	0.0136
480.4383	0.0114
480.6386	0.0028
480.8389	0.0035
481.0392	0.0029
481.2395	0.0077
481.4398	0.0072
481.6401	0.0135
481.8403	0.006
482.0405	0.0071
482.2408	0.0041
482.441	0.0096
482.6411	0.0115
482.8413	-0.0001
483.0415	0.0133
483.2416	0.0046
483.4417	0.0042
483.6419	-0.0015
483.8419	0.0067
484.042	0.0028
484.2421	-0.0011
484.4422	0.0064
484.6422	0.0072
484.8422	0.0086
485.0422	0.0042
485.2422	0.0042
485.4422	0.0039
485.6422	0.0018
485.8421	0.0032
486.042	0.0114
486.242	0.002
486.4419	0.0044
486.6417	0.0022
486.8416	0.0058
487.0415	0.0034
487.2413	-0.0072
487.4411	0.008
487.641	0.0036
487.8408	0.008
488.0405	0.0122
488.2403	0.0018
488.4401	0.0036
488.6398	0.0104
488.8395	0.0044
489.0392	0.0062
489.2389	0.0112
489.4386	-0.0042
489.6383	0.012
489.8379	-0.0014
490.0376	0.0056
490.2372	-0.0032
490.4368	0.0011
490.6364	0.0039
490.836	0.0087
491.0355	-0.0045
491.2351	0.0037
491.4346	0.0028
491.6341	0.0082
491.8336	0.013
492.0331	0.0066
492.2326	0.0073
492.432	0.0085
492.6315	0.0095
492.8309	0.0141
493.0303	0.0026
493.2297	0.0105
493.4291	0.0026
493.6284	0.0154
493.8278	0.0027
494.0271	0.0142
494.2264	-0.0005
494.4257	0.0099
494.625	0.0082
494.8243	-0.0005
495.0236	0.0143
495.2228	0.019
495.422	0.0099
495.6213	0.0047
495.8205	0.0123
496.0196	0.0084
496.2188	0.0013
496.418	0.0007
496.6171	0.0014
496.8162	0.0092
497.0153	0.0167
497.2144	0.008
497.4135	0.0046
497.6126	0.0018
497.8116	0.0002
498.0107	-0.0005
498.2097	0.0062
498.4087	0.0056
498.6077	-0.0008
498.8067	0.005
499.0056	0.0033
499.2046	0.0069
499.4035	0.0044
499.6024	-0.0016
499.8013	0.009
500.0002	0.0071
500.199	0.0114
500.3979	-0.0003
500.5967	0.0016
500.7956	0.0055
500.9944	0.0083
501.1932	0.0119
501.3919	0.0119
501.5907	0.0124
501.7895	0.0054
501.9882	0.0065
502.1869	0.0139
502.3856	0.0049
502.5843	0.0019
502.783	0.0038
502.9816	0.0086
503.1803	0.0078
503.3789	0.0166
503.5775	0.0002
503.7761	0.0078
503.9747	0.0074
504.1732	-0.0001
504.3718	0.0188
504.5703	0.0096
504.7689	-0.003
504.9674	0.0016
505.1658	0.0081
505.3643	0.0111
505.5628	0.0069
505.7612	0.0032
505.9597	-0.0044
506.1581	0.0002
506.3565	0.0015
506.5549	0.0058
506.7532	-0.0012
506.9516	0.0037
507.1499	0.0108
507.3482	0.0049
507.5465	0.0095
507.7448	0.0074
507.9431	0.0078
508.1414	0.0013
508.3396	0.0009
508.5379	0.0053
508.7361	0.0112
508.9343	0.0075
509.1325	0.0193
509.3306	0.0041
509.5288	-0.0033
509.7269	0.0088
509.9251	0.0172
510.1232	0.0047
510.3213	0.0119
510.5193	0.0082
510.7174	0.0079
510.9154	0.0104
511.1135	0.0075
511.3115	0.0085
511.5095	-0.0042
511.7075	0.0064
511.9055	-0
512.1034	-0.0004
512.3014	0.0052
512.4993	0.0162
512.6972	0.0005
512.8951	0.0103
513.093	0.011
513.2908	0.0124
513.4887	-0.0013
513.6865	0.0068
513.8844	0.0102
514.0822	0.0027
514.2799	-0.0008
514.4777	0.0009
514.6755	-0.0006
514.8732	0.0068
515.0709	0.0045
515.2687	0.0014
515.4664	0.0087
515.664	0.0162
515.8617	0.0032
516.0594	0.0089
516.257	0.0057
516.4546	0.0238
516.6522	0.0061
516.8498	0.0005
517.0474	0.005
517.2449	0.0015
517.4425	0.005
517.64	0.0071
517.8375	0.0088
518.035	0.0011
518.2325	0.0096
518.43	0.0084
518.6274	0.0001
518.8249	0.0039
519.0223	0.0103
519.2197	0.0061
519.4171	-0.0111
519.6145	0.0043
519.8118	-0.0031
520.0092	0.0014
520.2065	0.0101
520.4038	-0.0028
520.6011	0.0163
520.7984	0.0112
520.9956	0.0002
521.1929	0.0117
521.3901	0.0017
521.5874	0.0158
521.7846	0.0047
521.9818	0.0002
522.1789	0.01
522.3761	0.0153
522.5732	0.0085
522.7704	0.0019
522.9675	-0.0015
523.1646	0.0087
523.3617	0.0111
523.5587	0.0028
523.7558	0.0091
523.9528	0.0096
524.1498	0.0053
524.3468	0.003
524.5438	0.0086
524.7408	-0.0038
524.9378	0.0137
525.1347	0.0083
525.3316	0.0047
525.5285	-0.0002
525.7254	0.0085
525.9223	0.0176
526.1192	0.0113
526.316	0.0156
526.5129	0.0038
526.7097	-0.0052
526.9065	0.0192
527.1033	0.0062
527.3	0.0011
527.4968	0.0133
527.6935	-0.0072
527.8903	-0.0057
528.087	0.0094
528.2837	0.0087
528.4804	0.0053
528.677	0.005
528.8737	-0.0036
529.0703	0.0135
529.2669	0.0116
529.4635	0.0038
529.6601	-0.0021
529.8567	0.0065
530.0532	0.0109
530.2498	-0.0028
530.4463	-0.0103
530.6428	0.0053
530.8393	0.0188
531.0358	0.0044
531.2322	-0.0033
531.4287	0.0077
531.6251	-0.0081
531.8215	0.0045
532.0179	0.0119
532.2143	0.0124
532.4107	0.0107
532.607	0.0045
532.8034	0.0017
532.9997	0.0071
533.196	-0.0006
533.3923	0.0083
533.5886	0.0125
533.7848	-0.0009
533.9811	0.0129
534.1773	0.0072
534.3735	0.0033
534.5697	0.0087
534.7659	0.0065
534.9621	0.0052
535.1582	0.0078
535.3544	0.0097
535.5505	0.01
535.7466	0.0042
535.9427	0.0019
536.1387	0.0011
536.3348	0.0043
536.5308	0.0039
536.7269	0.0101
536.9229	0.0042
537.1189	0.01
537.3148	0.0013
537.5108	0.0089
537.7068	0.0161
537.9027	-0.0034
538.0986	0.0101
538.2945	0.0098
538.4904	-0
538.6863	0.0044
538.8821	0.0168
539.078	0.0084
539.2738	0.0104
539.4696	0.0044
539.6654	0.0036
539.8611	0.0028
540.0569	0.0041
540.2526	0.0035
540.4484	-0.006
540.6441	0.0107
540.8398	0.0149
541.0355	0.0094
541.2311	0.002
541.4268	0.0075
541.6224	0.01
541.818	0.0038
542.0136	0.0088
542.2092	0.0135
542.4048	0.0115
542.6003	0.0014
542.7959	0.0068
542.9914	0.0121
543.1869	0.0096
543.3824	0.0045
543.5779	0.0128
543.7734	0.0148
543.9688	0.0094
544.1642	0.0028
544.3596	0.0115
544.555	0.0036
544.7504	0.0098
544.9458	0.002
545.1411	0.0088
545.3365	0.0022
545.5318	0.0075
545.7271	0.0151
545.9224	0.0086
546.1177	0.0051
546.3129	0.0019
546.5081	0.0074
546.7034	0.0083
546.8986	0.0005
547.0938	0.0112
547.289	0.0113
547.4841	0.0107
547.6793	-0.0009
547.8744	0.003
548.0695	-0.0007
548.2646	0.0026
548.4597	-0.0005
548.6548	0.0114
548.8498	0.0056
549.0448	-0.003
549.2399	0.0028
549.4349	0.0016
549.6298	0.0152
549.8248	-0.0018
550.0198	-0
550.2147	0.012
550.4096	0.0032
550.6045	-0.0047
550.7994	0.0095
550.9943	0.0005
551.1892	-0.0086
551.384	0.0138
551.5788	0.0083
551.7737	0.0084
551.9685	0.005
552.1632	0.0008
552.358	-0.0004
552.5528	0.0172
552.7475	0.0065
552.9422	0.0057
553.1369	0.0035
553.3316	0.0108
553.5263	0.0138
553.7209	0.005
553.9156	0.001
554.1102	0.0109
554.3048	0.0071
554.4994	0.0022
554.694	0.0007
554.8885	0.007
555.0831	0.0175
555.2776	0.0084
555.4721	0.0043
555.6666	-0.0003
555.8611	0.0154
556.0555	0.0019
556.25	0.0028
556.4444	0.005
556.6388	-0.0036
556.8332	0.005
557.0276	0.0064
557.222	-0.001
557.4163	0.0077
557.6107	-0.0098
557.805	-0.0092
557.9993	0.0085
558.1936	-0.0057
558.3879	0.0033
558.5821	0.0012
558.7764	-0.0022
558.9706	0.0044
559.1648	0.0116
559.359	0.008
559.5532	0.0118
559.7473	0.0029
559.9415	0.0051
560.1356	0.0058
560.3297	-0.0003
560.5238	0.011
560.7179	0.0039
560.9119	0.0045
561.106	-0.0033
561.3	0.012
561.494	-0.0063
561.688	0.0046
561.882	0.0063
562.076	0.0135
562.2699	0.0112
562.4639	0.0223
562.6578	0.0178
562.8517	0.0109
563.0456	0.0068
563.2395	0.0111
563.4333	0.0092
563.6272	0.003
563.821	0.015
564.0148	0.0047
564.2086	0.0083
564.4024	0.0091
564.5961	0.0038
564.7899	0.0085
564.9836	-0.0028
565.1773	0.0097
565.371	0.0034
565.5647	0.0015
565.7584	0.0152
565.952	0.0003
566.1456	0.0102
566.3393	0.0038
566.5329	0.0111
566.7264	0.0097
566.92	-0.0055
567.1136	0.0021
567.3071	-0.0009
567.5006	0.0073
567.6941	0.0051
567.8876	0.0037
568.0811	0.0193
568.2745	-0.0053
568.468	0.0074
568.6614	0.0033
568.8548	0.0094
569.0482	0.0077
569.2416	0.0115
569.4349	0.0082
569.6283	0.0064
569.8216	0.0024
570.0149	0.0024
570.2082	0.0116
570.4015	0.0046
570.5947	0.0058
570.788	0.0076
570.9812	0.0035
571.1744	0.0115
571.3676	0.006
571.5608	0.0036
571.754	0.0068
571.9471	0.0063
572.1402	0.0031
572.3333	0.0065
572.5264	0.0057
572.7195	0.0022
572.9126	0.0034
573.1057	0.0052
573.2987	0.0001
573.4917	0.0023
573.6847	0.0013
573.8777	0.0093
574.0707	0.0071
574.2636	0.0069
574.4566	0.0007
574.6495	0.0079
574.8424	0.0043
575.0353	0.0099
575.2281	0.0103
575.421	0.0033
575.6138	0.0012
575.8067	0.0085
575.9995	0.0016
576.1923	0.0088
576.385	0.006
576.5778	0.0107
576.7706	0.0032
576.9633	0.0053
577.156	0.0008
577.3487	0.0034
577.5414	0.0008
577.734	0.0027
577.9267	0.0108
578.1193	0.0071
578.3119	0.0037
578.5045	0.0067
578.6971	0.0014
578.8897	0.0026
579.0822	0.0064
579.2747	0.0029
579.4673	0.0034
579.6598	0.0084
579.8522	0.0031
580.0447	0.0056
580.2372	0.0076
580.4296	0.0087
580.622	0.0052
580.8144	0.002
581.0068	0.0043
581.1992	0.0054
581.3915	0.0001
581.5839	0.0039
581.7762	0.001
581.9685	0.0039
582.1608	0.0009
582.353	0.005
582.5453	0.0074
582.7375	0.0075
582.9298	0.0041
583.122	0.0006
583.3142	0.0068
583.5063	0.003
583.6985	0.003
583.8906	0.0048
584.0827	0.0029
584.2749	0.0059
584.4669	0.0093
584.659	0.0084
584.8511	0.0093
585.0431	0.008
585.2352	0.0002
585.4272	0.0042
585.6192	0.0075
585.8111	0.0003
586.0031	0.0007
586.195	0.0017
586.387	0.0004
586.5789	0.0082
586.7708	0.0037
586.9627	0.0024
587.1545	0.0061
587.3464	0.0083
587.5382	0.0034
587.73	0.0084
587.9218	0.0048
588.1136	0.0052
588.3053	0.003
588.4971	0.0038
588.6888	0.0032
588.8805	0.0019
589.0722	0.0098
589.2639	0.0045
589.4556	0.0079
589.6472	0.0046
589.8389	0.0079
590.0305	0.0007
590.2221	0.0071
590.4137	0.0042
590.6052	0.0068
590.7968	0.0112
590.9883	0.0087
591.1798	0.0119
591.3713	0.002
591.5628	0.0018
591.7543	0.0036
591.9458	0.0036
592.1372	0.0052
592.3286	0.003
592.52	0.0069
592.7114	0.0032
592.9028	0.0076
593.0941	0.0003
593.2855	0.0015
593.4768	0.0124
593.6681	0.0035
593.8594	0.0081
594.0506	0.0059
594.2419	0.0047
594.4331	0.0099
594.6244	-0.0007
594.8156	-0.0009
595.0067	0.0006
595.1979	0.0052
595.3891	0.0027
595.5802	0.0086
595.7713	0.0038
595.9624	0.0117
596.1535	0.0044
596.3446	-0
596.5357	0.0128
596.7267	-0.0053
596.9177	0.006
597.1087	-0.0003
597.2997	0.0096
597.4907	0.0048
597.6817	0.0045
597.8726	0.0069
598.0635	-0.0057
598.2544	0.0073
598.4453	0.0035
598.6362	0.0073
598.827	0.0067
599.0179	0.0047
599.2087	0.0104
599.3995	0.005
599.5903	0.0111
599.7811	0.015
599.9718	0.0012
600.1626	0.0008
600.3533	0.003
600.544	0.0073
600.7347	0.0054
600.9254	0.0115
601.116	0.0008
601.3067	0.0082
601.4973	0.0062
601.6879	0.0116
601.8785	0.009
602.0691	0.0045
602.2596	0.0013
602.4502	0.0099
602.6407	0.0091
602.8312	0.0081
603.0217	0.0066
603.2122	0.0082
603.4027	0.0037
603.5931	-0.0004
603.7835	0.0078
603.9739	0.0024
604.1643	0.0078
604.3547	0.0127
604.5451	0.0113
604.7354	-0.0003
604.9257	0.0023
605.116	0.0004
605.3063	0.0065
605.4966	0.0011
605.6869	0.0079
605.8771	0.0068
606.0673	0.0031
606.2575	0.0037
606.4477	0.0029
606.6379	0.0022
606.8281	0.0008
607.0182	0.0034
607.2083	0.0052
607.3985	0.0067
607.5885	0.0125
607.7786	0.0108
607.9687	0.0087
608.1587	0.0058
608.3488	0.006
608.5388	-0.0005
608.7288	0.0018
608.9187	0.0084
609.1087	0.0106
609.2986	0.0114
609.4886	0.0022
609.6785	0.0032
609.8684	-0.0056
610.0582	0.0036
610.2481	0.0023
610.4379	-0.0014
610.6278	0.01
610.8176	0.0128
611.0074	0.0052
611.1971	0.0066
611.3869	0.0069
611.5766	-0.0045
611.7664	0.0098
611.9561	0.0107
612.1458	0.004
612.3354	0.0026
612.5251	0.001
612.7147	0.0096
612.9044	0.0029
613.094	0.0119
613.2836	0.0064
613.4731	0.0081
613.6627	0.004
613.8522	0.0046
614.0417	0.0065
614.2313	0.0043
614.4207	0.0062
614.6102	0.0026
614.7997	0.0104
614.9891	0.0078
615.1785	-0.0006
615.3679	0.0089
615.5573	0.0127
615.7467	-0.0025
615.9361	0.0062
616.1254	0.0065
616.3147	0.0086
616.504	0.0065
616.6933	0.006
616.8826	0.0068
617.0718	0.0071
617.2611	0.0046
617.4503	0.0033
617.6395	0.0014
617.8287	0.0125
618.0179	0.0048
618.207	0.0158
618.3961	-0.001
618.5853	0.0053
618.7744	0.0056
618.9634	0.0177
619.1525	0.0049
619.3416	-0.0015
619.5306	0.0088
619.7196	0.0066
619.9086	0.0091
620.0976	-0.0066
620.2866	0.0074
620.4755	-0.0018
620.6645	0.0156
620.8534	0.0208
621.0423	0.0144
621.2312	0.0007
621.42	0.0048
621.6089	0.0003
621.7977	0.0144
621.9865	0.0038
622.1753	-0.003
622.3641	-0.0104
622.5529	-0.007
622.7416	0.0022
622.9303	-0.0001
623.1191	-0.0021
623.3078	0.0112
623.4964	0.003
623.6851	0.0042
623.8737	0.0051
624.0624	-0.0064
624.251	0.0023
624.4396	0.0027
624.6282	0.0185
624.8167	-0.0079
625.0053	0.0055
625.1938	0.0042
625.3823	0.0124
625.5708	-0.0044
625.7593	-0.0059
625.9477	0.0106
626.1362	-0.0084
626.3246	0.0052
626.513	0.0081
626.7014	0.0191
626.8898	0.0114
627.0781	0.0014
627.2665	0.0085
627.4548	-0.0016
627.6431	0.0135
627.8314	0.0212
628.0197	0.0135
628.2079	0.0071
628.3962	0.0072
628.5844	0.0173
628.7726	0.0032
628.9608	0.0077
629.1489	0.0165
629.3371	-0.0046
629.5252	0.0031
629.7134	-0.0002
629.9015	0.0051
630.0895	-0.0093
630.2776	0.0037
630.4657	0.0133
630.6537	0.0122
630.8417	-0.0033
631.0297	0.0056
631.2177	0.0111
631.4057	0.0154
631.5936	0.0033
631.7815	0.0079
631.9695	0.0168
632.1574	0.0088
632.3452	0.0041
632.5331	0.0105
632.7209	0.0185
632.9088	0.0188
633.0966	0.035
633.2844	0.0163
633.4722	0.003
633.6599	0.0038
633.8477	0.0112
634.0354	0.0084
634.2231	-0.0134
634.4108	0.0107
634.5985	0.0165
634.7861	0.0149
634.9738	-0.0013
635.1614	0.0097
635.349	-0.0005
635.5366	0.0028
635.7242	0.0133
635.9117	0.0123
636.0993	0.012
636.2868	-0.0052
636.4743	0.0077
636.6618	-0.0085
636.8492	-0.0035
637.0367	-0.0051
637.2241	0.0223
637.4115	0.0265
637.5989	0.0128
637.7863	0.0226
637.9737	-0.0019
638.161	0.0127
638.3484	0.0005
638.5357	0.0116
638.723	0.0129
638.9103	0.0081
639.0975	-0.0138
639.2848	0.0102
639.472	0.0141
639.6592	0.0146
639.8464	-0.0124
640.0336	0.0038
640.2208	0.0045
640.4079	-0.0105
640.595	0.0014
640.7821	0.0245
640.9692	0.0031
641.1563	0.0116
641.3434	-0.0025
641.5304	0.0248
641.7174	0.0041
641.9044	0.0138
642.0914	0.0325
642.2784	-0.0161
642.4653	0.002
642.6523	0.0212
642.8392	0.0017
643.0261	0.0068
643.213	0.0165
643.3999	0.0152
643.5867	0.0184
643.7735	-0.0061
643.9604	0.0052
644.1472	0.0082
644.3339	-0.0069
644.5207	0.0127
644.7075	0.0167
644.8942	-0.0003
645.0809	0.0116
645.2676	0.0009
645.4543	0.0058
645.6409	0.0334
645.8276	0.0046
646.0142	0.0029
646.2008	0.0035
646.3874	0.0114
646.574	-0.0035
646.7605	0.0128
646.9471	0.0131
647.1336	-0.0096
647.3201	0.0172
647.5066	-0.0033
647.6931	0.0055
647.8795	0.0192
648.0659	0.0021
648.2524	0.0161
648.4388	-0.0056
648.6252	0.0185
648.8115	0.0072
648.9979	0.0005
649.1842	0.0099
649.3705	0.0124
649.5568	-0.0091
649.7431	-0.0058
649.9294	0.0002
650.1156	-0.0051
650.3018	-0.0018
650.488	0.0125
650.6742	0.0081
650.8604	0.0181
651.0466	-0.0092
651.2327	0.0171
651.4188	0.0045
651.6049	0.029
651.791	-0.0031
651.9771	0.0133
652.1632	0.0045
652.3492	-0.0038
652.5352	0.0198
652.7212	0.0112
652.9072	-0.0023
653.0932	0.0122
653.2791	0.0152
653.465	0.0054
653.651	0.0074
653.8369	0.0198
654.0227	-0.0034
654.2086	0.0151
654.3944	0.026
654.5803	0.0064
654.7661	0.0042
654.9519	0.002
655.1377	0.0001
655.3234	0.0001
655.5092	0.0001
655.6949	0.0001
655.8806	0.0001
656.0663	0.0001
656.2519	0.0001
656.4376	0.0001
656.6232	0.0001
656.8088	0.0001
656.9945	0.0001
657.18	0.0001
657.3656	0.0001
657.5511	0.0001
657.7367	0.0001
657.9222	0.0001
658.1077	0.0001
658.2932	0.0001
658.4786	0.0001
658.6641	0.0001
658.8495	0.0001
659.0349	0.0001
659.2203	0.0001
659.4057	0.0001
659.591	0.1545
659.7764	0.0271
659.9617	-0.0013
660.147	0.0122
660.3323	0.0073
660.5176	0.0019
660.7028	-0.0116
660.888	0.0126
661.0733	0.0064
661.2585	-0.0277
661.4436	0.0021
661.6288	-0.013
661.8139	0.003
661.9991	-0.0059
662.1842	0.005
662.3693	0.0189
662.5544	0.001
662.7394	0.0071
662.9245	0.0167
663.1095	-0.0088
663.2945	-0.0156
663.4795	0.0079
663.6644	0.001
663.8494	0.0155
664.0343	0.027
664.2193	-0.0081
664.4042	0.0106
664.589	0.0051
664.7739	0.0029
664.9587	-0.0161
665.1436	-0.0382
665.3284	-0.0026
665.5132	-0.0279
665.698	0.0068
665.8827	0.013
666.0675	0.0121
666.2522	0.0138
666.4369	0.0052
666.6216	-0.0018
666.8063	0.0165
666.9909	0.0081
667.1756	0.0062
667.3602	-0.0024
667.5448	0.0101
667.7294	0.0185
667.9139	0.0044
668.0985	-0.0014
668.283	0.0099
668.4675	0.0222
668.652	0.023
668.8365	-0.0096
669.0209	-0.0042
669.2054	0.0031
669.3898	0.0063
669.5742	0.0325
669.7586	0.0072
669.943	-0.0019
670.1273	0.0044
670.3117	0.017
670.496	0.0347
670.6803	0.0055
670.8646	-0.0241
671.0488	0.0185
671.2331	-0.0044
671.4173	-0.0036
671.6015	0.0234
671.7857	0.0023
671.9699	0.0155
672.1541	-0.0053
672.3382	0.0145
672.5223	0.0074
672.7064	-0.0044
672.8905	-0.0016
673.0746	0.0177
673.2587	0.0036
673.4427	-0.0035
673.6267	0.0051
673.8107	0.0192
673.9947	0.0247
674.1787	0.0307
674.3626	-0.0004
674.5465	0.0076
674.7304	-0.0138
674.9143	-0.0223
675.0982	-0.0074
675.2821	-0.0049
675.4659	0.0083
675.6497	0.0231
675.8335	0.0133
676.0173	-0.0225
676.2011	0.02
676.3849	0.0321
676.5686	0.0249
676.7523	0.0233
676.936	-0.0054
677.1197	0.0099
677.3034	0.044
677.487	0.0002
677.6706	-0.0075
677.8542	0.0063
678.0378	0.0016
678.2214	0.0143
678.405	0.0016
678.5885	0.0094
678.772	0.0093
678.9555	0.0008
679.139	0.0177
679.3225	0.0161
679.5059	0.0034
679.6894	-0.0037
679.8728	-0.0015
680.0562	0.0029
680.2395	-0.0064
680.4229	0.0039
680.6062	-0.0156
680.7896	-0.0008
680.9729	0.0313
681.1562	0.0105
681.3394	0.0079
681.5227	0.013
681.7059	0.0079
681.8891	0.0157
682.0723	-0.0001
682.2555	0.02
682.4387	0.02
682.6218	-0.0029
682.805	0.0271
682.9881	-0.0009
683.1712	-0.0036
683.3542	0.0221
683.5373	0.0046
683.7203	-0.0025
683.9034	-0.0038
684.0864	-0.007
684.2694	0.0047
684.4523	0.0172
684.6353	-0.0044
684.8182	-0.0058
685.0011	0.0105
685.184	0.0099
685.3669	0.0204
685.5498	0.0077
685.7326	0.0116
685.9154	-0.0042
686.0982	0.0122
686.281	-0.0011
686.4638	0.0173
686.6465	0.0035
686.8293	-0.0138
687.012	0.0111
687.1947	0.0108
687.3774	0.0272
687.56	-0.0056
687.7427	-0.0071
687.9253	-0.0245
688.1079	0.0119
688.2905	-0.0093
688.4731	0.0109
688.6556	0.009
688.8382	-0.0197
689.0207	0.0282
689.2032	0.0282
689.3857	-0.009
689.5681	0.0041
689.7506	0.0276
689.933	-0.0047
690.1154	0.0244
690.2978	0.0027
690.4802	0.0101
690.6626	-0.0046
690.8449	0.0114
691.0272	0.0052
691.2095	-0.0205
691.3918	0.0004
691.5741	0.0129
691.7563	0.0134
691.9386	0.0262
692.1208	-0.0095
692.303	0.004
692.4852	-0.0099
692.6673	-0.0116
692.8495	-0.0008
693.0316	0.0153
693.2137	0.0026
693.3958	0.0113
693.5778	0.013
693.7599	0.0016
693.9419	-0.0168
694.1239	0.0058
694.3059	0.0162
694.4879	0.0059
694.6699	-0.0194
694.8518	0.018
695.0337	0.0106
695.2157	0.0372
695.3975	-0.0108
695.5794	-0.0118
695.7613	0.0345
695.9431	-0.0279
696.1249	0.0217
696.3067	-0.0063
696.4885	0.0172
696.6703	0.0083
696.852	-0.0059
697.0337	0.002
697.2154	0.0072
697.3971	0.0049
697.5788	0.011
697.7605	-0.0077
697.9421	0.0152
698.1237	0.0209
698.3053	-0.0165
698.4869	0.0124
698.6685	-0.011
698.85	0.0151
699.0315	-0.0267
699.213	0.0055
699.3945	-0.0035
699.576	0.0232
699.7575	0.0014
699.9389	-0.0173
700.1203	0.0104
700.3017	0.0118
700.4831	0.016
700.6645	0.0003
700.8458	-0.0191
701.0271	0.0425
701.2084	0.0182
701.3897	0.0197
701.571	-0.0293
701.7523	-0.0173
701.9335	0.0294
702.1147	0.0185
702.2959	-0.004
702.4771	-0.001
702.6583	0.014
702.8394	-0.013
703.0205	0.0133
703.2016	-0.016
703.3827	-0.0039
703.5638	0.0149
703.7449	0.0429
703.9259	-0.0005
704.1069	-0.0166
704.2879	0.011
704.4689	0.011
704.6499	0.019
704.8308	0.0193
705.0117	0.0175
705.1927	-0.0006
705.3735	0.02
705.5544	-0.0019
705.7353	0.0183
705.9161	-0.0283
706.0969	0.0081
706.2777	0.0172
706.4585	0.0093
706.6393	0.0173
706.82	0.0067
707.0007	-0.0178
707.1815	0.0006
707.3621	0.021
707.5428	0.0191
707.7235	-0.0008
707.9041	0.0262
708.0847	0.0115
708.2653	0.0412
708.4459	0.0114
708.6265	0.0198
708.807	0.0143
708.9875	0.0106
709.168	0.0035
709.3485	0.0013
709.529	-0.0029
709.7095	-0.0049
709.8899	0.0108
710.0703	0.0274
710.2507	-0.0022
710.4311	-0.0096
710.6115	0.0169
710.7918	0.0045
710.9721	0.0191
711.1524	0.0108
711.3327	0.0188
711.513	-0.0173
711.6932	0.018
711.8735	0.0161
712.0537	-0.0086
712.2339	0.033
712.4141	0.0313
712.5942	-0.0158
712.7744	0.0103
712.9545	0.0178
713.1346	0.0092
713.3147	0.0093
713.4947	0.0013
713.6748	-0.0016
713.8548	0.0219
714.0348	-0.0033
714.2148	0.0302
714.3948	-0.0012
714.5748	0.0183
714.7547	0.0169
714.9346	0.0467
715.1145	0.0076
715.2944	0.001
715.4743	0.0153
715.6541	-0.0005
715.834	0.0422
716.0138	0.01
716.1936	0.0112
716.3733	-0.024
716.5531	0.0113
716.7328	0.0309
716.9126	0.0049
717.0923	-0.0087
717.2719	-0.0196
717.4516	-0.0064
717.6312	-0.0056
717.8109	0.0107
717.9905	0.0291
718.1701	0.0084
718.3496	-0.0083
718.5292	0.0044
718.7087	0.0112
718.8882	0.005
719.0677	0.0017
719.2472	-0.0008
719.4267	0.0033
719.6061	0.0218
719.7856	0.0396
719.965	0.0158
720.1443	-0.0017
720.3237	-0.0009
720.5031	-0.0129
720.6824	-0.0027
720.8617	-0.0071
721.041	0.0423
721.2203	-0.0033
721.3995	-0.0016
721.5788	0.0127
721.758	-0.0018
721.9372	0.0027
722.1164	0.0287
722.2956	0.0173
722.4747	0.003
722.6538	0.003
722.8329	0.0165
723.012	-0.0005
723.1911	0.0024
723.3702	0.012
723.5492	0.009
723.7282	-0.0136
723.9072	-0.0018
724.0862	0.0053
724.2652	0.0103
724.4441	0.0052
724.623	-0.0049
724.8019	0.0082
724.9808	-0.0125
725.1597	-0.0177
725.3385	0.0253
725.5174	0.0161
725.6962	0.0047
725.875	0.0283
726.0538	0.023
726.2325	0.022
726.4112	-0.0112
726.59	-0.019
726.7687	-0.0183
726.9474	0.0206
727.126	0.0064
727.3047	-0.0056
727.4833	0.0263
727.6619	0.0028
727.8405	-0.0055
728.0191	0.0136
728.1976	-0.0133
728.3762	0.0285
728.5547	-0.0154
728.7332	0.0079
728.9116	-0.0021
729.0901	-0.0131
729.2686	-0.0063
729.447	-0.0101
729.6254	0.0021
729.8038	-0.0069
729.9821	-0.0082
730.1605	0.0196
730.3388	0.0178
730.5171	0.0219
730.6954	-0.0108
730.8737	0.016
731.0519	0.0089
731.2302	0.0214
731.4084	0.0021
731.5866	-0.0004
731.7648	0.0011
731.9429	0.018
732.1211	0.0083
732.2992	-0.0195
732.4773	0.0051
732.6554	-0.0071
732.8335	0.0147
733.0115	0.0185
733.1896	0.0077
733.3676	0.0181
733.5456	-0.0066
733.7235	-0.0045
733.9015	0.0204
734.0794	0.0097
734.2574	-0.0335
734.4353	0.0153
734.6131	-0.0026
734.791	-0.007
734.9689	-0.0113
735.1467	-0.0134
735.3245	0.0253
735.5023	0.0076
735.68	0.0135
735.8578	0.0051
736.0355	0.0088
736.2132	0.0071
736.3909	0.0316
736.5686	-0.0073
736.7463	-0.0154
736.9239	0.02
737.1015	0.0168
737.2791	0.0118
737.4567	-0.0054
737.6343	-0.004
737.8118	0.0208
737.9894	-0.0335
738.1669	-0.0037
738.3444	0.0317
738.5218	-0.009
738.6993	0.0123
738.8767	0.0206
739.0541	-0.005
739.2315	0.0109
739.4089	0.0199
739.5863	0.0057
739.7636	0.0115
739.9409	-0.0196
740.1182	0.0108
740.2955	0.0189
740.4728	-0.0104
740.65	0.005
740.8272	0.0179
741.0044	-0.0193
741.1816	0.0174
741.3588	-0.006
741.5359	-0.0085
741.7131	0.0129
741.8902	0.0061
742.0673	-0.005
742.2444	0.0288
742.4214	-0.0046
742.5985	-0.0038
742.7755	0.0275
742.9525	-0.0294
743.1295	-0.0241
743.3064	0.0203
743.4834	0.0039
743.6603	0.0598
743.8372	-0.0179
744.0141	0.0374
744.191	0.0195
744.3678	-0.0335
744.5446	0.0058
744.7215	0.0098
744.8982	-0.0006
745.075	0.0425
745.2518	0.0058
745.4285	0.03
745.6052	-0.0001
745.7819	0.0328
745.9586	0.016
746.1353	-0.0032
746.3119	0.0245
746.4885	0.0149
746.6651	0.0161
746.8417	0.002
747.0183	0.032
747.1948	-0.0074
747.3714	0.007
747.5479	0.0116
747.7244	-0.0046
747.9008	-0.0313
748.0773	0.0522
748.2537	0.0065
748.4301	0.0162
748.6065	-0.0068
748.7829	-0.0051
748.9593	-0.0065
749.1356	0.0058
749.3119	0.0339
749.4882	0.0052
749.6645	0.0168
749.8408	0.0032
750.017	0.011
750.1933	-0.0411
750.3695	0.0058
750.5457	-0.0085
750.7218	-0.0001
750.898	0.0036
751.0741	0.0379
751.2502	0.0118
751.4263	0.0072
751.6024	0.0127
751.7784	-0.0081
751.9545	0.0203
752.1305	0.0083
752.3065	0.0202
752.4825	0.0047
752.6584	0.0281
752.8344	0.0051
753.0103	-0.0205
753.1862	-0.0073
753.3621	-0.0088
753.5379	0.0067
753.7138	0.0207
753.8896	-0.0084
754.0654	0.0043
754.2412	0.0108
754.417	0.0125
754.5927	0.012
754.7685	0.0111
754.9442	0.0188
755.1199	-0.0024
755.2956	-0.0089
755.4712	0.0062
755.6469	0.0148
755.8225	0.0081
755.9981	0.0164
756.1736	0.0109
756.3492	0.0038
756.5248	0.0077
756.7003	-0.0059
756.8758	0.0121
757.0513	-0.0082
757.2267	0.0212
757.4022	-0.0102
757.5776	0.0098
757.753	0.0141
757.9284	0.0102
758.1038	0.0121
758.2791	0.0069
758.4545	-0.0201
758.6298	0.0118
758.8051	0.01
758.9803	0.0132
759.1556	-0.0075
759.3308	-0.009
759.506	-0.0003
759.6812	0.0141
759.8564	0.0021
760.0316	0.016
760.2067	0.0075
760.3819	0.0018
760.557	0.0031
760.732	0.0049
760.9071	0.0049
761.0821	-0.0121
761.2572	0.0049
761.4322	0.0205
761.6072	-0.0135
761.7821	-0.0143
761.9571	0.0257
762.132	0.0154
762.3069	0.0192
762.4818	0.0229
762.6567	-0.0055
762.8316	0.0147
763.0064	0.0063
763.1812	0.0106
763.356	-0.0125
763.5308	0.019
763.7055	0.0125
763.8803	0.0016
764.055	0.002
764.2297	-0.016
764.4044	-0.0045
764.579	-0.0151
764.7537	-0.0061
764.9283	0.0145
765.1029	-0.0056
765.2775	0.0243
765.4521	-0.0023
765.6266	0.01
765.8011	0.0367
765.9756	0.0228
766.1501	0.0012
766.3246	0.0265
766.4991	0.0101
766.6735	0.0338
766.8479	-0.0219
767.0223	0.0026
767.1967	0.0136
767.371	0.0108
767.5454	0.0289
767.7197	0.0049
767.894	-0.0001
768.0683	0.0061
768.2425	0.0098
768.4168	0.02
768.591	0.0167
768.7652	0.0025
768.9394	-0.003
769.1135	-0.0175
769.2877	0.0088
769.4618	0.0081
769.6359	0.0165
769.81	0.0322
769.984	-0.002
770.1581	-0.0101
770.3321	0.025
770.5061	0.0159
770.6801	0.0124
770.8541	0.0139
771.028	0.0613
771.202	0.0248
771.3759	0.0316
771.5498	-0.0059
771.7236	0.0094
771.8975	0.0394
772.0713	-0.001
772.2451	-0.014
772.4189	0.0157
772.5927	-0.0304
772.7665	-0.0061
772.9402	0.0347
773.1139	0.0144
773.2876	-0.0061
773.4613	-0.0001
773.635	0.0231
773.8086	0.0443
773.9822	0.0245
774.1558	0.0241
774.3294	0.0158
774.503	-0.0002
774.6765	0.0101
774.8501	-0.0103
775.0236	0.0098
775.1971	-0.0247
775.3705	0.0132
775.544	-0.0472
775.7174	0.0445
775.8908	0.0158
776.0642	0.0064
776.2376	0.0006
776.4109	0.0076
776.5843	-0.0233
776.7576	0.0223
776.9309	0.0177
777.1041	-0.0218
777.2774	-0.0275
777.4506	0.0146
777.6238	0.0122
777.797	0.0041
777.9702	-0.0015
778.1434	0.0086
778.3165	-0.0322
778.4896	-0.0449
778.6627	-0.0105
778.8358	0.0022
779.0089	-0.038
779.1819	0.0174
779.3549	-0.007
779.5279	-0.006
779.7009	0.0307
779.8739	0.0585
780.0468	0.012
780.2197	-0.0139
780.3926	-0.0383
780.5655	0.0528
780.7384	0.0308
780.9112	0.0391
781.0841	0.0027
781.2569	-0.0081
781.4297	0.004
781.6024	0.0045
781.7752	0.0556
781.9479	0.0228
782.1206	-0.0136
782.2933	0.0056
782.466	0.0063
782.6386	-0.0001
782.8113	0.0152
782.9839	0.0353
783.1565	0.0475
783.329	0.0086
783.5016	0.0085
783.6741	-0.0026
783.8466	0.044
784.0191	0.0081
784.1916	-0.018
784.3641	-0.0488
784.5365	0.0114
784.7089	-0.0498
784.8813	0.057
785.0537	0.018
785.2261	0.008
785.3984	0.0124
785.5707	-0.0182
785.743	0.0557
785.9153	-0.0246
786.0876	-0.0275
786.2598	0.0058
786.432	0.0306
786.6042	0.0305
786.7764	-0.0002
786.9486	-0.0057
787.1207	0.0181
787.2928	0.0643
787.4649	-0.0204
787.637	0.0124
787.8091	-0.0031
787.9811	0.0127
788.1532	-0.0013
788.3252	-0.0099
788.4972	0.0248
788.6691	-0.0235
788.8411	-0.0031
789.013	0.0138
789.1849	-0.0134
789.3568	0.0216
789.5287	0.0368
789.7005	-0.0169
789.8723	0.0493
790.0442	-0.013
790.2159	-0.0125
790.3877	0.0417
790.5595	0.032
790.7312	0.014
790.9029	0.0372
791.0746	-0.034
791.2463	-0.0295
791.4179	-0.0045
791.5896	-0.0002
791.7612	0.0796
791.9328	0.0009
792.1044	0.002
792.2759	-0.0527
792.4474	0.0581
792.619	-0.0267
792.7905	0.0136
792.9619	0.0387
793.1334	0.0612
793.3048	0.0763
793.4762	0.0161
793.6476	0.0022
793.819	0.0018
793.9904	-0.0002
794.1617	-0.0166
794.333	0.028
794.5043	0.021
794.6756	0.0092
794.8469	-0.002
795.0181	0.0379
795.1893	0.0275
795.3605	0.0243
795.5317	-0.015
795.7029	-0.0027
795.874	0.0307
796.0452	0.0313
796.2163	0.0197
796.3873	0.0573
796.5584	0.0785
796.7294	0.0724
796.9005	0.0427
797.0715	-0.0337
797.2425	0.0147
797.4134	0.0331
797.5844	0.0161
797.7553	-0.0424
797.9262	0.0508
798.0971	0.0621
798.2679	0.0021
798.4388	0.041
798.6096	-0.0293
798.7804	0.0247
798.9512	-0.0084
799.122	-0.0442
799.2927	0.1247
799.4635	-0.0663
799.6342	-0.011
799.8049	0.0979
799.9755	0.0246
800.1462	0.0548
800.3168	-0.012
800.4874	-0.0611
800.658	0.0832
800.8286	0.061
800.9991	0.0059
801.1696	-0.0406
801.3402	-0.0515
801.5106	0.0037
801.6811	0.0385
801.8516	0.0938
802.022	0.0129
802.1924	0.0549
802.3628	-0.0234
802.5332	-0.0005
802.7035	0.0498
802.8739	-0.0005
803.0442	-0.0741
803.2145	0.0762
803.3847	0.0504
803.555	0.1015
803.7252	-0.0522
803.8954	-0.0514
804.0656	-0.0181
804.2358	0.0835
804.4059	0.0848
804.5761	-0.0117
804.7462	-0.0288
804.9163	0.0512
805.0864	0.0031
805.2564	0.0646
805.4264	-0.0197
805.5965	0.0664
805.7665	-0.0312
805.9364	-0.0245
806.1064	0.0692
806.2763	0.0837
806.4462	0.0334
806.6161	-0.0054
806.786	-0.013
806.9559	0.0007
807.1257	0.028
807.2955	-0.0359
807.4653	0.0267
807.6351	0.0683
807.8048	0.0051
807.9746	0.0427
808.1443	-0.0452
808.314	0.0388
808.4837	0.0683
808.6533	0.027
808.8229	0.0557
808.9926	-0.0176
809.1622	0.0056
809.3317	-0.0759
809.5013	0.0278
809.6708	0.0305
809.8403	0.0677
810.0098	0.0444
810.1793	0.0411
810.3488	0.0172
810.5182	0.0998
810.6876	0.0073
810.857	0.0584
811.0264	-0.0391
811.1958	0.1401
811.3651	0.068
811.5344	0.0824
811.7037	0.0895
811.873	0.0149
812.0422	-0.0707
812.2115	-0.0405
812.3807	-0.0886
812.5499	-0.0587
812.7191	-0.1292
812.8882	-0.0131
813.0574	0.0431
813.2265	0.0764
813.3956	0.0319
813.5646	0.0156
813.7337	-0.0332
813.9027	-0.0526
814.0718	0.0169
814.2407	0.0364
814.4097	0.0416
814.5787	0.097
814.7476	0.0026
814.9165	0.0958
815.0854	-0.0297
815.2543	-0.0343
815.4232	0.1215
815.592	0.2421
815.7608	-0.0715
815.9296	0.0135
816.0984	-0.0505
816.2671	-0.348
816.4359	0.0647
816.6046	-0.0886
816.7733	-0.104
816.942	-0.0961
817.1106	0.0157
817.2793	-0.0419
817.4479	-0.0257
817.6165	0.0265
817.785	0.0597
817.9536	0.0227
818.1221	0.0614
818.2906	-0.0392
818.4591	-0.0222
818.6276	0.068
818.7961	-0.0921
818.9645	0.0741
819.1329	0.0032
819.3013	-0.0488
819.4697	-0.0622
819.638	-0.0314
819.8064	0.1501
819.9747	0.0297
820.143	-0.0496
820.3113	0.101
820.4795	0.0451
820.6477	0.1862
820.816	0.0249
820.9842	-0.0116
821.1523	0.1307
821.3205	0.156
821.4886	-0.0283
821.6567	-0.0505
821.8248	0.0734
821.9929	-0.1273
822.1609	-0.0172
822.329	-0.0007
822.497	0.0144
822.665	0.0577
822.833	-0.0669
823.0009	0.0062
823.1688	0.0674
823.3367	-0.1493
823.5046	-0.0543
823.6725	-0.0812
823.8404	0.083
824.0082	0.0134
824.176	-0.1264
824.3438	0.2476
824.5116	-0.0134
824.6793	0.1429
824.847	0.0676
825.0147	-0.0622
825.1824	0.1772
825.3501	0.2763
825.5177	-0.0439
825.6854	-0.2082
825.853	0.0392
826.0206	-0.0354
826.1881	0.0101
826.3557	-0.0148
826.5232	0.0454
826.6907	0.0763
826.8582	-0.0789
827.0257	0.2203
827.1931	0.1012
827.3605	-0.0513
827.528	-0.1341
827.6953	-0.0536
827.8627	-0.1591
828.03	0.0727
828.1974	0.0059
828.3647	0.0695
828.532	0.0915
828.6992	0.1078
828.8665	-0.1017
829.0337	0.0066
829.2009	-0.1319
829.3681	-0.0373
829.5352	-0.2868
829.7024	-0.105
829.8695	-0.1363
830.0366	0.344
830.2037	0.1797
830.3707	0.0694
830.5378	-0.0123
830.7048	-0.1488
830.8718	0.0896
831.0388	0.0932
831.2057	0.6565
831.3727	-0.4419
831.5396	0.2053
831.7065	-0.7093
831.8734	0.6163
832.0402	0.203
832.2071	0.0291
832.3739	0.0207
832.5407	-1.7231
832.7075	-0.1292
832.8742	0.4858
833.041	0.1224
833.2077	0.1357
833.3744	0.0694
833.541	0.1528
833.7077	-0.0077
833.8743	0.2531
834.0409	0.1876
834.2075	0.134
834.3741	-0.0355
834.5407	0.2083
834.7072	-0.0606
834.8737	0.3356
835.0402	-0.0508
835.2067	-0.0744
835.3731	-0.0887
835.5395	0.0028
835.706	-0.221
835.8723	-0.1496
836.0387	0.1909
836.2051	0.7363
836.3714	0.0337
836.5377	-0
836.704	0.451
836.8703	-0.1526
837.0365	-0.2914
837.2027	0.4621
837.3689	0.1628
837.5351	-0
837.7013	-0.1303
837.8674	-0.0065
838.0335	0.0719
838.1997	-0.1946
838.3657	0.0964
838.5318	0.065
838.6978	0.3446
838.8639	-0.3419
839.0299	0.1328
839.1958	0.0576
839.3618	-0.1188
839.5277	-0.2085
839.6937	-0.1433
839.8596	-0.1613
840.0254	-0.0571
840.1913	-0.3935
840.3571	-0.1076
840.523	-0
840.6888	-0.2114
840.8545	-0.1947
841.0203	0.0375
841.186	0.0532
841.3517	-0.1087
841.5174	-0.0168
841.6831	0.1088
841.8488	0.2679
842.0144	0.1745
842.18	0.4637
842.3456	-0.0085
842.5112	-0
842.6767	0.1405
842.8422	0.123
843.0077	0.0121
843.1732	-0.2158
843.3387	-0.1576
843.5042	-0.0498
843.6696	-0
843.835	0.1438
844.0004	-0.1404
844.1657	-0
844.3311	-0.2195
844.4964	-0.4249
844.6617	0.2208
844.827	-0
844.9923	0.781
845.1575	0.323
845.3227	0.7505
845.4879	-0.1636
845.6531	0.2329
845.8183	0.4779
845.9834	-0
846.1485	0.2424
846.3136	-0.2301
846.4787	-0
846.6438	0.9294
846.8088	0.3002
846.9738	-0
847.1388	0.0872
847.3038	0.4123
847.4687	-0.0436
847.6337	-0.2503
847.7986	-0.2291
847.9635	-0.3303
848.1284	-0
848.2932	0.2156
848.458	-0
848.6228	0.6693
848.7876	-0
848.9524	-0
849.1172	-1.509
849.2819	-0
849.4466	0.1751
849.6113	0.5029
849.7759	-0
849.9406	0.2621
850.1052	-1.2603
850.2698	0.0323
850.4344	-0
850.599	-0
850.7635	0.7113
850.928	0.3734
851.0925	0.4028
851.257	0.118
851.4215	0.4124
851.5859	-0.0413
851.7503	-0.4554
851.9147	-0.1753
852.0791	-0.101
852.2434	0.2018
852.4078	-0.0946
852.5721	-0
852.7364	-0.2778
852.9007	-0.2483
853.0649	-0
853.2291	0.1653
853.3934	-0.3765
853.5575	-0.0668
853.7217	0.6902
853.8859	-0.1749
854.05	-0.2296
854.2141	0.5002
854.3782	-0.1214
854.5423	-0.0523
854.7063	-0.1368
854.8703	0.0213
855.0343	0.0825
855.1983	0.652
855.3623	0.2679
855.5262	-0
855.6901	1.0202
855.854	0.1606
856.0179	-0.0757
856.1818	0.0713
856.3456	0.1259
856.5094	-0.6774
856.6732	-0.3372
856.837	-0.814
857.0008	-0.5262
857.1645	-0
857.3282	-0.6131
857.4919	-0.0392
857.6556	-0
857.8192	0.0083
857.9828	0.1742
858.1465	0.3852
858.31	0.7876
858.4736	-0.5752
858.6372	-0.2056
858.8007	0.1803
858.9642	0.2268
859.1277	0.6269
859.2911	-0.5219
859.4546	-0
859.618	-0.0256
859.7814	-0
859.9448	-0
860.1081	-0
860.2715	-1.1802
860.4348	0.1139
860.5981	-0
860.7614	-0
860.9246	-0
861.0879	0.2092
861.2511	-0
861.4143	-0
861.5774	-0.3484
861.7406	0.4402
861.9037	-1.0736
862.0668	-1.045
862.2299	0.383
862.393	0.4252
862.556	-0.3483
862.7191	-0.5384
862.8821	0.3648
863.0451	0.9914
863.208	-0
863.371	-0
863.5339	0.1885
863.6968	0.9241
863.8597	0.2987
864.0225	0.1726
864.1854	0.1558
864.3482	-0
864.511	-0.036
864.6737	-0
864.8365	1.7745
864.9992	-0
865.1619	-0.3493
865.3246	-1.0934
865.4873	-0
865.65	0.8316
865.8126	-0
865.9752	-0.2309
866.1378	-0.0182
866.3004	0.0439
866.4629	-1.8233
866.6254	-0.1874
866.7879	-0.3381
866.9504	-0.4
867.1129	0.2177
867.2753	0.0682
867.4377	0.1812
867.6001	-0.0371
867.7625	-0.2648
867.9249	0.6695
868.0872	-0
868.2495	-0
868.4118	-0
868.5741	-0
868.7363	-0
868.8986	-0.8086
869.0608	-0.3704
869.223	-0.2256
869.3851	-0
869.5473	-0.0021
869.7094	-0
869.8715	-0
870.0336	0.0758
870.1957	-0
870.3577	0.1787
870.5197	0.4152
870.6817	-0.5766
870.8437	-0.364
871.0057	0.0444
871.1676	0.3695
871.3295	-0
871.4914	-1.1703
871.6533	-0
871.8151	0.5341
871.977	-0.2964
872.1388	-0
872.3006	-0.6984
872.4623	-0.4789
872.6241	0.3463
872.7858	-0
872.9475	0.0346
873.1092	0.0896
873.2709	1.3118
873.4325	-1.9731
873.5941	1.5119
873.7557	-0
873.9173	0.3627
874.0789	0.088
874.2404	-0
874.4019	-0.1272
874.5634	-0
874.7249	-0
874.8863	-0.0637
875.0478	-0.3946
875.2092	1.6986
875.3706	-0.1047
875.5319	-0.0737
875.6933	-0
875.8546	0.0907
876.0159	0.7179
876.1772	-0.2181
876.3385	-0
876.4997	-0
876.6609	-0
876.8221	2.2613
876.9833	-0.0992
877.1445	0.1308
877.3056	-1.3024
877.4667	-0.9459
877.6278	-0
877.7889	0.5976
877.9499	0.1942
878.111	-0.2807
878.272	-0
878.433	-0
878.5939	0.0719
878.7549	1.3711
878.9158	-0.3143
879.0767	1.0337
879.2376	0.2058
879.3984	0.8738
879.5593	0.2583
879.7201	-1.2268
879.8809	1.2989
880.0417	-0.1063
880.2024	0.3801
880.3632	-0
880.5239	0.0708
880.6846	-0
880.8452	-0.1211
881.0059	-0
881.1665	1.2756
881.3271	-0
881.4877	-0
881.6483	-0.4685
881.8088	-0.7363
881.9693	-0
882.1298	-0
882.2903	-0
