Data from D4ACN5uM440nmA_Absorbance_13-50-25-822.txt Node
Date: Fri Feb 21 13:50:25 GMT 2025
User: LASERRRRR
Spectrometer: FLMT03099
Trigger mode: 0
Integration Time (sec): 1.500000E-2
Scans to average: 1
Electric dark correction enabled: true
Nonlinearity correction enabled: false
Boxcar width: 0
XAxis mode: Wavelengths
Number of Pixels in Spectrum: 3648
>>>>>Begin Spectral Data<<<<<
179.3399	-0.4609
179.5586	-0.4609
179.7771	-0.4609
179.9957	-0.3591
180.2143	-1.3776
180.4329	0.0747
180.6514	-0
180.8699	-0
181.0885	-0
181.307	0.2667
181.5255	0.3253
181.744	-0
181.9625	0.463
182.181	-0
182.3994	-0.5655
182.6179	-0.1748
182.8363	-0.026
183.0547	0.1087
183.2732	0.1046
183.4916	0.1401
183.71	0.2488
183.9284	0.0027
184.1467	-0.0506
184.3651	0.0677
184.5835	0.0203
184.8018	-0.0087
185.0201	0.3724
185.2385	0.22
185.4568	0.1394
185.6751	0.0411
185.8934	0.1179
186.1117	0.0277
186.3299	0.0428
186.5482	0.1349
186.7664	0.1585
186.9847	-0.0197
187.2029	0.5209
187.4211	-0.0556
187.6393	0.0319
187.8575	0.0177
188.0757	0.3001
188.2939	0.3118
188.512	0.5293
188.7302	0.3321
188.9483	0.2091
189.1665	0.3872
189.3846	0.2939
189.6027	0.1015
189.8208	0.1083
190.0389	0.222
190.257	0.0533
190.475	0.0026
190.6931	0.1803
190.9111	-0.095
191.1292	0.129
191.3472	0.1559
191.5652	0.1992
191.7832	0.0593
192.0012	0.1191
192.2192	0.1973
192.4371	0.0906
192.6551	0.1326
192.873	0.0959
193.091	0.1675
193.3089	0.1697
193.5268	0.2742
193.7447	0.1764
193.9626	0.2537
194.1805	0.1751
194.3984	0.2336
194.6162	0.2171
194.8341	0.3211
195.0519	0.2535
195.2697	0.1938
195.4875	0.2681
195.7054	0.2659
195.9231	0.2324
196.1409	0.3016
196.3587	0.2851
196.5765	0.3709
196.7942	0.321
197.012	0.3958
197.2297	0.2989
197.4474	0.4718
197.6651	0.2907
197.8828	0.375
198.1005	0.3769
198.3182	0.3424
198.5358	0.3955
198.7535	0.4123
198.9711	0.3934
199.1888	0.3853
199.4064	0.3454
199.624	0.3816
199.8416	0.3354
200.0592	0.4016
200.2767	0.3808
200.4943	0.4525
200.7119	0.3757
200.9294	0.4083
201.1469	0.3911
201.3645	0.4348
201.582	0.3898
201.7995	0.3984
202.017	0.4477
202.2344	0.4425
202.4519	0.379
202.6694	0.4023
202.8868	0.3783
203.1042	0.3799
203.3217	0.3731
203.5391	0.3953
203.7565	0.3623
203.9739	0.333
204.1913	0.3414
204.4086	0.3577
204.626	0.3978
204.8433	0.378
205.0607	0.3811
205.278	0.3126
205.4953	0.3329
205.7126	0.3692
205.9299	0.326
206.1472	0.3034
206.3644	0.341
206.5817	0.3375
206.7989	0.3562
207.0162	0.3368
207.2334	0.3184
207.4506	0.2869
207.6678	0.3156
207.885	0.3104
208.1022	0.3263
208.3194	0.3092
208.5365	0.2972
208.7537	0.2638
208.9708	0.2803
209.1879	0.2775
209.405	0.2834
209.6222	0.2812
209.8392	0.291
210.0563	0.2957
210.2734	0.264
210.4905	0.2892
210.7075	0.2709
210.9245	0.2742
211.1416	0.2661
211.3586	0.2875
211.5756	0.2445
211.7926	0.2525
212.0096	0.2745
212.2265	0.2429
212.4435	0.2643
212.6604	0.2608
212.8774	0.2459
213.0943	0.2533
213.3112	0.237
213.5281	0.2531
213.745	0.2186
213.9619	0.2186
214.1788	0.252
214.3956	0.2292
214.6125	0.2652
214.8293	0.2582
215.0461	0.2499
215.2629	0.2532
215.4798	0.2498
215.6965	0.2644
215.9133	0.2387
216.1301	0.2344
216.3469	0.2325
216.5636	0.2423
216.7803	0.2403
216.9971	0.2615
217.2138	0.2391
217.4305	0.2508
217.6472	0.2394
217.8639	0.2524
218.0805	0.2395
218.2972	0.2653
218.5138	0.2583
218.7305	0.2445
218.9471	0.2371
219.1637	0.2621
219.3803	0.2629
219.5969	0.2553
219.8135	0.2594
220.0301	0.2457
220.2466	0.2678
220.4632	0.2489
220.6797	0.2599
220.8962	0.2537
221.1127	0.2581
221.3292	0.2683
221.5457	0.2707
221.7622	0.2705
221.9787	0.283
222.1951	0.2546
222.4116	0.2625
222.628	0.2852
222.8444	0.2642
223.0608	0.2806
223.2772	0.2899
223.4936	0.2776
223.71	0.2826
223.9264	0.2708
224.1427	0.2866
224.3591	0.284
224.5754	0.2946
224.7917	0.2781
225.008	0.2936
225.2243	0.2945
225.4406	0.293
225.6569	0.3009
225.8732	0.308
226.0894	0.3015
226.3057	0.3018
226.5219	0.314
226.7381	0.3169
226.9543	0.3083
227.1705	0.3159
227.3867	0.326
227.6029	0.3278
227.8191	0.3364
228.0352	0.3312
228.2513	0.3427
228.4675	0.3429
228.6836	0.3417
228.8997	0.3342
229.1158	0.3516
229.3319	0.3574
229.548	0.3551
229.764	0.3521
229.9801	0.3626
230.1961	0.3671
230.4121	0.3659
230.6282	0.3805
230.8442	0.381
231.0602	0.388
231.2761	0.3723
231.4921	0.3817
231.7081	0.395
231.924	0.4016
232.14	0.3968
232.3559	0.398
232.5718	0.4135
232.7877	0.4075
233.0036	0.4134
233.2195	0.4003
233.4353	0.4248
233.6512	0.4099
233.867	0.4154
234.0829	0.4313
234.2987	0.4149
234.5145	0.4402
234.7303	0.4311
234.9461	0.4304
235.1619	0.4385
235.3776	0.4299
235.5934	0.4364
235.8091	0.4411
236.0249	0.4513
236.2406	0.4373
236.4563	0.4461
236.672	0.4435
236.8877	0.4453
237.1034	0.4391
237.319	0.4515
237.5347	0.4395
237.7503	0.4448
237.966	0.4608
238.1816	0.4514
238.3972	0.468
238.6128	0.4613
238.8284	0.4571
239.0439	0.4609
239.2595	0.4613
239.475	0.4583
239.6906	0.4585
239.9061	0.4632
240.1216	0.4534
240.3371	0.4673
240.5526	0.4584
240.7681	0.4615
240.9836	0.4479
241.199	0.4581
241.4145	0.4539
241.6299	0.4541
241.8453	0.4437
242.0607	0.4303
242.2761	0.4311
242.4915	0.4164
242.7069	0.4154
242.9223	0.4204
243.1376	0.4127
243.353	0.4012
243.5683	0.3878
243.7836	0.396
243.9989	0.3874
244.2142	0.3808
244.4295	0.3779
244.6448	0.3688
244.86	0.3498
245.0753	0.3457
245.2905	0.3385
245.5057	0.3391
245.721	0.3393
245.9362	0.3331
246.1514	0.3279
246.3665	0.3128
246.5817	0.3053
246.7969	0.3039
247.012	0.2859
247.2271	0.2967
247.4423	0.2878
247.6574	0.2815
247.8725	0.2735
248.0876	0.2714
248.3026	0.27
248.5177	0.2574
248.7328	0.2554
248.9478	0.2474
249.1628	0.2529
249.3779	0.2406
249.5929	0.2428
249.8079	0.2349
250.0228	0.238
250.2378	0.2327
250.4528	0.2253
250.6677	0.2203
250.8827	0.2165
251.0976	0.2151
251.3125	0.2169
251.5274	0.214
251.7423	0.2084
251.9572	0.2064
252.172	0.199
252.3869	0.2111
252.6017	0.2052
252.8166	0.207
253.0314	0.1955
253.2462	0.1968
253.461	0.2005
253.6758	0.1932
253.8906	0.1923
254.1053	0.1948
254.3201	0.1923
254.5348	0.1879
254.7496	0.185
254.9643	0.1893
255.179	0.1937
255.3937	0.1896
255.6083	0.19
255.823	0.1843
256.0377	0.1821
256.2523	0.1884
256.467	0.187
256.6816	0.1825
256.8962	0.1805
257.1108	0.1864
257.3254	0.1854
257.54	0.1756
257.7545	0.1868
257.9691	0.1777
258.1836	0.1755
258.3981	0.1803
258.6127	0.1789
258.8272	0.1856
259.0417	0.1703
259.2561	0.1762
259.4706	0.1727
259.6851	0.1778
259.8995	0.1708
260.114	0.1815
260.3284	0.1786
260.5428	0.1744
260.7572	0.1791
260.9716	0.1796
261.186	0.1763
261.4003	0.1766
261.6147	0.1772
261.829	0.1794
262.0433	0.1769
262.2577	0.1712
262.472	0.1778
262.6863	0.1791
262.9005	0.1784
263.1148	0.1764
263.3291	0.1761
263.5433	0.1833
263.7576	0.1822
263.9718	0.1843
264.186	0.1774
264.4002	0.1845
264.6144	0.1873
264.8286	0.1797
265.0427	0.1901
265.2569	0.1845
265.471	0.1824
265.6851	0.1826
265.8993	0.1797
266.1134	0.1888
266.3275	0.1782
266.5415	0.1835
266.7556	0.1854
266.9697	0.1842
267.1837	0.1888
267.3978	0.1879
267.6118	0.182
267.8258	0.1873
268.0398	0.1867
268.2538	0.1813
268.4677	0.1805
268.6817	0.1844
268.8957	0.1765
269.1096	0.1741
269.3235	0.1786
269.5374	0.1818
269.7514	0.1799
269.9652	0.177
270.1791	0.174
270.393	0.1812
270.6068	0.1754
270.8207	0.1802
271.0345	0.1794
271.2483	0.1698
271.4622	0.1772
271.676	0.1762
271.8897	0.174
272.1035	0.1846
272.3173	0.1735
272.531	0.176
272.7448	0.1741
272.9585	0.1721
273.1722	0.1745
273.3859	0.1783
273.5996	0.1767
273.8133	0.1807
274.0269	0.1786
274.2406	0.1813
274.4542	0.1745
274.6679	0.1809
274.8815	0.1862
275.0951	0.1897
275.3087	0.1866
275.5223	0.1809
275.7358	0.1857
275.9494	0.1824
276.1629	0.1871
276.3765	0.1782
276.59	0.1783
276.8035	0.182
277.017	0.1867
277.2305	0.1889
277.444	0.1841
277.6574	0.1828
277.8709	0.1951
278.0843	0.1882
278.2978	0.1944
278.5112	0.1891
278.7246	0.1855
278.938	0.1853
279.1513	0.1882
279.3647	0.1874
279.5781	0.1845
279.7914	0.1846
280.0047	0.1917
280.2181	0.188
280.4314	0.1889
280.6447	0.1916
280.8579	0.1819
281.0712	0.1891
281.2845	0.1841
281.4977	0.1866
281.711	0.1787
281.9242	0.1861
282.1374	0.1828
282.3506	0.183
282.5638	0.1795
282.7769	0.1766
282.9901	0.1938
283.2033	0.1871
283.4164	0.1832
283.6295	0.185
283.8426	0.18
284.0557	0.1841
284.2688	0.1841
284.4819	0.181
284.695	0.1857
284.908	0.1805
285.1211	0.1852
285.3341	0.1762
285.5471	0.1864
285.7601	0.1875
285.9731	0.1925
286.1861	0.1907
286.3991	0.1885
286.612	0.1881
286.825	0.1948
287.0379	0.1858
287.2508	0.1853
287.4637	0.1885
287.6766	0.19
287.8895	0.185
288.1024	0.1877
288.3152	0.1928
288.5281	0.1837
288.7409	0.1897
288.9538	0.1835
289.1666	0.1873
289.3794	0.1877
289.5922	0.1758
289.8049	0.1913
290.0177	0.1894
290.2304	0.1846
290.4432	0.1908
290.6559	0.1885
290.8686	0.1883
291.0813	0.1823
291.294	0.1883
291.5067	0.1899
291.7194	0.1884
291.932	0.1844
292.1447	0.1863
292.3573	0.1887
292.5699	0.1937
292.7825	0.1867
292.9951	0.1872
293.2077	0.185
293.4203	0.1892
293.6328	0.1895
293.8454	0.1887
294.0579	0.1913
294.2704	0.1969
294.4829	0.1845
294.6954	0.189
294.9079	0.1848
295.1204	0.1827
295.3328	0.1911
295.5453	0.1897
295.7577	0.1879
295.9701	0.1904
296.1825	0.1873
296.3949	0.1829
296.6073	0.1857
296.8197	0.1884
297.0321	0.1921
297.2444	0.1857
297.4567	0.1867
297.6691	0.1843
297.8814	0.1853
298.0937	0.1884
298.306	0.1819
298.5182	0.1914
298.7305	0.1903
298.9428	0.1867
299.155	0.1819
299.3672	0.1834
299.5794	0.1865
299.7916	0.1845
300.0038	0.1855
300.216	0.1875
300.4282	0.1885
300.6403	0.1913
300.8525	0.1878
301.0646	0.1867
301.2767	0.1911
301.4888	0.1907
301.7009	0.1909
301.913	0.1874
302.125	0.1883
302.3371	0.1893
302.5491	0.1942
302.7612	0.1959
302.9732	0.1925
303.1852	0.1832
303.3972	0.1913
303.6092	0.1908
303.8211	0.1859
304.0331	0.1842
304.245	0.1876
304.457	0.1837
304.6689	0.1856
304.8808	0.1823
305.0927	0.1874
305.3046	0.185
305.5164	0.1801
305.7283	0.1814
305.9401	0.1743
306.152	0.1768
306.3638	0.1758
306.5756	0.177
306.7874	0.1768
306.9992	0.166
307.2109	0.1735
307.4227	0.1666
307.6344	0.1731
307.8462	0.1593
308.0579	0.1724
308.2696	0.1695
308.4813	0.1672
308.693	0.1671
308.9046	0.1628
309.1163	0.1577
309.328	0.1644
309.5396	0.1551
309.7512	0.1543
309.9628	0.152
310.1744	0.1461
310.386	0.1481
310.5976	0.1491
310.8091	0.1507
311.0207	0.1522
311.2322	0.139
311.4437	0.1437
311.6552	0.1465
311.8667	0.146
312.0782	0.1447
312.2897	0.1407
312.5012	0.1372
312.7126	0.1371
312.924	0.1422
313.1355	0.1372
313.3469	0.1342
313.5583	0.1348
313.7696	0.1361
313.981	0.14
314.1924	0.1289
314.4037	0.1333
314.6151	0.1314
314.8264	0.1385
315.0377	0.1269
315.249	0.1366
315.4603	0.1274
315.6716	0.1317
315.8828	0.1338
316.0941	0.132
316.3053	0.1275
316.5165	0.1305
316.7277	0.1231
316.9389	0.1272
317.1501	0.13
317.3613	0.1317
317.5724	0.1282
317.7836	0.1271
317.9947	0.1262
318.2058	0.1229
318.417	0.1219
318.6281	0.1256
318.8391	0.1333
319.0502	0.1285
319.2613	0.124
319.4723	0.1307
319.6834	0.1345
319.8944	0.1341
320.1054	0.1248
320.3164	0.1211
320.5274	0.1286
320.7383	0.1277
320.9493	0.1258
321.1602	0.1227
321.3712	0.122
321.5821	0.1198
321.793	0.1299
322.0039	0.1298
322.2148	0.1281
322.4257	0.1239
322.6365	0.1218
322.8474	0.1265
323.0582	0.131
323.269	0.1323
323.4798	0.1325
323.6906	0.1291
323.9014	0.1289
324.1122	0.123
324.3229	0.1325
324.5337	0.1256
324.7444	0.1278
324.9551	0.1303
325.1658	0.1247
325.3765	0.1313
325.5872	0.1308
325.7979	0.1294
326.0085	0.1323
326.2192	0.1315
326.4298	0.1348
326.6404	0.1354
326.851	0.128
327.0616	0.1368
327.2722	0.1318
327.4828	0.1314
327.6933	0.136
327.9039	0.1316
328.1144	0.1357
328.3249	0.1323
328.5354	0.1377
328.7459	0.1429
328.9564	0.1354
329.1669	0.1423
329.3773	0.1386
329.5878	0.1347
329.7982	0.1405
330.0086	0.1398
330.219	0.1369
330.4294	0.1352
330.6398	0.1375
330.8502	0.1385
331.0605	0.1413
331.2708	0.1396
331.4812	0.1433
331.6915	0.1439
331.9018	0.1375
332.1121	0.1397
332.3224	0.1445
332.5326	0.1294
332.7429	0.1373
332.9531	0.1461
333.1633	0.1371
333.3735	0.1376
333.5837	0.1438
333.7939	0.1398
334.0041	0.1432
334.2143	0.14
334.4244	0.1449
334.6346	0.1374
334.8447	0.1478
335.0548	0.143
335.2649	0.141
335.475	0.1489
335.685	0.1438
335.8951	0.1455
336.1051	0.1471
336.3152	0.1403
336.5252	0.1444
336.7352	0.141
336.9452	0.1503
337.1552	0.1465
337.3652	0.1345
337.5751	0.1401
337.7851	0.1432
337.995	0.1441
338.2049	0.1394
338.4148	0.1473
338.6247	0.1444
338.8346	0.1431
339.0445	0.1432
339.2543	0.1456
339.4642	0.1449
339.674	0.1426
339.8838	0.1401
340.0936	0.1487
340.3034	0.1448
340.5132	0.1423
340.7229	0.1472
340.9327	0.1556
341.1424	0.1504
341.3522	0.1467
341.5619	0.1455
341.7716	0.1503
341.9813	0.1492
342.1909	0.1502
342.4006	0.1509
342.6102	0.1528
342.8199	0.1473
343.0295	0.1484
343.2391	0.1529
343.4487	0.1567
343.6583	0.1629
343.8679	0.1576
344.0774	0.1512
344.287	0.152
344.4965	0.1646
344.706	0.1578
344.9155	0.1552
345.125	0.1519
345.3345	0.1647
345.544	0.1576
345.7534	0.1639
345.9629	0.1666
346.1723	0.1656
346.3817	0.1682
346.5911	0.1695
346.8005	0.1735
347.0099	0.1673
347.2193	0.176
347.4286	0.1748
347.638	0.1702
347.8473	0.1688
348.0566	0.1678
348.2659	0.1731
348.4752	0.173
348.6845	0.1749
348.8937	0.1662
349.103	0.1747
349.3122	0.1721
349.5214	0.1752
349.7306	0.1772
349.9398	0.1716
350.149	0.1708
350.3582	0.1785
350.5674	0.1761
350.7765	0.1797
350.9856	0.1743
351.1948	0.1822
351.4039	0.1832
351.613	0.176
351.822	0.1877
352.0311	0.1832
352.2402	0.1893
352.4492	0.179
352.6582	0.178
352.8672	0.1811
353.0762	0.1827
353.2852	0.1825
353.4942	0.1876
353.7032	0.1857
353.9121	0.1808
354.1211	0.1867
354.33	0.1925
354.5389	0.1781
354.7478	0.179
354.9567	0.1848
355.1655	0.185
355.3744	0.1856
355.5833	0.1843
355.7921	0.185
356.0009	0.1881
356.2097	0.1832
356.4185	0.1819
356.6273	0.1892
356.8361	0.1833
357.0448	0.1856
357.2536	0.191
357.4623	0.181
357.671	0.1899
357.8797	0.1987
358.0884	0.1818
358.2971	0.1899
358.5057	0.192
358.7144	0.1926
358.923	0.1896
359.1316	0.1982
359.3402	0.1876
359.5488	0.1896
359.7574	0.1982
359.966	0.196
360.1746	0.1957
360.3831	0.198
360.5916	0.2045
360.8002	0.2021
361.0087	0.1967
361.2172	0.2065
361.4256	0.2025
361.6341	0.2108
361.8426	0.2009
362.051	0.2081
362.2594	0.204
362.4678	0.2039
362.6762	0.2081
362.8846	0.2107
363.093	0.2046
363.3014	0.2125
363.5097	0.2079
363.718	0.2137
363.9264	0.214
364.1347	0.2148
364.343	0.2156
364.5513	0.2165
364.7595	0.2163
364.9678	0.214
365.176	0.2217
365.3842	0.2233
365.5925	0.2187
365.8007	0.2203
366.0089	0.2249
366.217	0.2208
366.4252	0.218
366.6333	0.2316
366.8415	0.2249
367.0496	0.2297
367.2577	0.2282
367.4658	0.2253
367.6739	0.222
367.882	0.2322
368.09	0.2258
368.2981	0.2318
368.5061	0.2466
368.7141	0.227
368.9221	0.2429
369.1301	0.2389
369.3381	0.239
369.5461	0.2344
369.754	0.2374
369.962	0.2298
370.1699	0.2402
370.3778	0.2511
370.5857	0.2352
370.7936	0.2385
371.0015	0.245
371.2093	0.2402
371.4172	0.2385
371.625	0.25
371.8328	0.2351
372.0406	0.2556
372.2484	0.2457
372.4562	0.2508
372.664	0.242
372.8717	0.2512
373.0795	0.2504
373.2872	0.2547
373.4949	0.2581
373.7026	0.2477
373.9103	0.2518
374.118	0.2486
374.3256	0.2509
374.5333	0.2475
374.7409	0.2501
374.9485	0.2498
375.1561	0.2616
375.3637	0.2541
375.5713	0.2613
375.7789	0.2613
375.9864	0.2605
376.194	0.2659
376.4015	0.2594
376.609	0.2636
376.8165	0.2628
377.024	0.2617
377.2315	0.2661
377.4389	0.2572
377.6464	0.2741
377.8538	0.271
378.0612	0.2647
378.2686	0.2651
378.476	0.2757
378.6834	0.2682
378.8908	0.2736
379.0981	0.2623
379.3055	0.2737
379.5128	0.2701
379.7201	0.2656
379.9274	0.2729
380.1347	0.2716
380.342	0.2737
380.5492	0.2744
380.7565	0.2701
380.9637	0.2831
381.1709	0.2758
381.3781	0.2795
381.5853	0.2794
381.7925	0.2793
381.9997	0.281
382.2068	0.2806
382.4139	0.2788
382.6211	0.278
382.8282	0.2919
383.0353	0.2801
383.2424	0.2775
383.4494	0.2842
383.6565	0.2902
383.8635	0.2794
384.0706	0.2881
384.2776	0.2785
384.4846	0.289
384.6916	0.2868
384.8986	0.2932
385.1055	0.2907
385.3125	0.2881
385.5194	0.2902
385.7263	0.2842
385.9333	0.2883
386.1402	0.2836
386.347	0.2834
386.5539	0.2961
386.7608	0.2827
386.9676	0.2902
387.1744	0.2855
387.3813	0.2894
387.5881	0.2851
387.7948	0.2823
388.0016	0.2939
388.2084	0.282
388.4151	0.2898
388.6219	0.2816
388.8286	0.2738
389.0353	0.2877
389.242	0.2821
389.4487	0.2885
389.6553	0.275
389.862	0.2703
390.0686	0.2908
390.2753	0.2796
390.4819	0.2824
390.6885	0.268
390.8951	0.2842
391.1016	0.2802
391.3082	0.2672
391.5147	0.2628
391.7213	0.2772
391.9278	0.2705
392.1343	0.2804
392.3408	0.2648
392.5473	0.2637
392.7537	0.2657
392.9602	0.2649
393.1666	0.2716
393.373	0.2637
393.5794	0.2704
393.7858	0.2711
393.9922	0.2567
394.1986	0.2584
394.4049	0.2589
394.6113	0.2639
394.8176	0.2552
395.0239	0.254
395.2302	0.2604
395.4365	0.2652
395.6428	0.2567
395.8491	0.2519
396.0553	0.2442
396.2615	0.2526
396.4678	0.251
396.674	0.2527
396.8802	0.2503
397.0863	0.2481
397.2925	0.2565
397.4987	0.244
397.7048	0.2508
397.9109	0.2444
398.117	0.2405
398.3231	0.2427
398.5292	0.2402
398.7353	0.242
398.9413	0.2388
399.1474	0.2374
399.3534	0.2384
399.5594	0.2453
399.7654	0.2428
399.9714	0.2381
400.1774	0.2359
400.3833	0.2468
400.5893	0.2407
400.7952	0.2532
401.0011	0.2376
401.207	0.247
401.4129	0.2345
401.6188	0.2382
401.8247	0.252
402.0305	0.2492
402.2364	0.2422
402.4422	0.2472
402.648	0.2431
402.8538	0.2413
403.0596	0.2376
403.2654	0.2316
403.4711	0.2393
403.6768	0.2427
403.8826	0.2368
404.0883	0.2444
404.294	0.2404
404.4997	0.2382
404.7054	0.244
404.911	0.2432
405.1167	0.2386
405.3223	0.2284
405.5279	0.2428
405.7335	0.2463
405.9391	0.237
406.1447	0.2539
406.3502	0.2401
406.5558	0.2401
406.7613	0.2402
406.9668	0.2471
407.1724	0.2364
407.3778	0.2465
407.5833	0.2358
407.7888	0.2435
407.9942	0.2374
408.1997	0.2414
408.4051	0.2413
408.6105	0.2446
408.8159	0.2439
409.0213	0.2438
409.2267	0.243
409.432	0.2368
409.6374	0.239
409.8427	0.241
410.048	0.2471
410.2533	0.2429
410.4586	0.2367
410.6639	0.2428
410.8691	0.2337
411.0744	0.2357
411.2796	0.2407
411.4848	0.2454
411.69	0.2379
411.8952	0.238
412.1004	0.2367
412.3056	0.2382
412.5107	0.2369
412.7158	0.2542
412.921	0.2328
413.1261	0.2404
413.3312	0.2409
413.5362	0.2417
413.7413	0.232
413.9464	0.2341
414.1514	0.2377
414.3564	0.2267
414.5614	0.2357
414.7664	0.2355
414.9714	0.2377
415.1764	0.2333
415.3813	0.2352
415.5863	0.2471
415.7912	0.2358
415.9961	0.2347
416.201	0.2406
416.4059	0.2308
416.6108	0.2334
416.8156	0.2324
417.0205	0.2366
417.2253	0.2296
417.4301	0.233
417.6349	0.2259
417.8397	0.2236
418.0445	0.2278
418.2492	0.2274
418.454	0.2256
418.6587	0.2368
418.8634	0.2328
419.0681	0.2373
419.2728	0.2348
419.4775	0.237
419.6822	0.2258
419.8868	0.2231
420.0915	0.2131
420.2961	0.2143
420.5007	0.2288
420.7053	0.2265
420.9099	0.2263
421.1144	0.2201
421.319	0.2246
421.5235	0.2156
421.728	0.2326
421.9325	0.226
422.137	0.2194
422.3415	0.2102
422.546	0.2159
422.7504	0.2157
422.9549	0.224
423.1593	0.2129
423.3637	0.217
423.5681	0.2161
423.7725	0.2187
423.9769	0.2159
424.1812	0.2097
424.3856	0.1995
424.5899	0.1999
424.7942	0.2031
424.9985	0.2093
425.2028	0.2158
425.4071	0.2052
425.6113	0.2137
425.8156	0.204
426.0198	0.2058
426.224	0.2103
426.4282	0.1993
426.6324	0.2005
426.8366	0.2042
427.0407	0.1969
427.2449	0.1906
427.449	0.2041
427.6531	0.2018
427.8572	0.1939
428.0613	0.2034
428.2654	0.1931
428.4694	0.185
428.6735	0.1791
428.8775	0.1908
429.0815	0.186
429.2855	0.1916
429.4895	0.1878
429.6935	0.1776
429.8975	0.1814
430.1014	0.1821
430.3053	0.1856
430.5093	0.1786
430.7132	0.1732
430.9171	0.1694
431.1209	0.1744
431.3248	0.1607
431.5286	0.1661
431.7325	0.1696
431.9363	0.1703
432.1401	0.1571
432.3439	0.1609
432.5477	0.1551
432.7514	0.151
432.9552	0.152
433.1589	0.1552
433.3627	0.1595
433.5664	0.1523
433.7701	0.1516
433.9737	0.1491
434.1774	0.1519
434.3811	0.1445
434.5847	0.1452
434.7883	0.1441
434.9919	0.1431
435.1955	0.1403
435.3991	0.1407
435.6027	0.1339
435.8062	0.1519
436.0098	0.1326
436.2133	0.1381
436.4168	0.1309
436.6203	0.1258
436.8238	0.1266
437.0272	0.1407
437.2307	0.1292
437.4341	0.1357
437.6375	0.1298
437.841	0.1025
438.0443	0.1177
438.2477	0.1206
438.4511	0.1111
438.6545	0.1159
438.8578	0.1152
439.0611	0.1112
439.2644	0.1137
439.4677	0.1107
439.671	0.0989
439.8743	0.1065
440.0775	0.1115
440.2808	0.1029
440.484	0.1037
440.6872	0.1113
440.8904	0.092
441.0936	0.1027
441.2967	0.091
441.4999	0.0922
441.703	0.0873
441.9062	0.0964
442.1093	0.1036
442.3124	0.0892
442.5155	0.0896
442.7185	0.0852
442.9216	0.0864
443.1246	0.0808
443.3276	0.0882
443.5307	0.0767
443.7337	0.0843
443.9366	0.0789
444.1396	0.0709
444.3426	0.0777
444.5455	0.0711
444.7484	0.0661
444.9513	0.0745
445.1542	0.0733
445.3571	0.0774
445.56	0.0569
445.7628	0.0683
445.9657	0.0765
446.1685	0.0681
446.3713	0.0631
446.5741	0.0597
446.7769	0.0749
446.9797	0.0617
447.1824	0.0533
447.3852	0.0559
447.5879	0.0637
447.7906	0.0583
447.9933	0.0499
448.196	0.0565
448.3986	0.0462
448.6013	0.0383
448.8039	0.051
449.0066	0.0575
449.2092	0.0554
449.4118	0.0529
449.6143	0.0493
449.8169	0.0468
450.0195	0.0446
450.222	0.0542
450.4245	0.0489
450.627	0.0486
450.8295	0.047
451.032	0.0391
451.2345	0.0345
451.4369	0.0352
451.6394	0.0386
451.8418	0.0411
452.0442	0.0378
452.2466	0.0302
452.449	0.0392
452.6513	0.0363
452.8537	0.0254
453.056	0.0342
453.2583	0.0355
453.4607	0.0275
453.663	0.0354
453.8652	0.0244
454.0675	0.0379
454.2697	0.0315
454.472	0.0203
454.6742	0.0328
454.8764	0.0353
455.0786	0.0298
455.2808	0.0254
455.4829	0.031
455.6851	0.0306
455.8872	0.0176
456.0893	0.028
456.2915	0.0223
456.4935	0.0234
456.6956	0.0238
456.8977	0.0276
457.0997	0.0202
457.3018	0.0147
457.5038	0.0297
457.7058	0.0269
457.9078	0.0182
458.1098	0.02
458.3117	0.0217
458.5137	0.0123
458.7156	0.016
458.9175	0.0155
459.1194	0.0221
459.3213	0.0163
459.5232	0.0256
459.725	0.0219
459.9269	0.0216
460.1287	0.0153
460.3305	0.0215
460.5323	0.012
460.7341	0.0305
460.9359	0.0097
461.1376	0.0178
461.3394	0.0113
461.5411	0.0225
461.7428	0.0174
461.9445	0.0183
462.1462	0.0104
462.3479	0.0122
462.5495	0.0165
462.7512	0.03
462.9528	0.018
463.1544	0.013
463.356	0.0018
463.5576	0.0157
463.7592	0.0127
463.9607	0.0054
464.1623	0.0143
464.3638	0.0065
464.5653	0.0085
464.7668	0.0194
464.9683	0.0157
465.1697	0.0119
465.3712	0.0026
465.5726	0.0059
465.7741	0.0172
465.9755	0.0215
466.1769	0.0132
466.3782	0.0078
466.5796	0.0106
466.7809	0.0121
466.9823	0.0068
467.1836	0.0179
467.3849	0.0121
467.5862	0.0034
467.7875	0.0075
467.9887	0.0083
468.19	0.0105
468.3912	0.0148
468.5924	0.0029
468.7936	0.008
468.9948	0.0083
469.196	0.0057
469.3972	0.0045
469.5983	0.0125
469.7994	0.01
470.0006	0.0136
470.2017	0.0149
470.4027	0.0265
470.6038	0.0106
470.8049	0.0045
471.0059	0.0069
471.2069	0.0156
471.408	0.0261
471.6089	0.0104
471.8099	0.0116
472.0109	0.0093
472.2119	0.0228
472.4128	0.0046
472.6137	0.0088
472.8146	0.0135
473.0155	0.0133
473.2164	0.0087
473.4173	0.001
473.6181	0
473.819	0.0148
474.0198	0.002
474.2206	-0.002
474.4214	0.0078
474.6222	-0.007
474.8229	0.0045
475.0237	0.0098
475.2244	0.0066
475.4251	0.0007
475.6258	0.002
475.8265	0.0061
476.0272	0.0019
476.2278	0.0055
476.4285	0.0104
476.6291	0.0035
476.8297	0.0084
477.0303	0.0012
477.2309	0.009
477.4315	0.0066
477.632	0.0063
477.8326	0.008
478.0331	0.0106
478.2336	-0.0021
478.4341	0.0142
478.6346	-0.001
478.8351	0.0056
479.0355	0.0097
479.236	0.0124
479.4364	0.0079
479.6368	0.0032
479.8372	0.0082
480.0376	0.004
480.2379	0.0103
480.4383	0.0144
480.6386	-0.0017
480.8389	0.0023
481.0392	0.0076
481.2395	0.0079
481.4398	0.0083
481.6401	0.0105
481.8403	0.0004
482.0405	0.0061
482.2408	0.0095
482.441	0.0162
482.6411	-0.0007
482.8413	0.0011
483.0415	0.0092
483.2416	0.0077
483.4417	0.0047
483.6419	-0.0009
483.8419	0.0044
484.042	-0.0013
484.2421	0.0023
484.4422	0.0117
484.6422	0.0053
484.8422	0.0044
485.0422	0.0031
485.2422	0.0055
485.4422	0.0002
485.6422	0.0022
485.8421	0.0034
486.042	0.0142
486.242	0.0038
486.4419	0.0074
486.6417	-0.0026
486.8416	0.0044
487.0415	0.0016
487.2413	-0.0045
487.4411	0.0099
487.641	0.0039
487.8408	0.0113
488.0405	0.0159
488.2403	-0.0024
488.4401	0.0094
488.6398	0.0074
488.8395	0.0114
489.0392	0.0092
489.2389	0.0089
489.4386	-0.0019
489.6383	0.0099
489.8379	0.0021
490.0376	0.0043
490.2372	0.0024
490.4368	0.0064
490.6364	0.0032
490.836	-0.0036
491.0355	0.0014
491.2351	0.0007
491.4346	0.0077
491.6341	0.0026
491.8336	0.0093
492.0331	0.0051
492.2326	0.0122
492.432	0.0064
492.6315	0.0077
492.8309	0.005
493.0303	0.0113
493.2297	0.0062
493.4291	0.0032
493.6284	0.0104
493.8278	0.0017
494.0271	0.0101
494.2264	-0.0008
494.4257	0.0078
494.625	0.0084
494.8243	-0.0045
495.0236	0.0066
495.2228	0.0098
495.422	0.0073
495.6213	0.0013
495.8205	-0.0014
496.0196	0.0076
496.2188	0.0072
496.418	-0.0017
496.6171	-0.0014
496.8162	0.0071
497.0153	0.0087
497.2144	0.0082
497.4135	0.0029
497.6126	0.0049
497.8116	0.0064
498.0107	0.008
498.2097	0.0109
498.4087	0.0116
498.6077	-0.002
498.8067	0.0086
499.0056	-0.0011
499.2046	0.0057
499.4035	0
499.6024	-0.0016
499.8013	0.0073
500.0002	0.0027
500.199	0.0096
500.3979	0.001
500.5967	0.006
500.7956	0.013
500.9944	-0.0007
501.1932	0.0078
501.3919	0.013
501.5907	0.0141
501.7895	0.0045
501.9882	0.0059
502.1869	0.0101
502.3856	0.0065
502.5843	0.0041
502.783	-0.0023
502.9816	0.0168
503.1803	0.0061
503.3789	0.0111
503.5775	-0.0002
503.7761	-0.0011
503.9747	0.0097
504.1732	-0.0038
504.3718	0.0156
504.5703	0.0102
504.7689	-0.0033
504.9674	0.0002
505.1658	0.0012
505.3643	0.016
505.5628	0.0069
505.7612	0.0102
505.9597	-0.0019
506.1581	0.0031
506.3565	-0.0021
506.5549	0.0056
506.7532	0.0006
506.9516	0.0107
507.1499	0.0122
507.3482	0.0024
507.5465	0.0048
507.7448	-0.0024
507.9431	0.0158
508.1414	-0.0028
508.3396	0.0061
508.5379	0.0028
508.7361	0.0087
508.9343	0.0128
509.1325	0.0083
509.3306	0.002
509.5288	-0.0021
509.7269	0.0027
509.9251	0.0066
510.1232	0.0119
510.3213	0.0065
510.5193	0.0033
510.7174	-0.0046
510.9154	0.0042
511.1135	0.0012
511.3115	0.0043
511.5095	0.0054
511.7075	0.0058
511.9055	0.0088
512.1034	0.0078
512.3014	0.0015
512.4993	0.0027
512.6972	0.0064
512.8951	0.0039
513.093	0.0085
513.2908	0.0163
513.4887	0.0113
513.6865	0.0134
513.8844	0.0111
514.0822	0.0085
514.2799	0.0039
514.4777	-0.0047
514.6755	0.0036
514.8732	0.0039
515.0709	0.0126
515.2687	0.002
515.4664	0.0171
515.664	0.0076
515.8617	0.0065
516.0594	0.0072
516.257	0.0006
516.4546	0.0107
516.6522	0.0095
516.8498	0.0058
517.0474	0.0066
517.2449	0.0121
517.4425	0.0031
517.64	0.0009
517.8375	0.0124
518.035	0.0032
518.2325	0.0047
518.43	0.0077
518.6274	0.0042
518.8249	0.0047
519.0223	0.0092
519.2197	0.0013
519.4171	0.0007
519.6145	0.0132
519.8118	-0.004
520.0092	-0.0097
520.2065	0.0185
520.4038	0.008
520.6011	0.0055
520.7984	0.0085
520.9956	0.0103
521.1929	0.0029
521.3901	0.0113
521.5874	0.0132
521.7846	-0.006
521.9818	0.0094
522.1789	0.003
522.3761	0.0114
522.5732	0.0069
522.7704	-0.0029
522.9675	-0.0021
523.1646	0.0017
523.3617	0.0125
523.5587	0.0037
523.7558	0.0076
523.9528	0.0045
524.1498	0.0092
524.3468	0.0066
524.5438	0.0101
524.7408	0.0027
524.9378	0.0021
525.1347	0.003
525.3316	0.013
525.5285	0.0109
525.7254	-0.0004
525.9223	0.0181
526.1192	0.0093
526.316	0.0019
526.5129	0.0135
526.7097	0.0039
526.9065	0.0112
527.1033	0.0103
527.3	0.0039
527.4968	0.015
527.6935	0.0103
527.8903	-0.0014
528.087	0.0017
528.2837	0.0064
528.4804	0.0004
528.677	0.007
528.8737	0.0098
529.0703	-0.0099
529.2669	0.0151
529.4635	0.0019
529.6601	-0.0032
529.8567	-0.0016
530.0532	0.0041
530.2498	0.0019
530.4463	-0.0067
530.6428	0.0015
530.8393	0.0141
531.0358	0.0029
531.2322	0.0033
531.4287	0.0011
531.6251	-0.0048
531.8215	-0.0026
532.0179	0.0087
532.2143	0.0059
532.4107	0.0108
532.607	-0.006
532.8034	0.0025
532.9997	-0.0003
533.196	-0.0025
533.3923	0.011
533.5886	0.005
533.7848	0.0048
533.9811	0.0056
534.1773	0.0055
534.3735	0.0083
534.5697	0.0036
534.7659	0.0069
534.9621	0.001
535.1582	0.0013
535.3544	0.0027
535.5505	0.0048
535.7466	0.0029
535.9427	-0.0011
536.1387	-0.0081
536.3348	0.0071
536.5308	0.0022
536.7269	-0.0021
536.9229	0.0107
537.1189	0.0146
537.3148	0.0059
537.5108	0.0089
537.7068	0.012
537.9027	0.0039
538.0986	0.0081
538.2945	0.0039
538.4904	0.0027
538.6863	0.0035
538.8821	0.0034
539.078	0.0038
539.2738	0.0019
539.4696	0.002
539.6654	0.0051
539.8611	0.0051
540.0569	-0.0043
540.2526	0.0076
540.4484	0.0028
540.6441	0.0093
540.8398	0.0138
541.0355	0.0076
541.2311	0.01
541.4268	0.0089
541.6224	0.0169
541.818	-0.0025
542.0136	0.0207
542.2092	0.0158
542.4048	0.0058
542.6003	0.0005
542.7959	0.007
542.9914	-0.0008
543.1869	-0.0039
543.3824	0.011
543.5779	0.0112
543.7734	0.0104
543.9688	-0.0029
544.1642	0.0042
544.3596	0.0174
544.555	-0.003
544.7504	0.0219
544.9458	0.0123
545.1411	-0.0006
545.3365	0.0043
545.5318	0.0084
545.7271	0.0123
545.9224	0.005
546.1177	0.0045
546.3129	0.0027
546.5081	0.0011
546.7034	-0.0046
546.8986	0.0071
547.0938	0.0078
547.289	0.0029
547.4841	0.0077
547.6793	0.0017
547.8744	0.0079
548.0695	-0.0015
548.2646	0.0119
548.4597	0.002
548.6548	0.0138
548.8498	0.0123
549.0448	0.0006
549.2399	0.0085
549.4349	0.0103
549.6298	0.0049
549.8248	0.001
550.0198	0.0132
550.2147	0.0124
550.4096	-0.0064
550.6045	0.0049
550.7994	0.013
550.9943	0.0069
551.1892	-0.0044
551.384	0.0175
551.5788	0.012
551.7737	0.0073
551.9685	0.0075
552.1632	-0.003
552.358	-0.0003
552.5528	0.0083
552.7475	0.0088
552.9422	0.0035
553.1369	0.0133
553.3316	0.0066
553.5263	-0.0027
553.7209	0.0014
553.9156	0.0114
554.1102	0.0141
554.3048	0.0012
554.4994	-0.0016
554.694	0.0097
554.8885	0.0025
555.0831	0.0147
555.2776	0.0045
555.4721	0.0113
555.6666	0.0092
555.8611	0.004
556.0555	0.0062
556.25	0.0103
556.4444	0.0077
556.6388	-0.0006
556.8332	0.0119
557.0276	0.0121
557.222	-0.0011
557.4163	0.0121
557.6107	-0.0064
557.805	-0.0042
557.9993	0.0187
558.1936	-0.0015
558.3879	0.0034
558.5821	0.0095
558.7764	0.0033
558.9706	0.0003
559.1648	0.0074
559.359	0.0045
559.5532	0.0022
559.7473	-0.0023
559.9415	-0.0013
560.1356	0.0218
560.3297	0.0045
560.5238	0.0021
560.7179	-0.0017
560.9119	0.0052
561.106	0.004
561.3	0.0116
561.494	-0.0139
561.688	-0.0011
561.882	0.0046
562.076	0.0048
562.2699	0.0081
562.4639	0.0122
562.6578	0.0064
562.8517	0.0068
563.0456	0.0037
563.2395	0.0087
563.4333	0.0124
563.6272	0.0123
563.821	0.0022
564.0148	0.0153
564.2086	0.0093
564.4024	0.017
564.5961	0.0039
564.7899	0.0123
564.9836	-0.0017
565.1773	0.0182
565.371	0.0052
565.5647	-0.0014
565.7584	0.0102
565.952	0.0076
566.1456	0.0054
566.3393	0.0044
566.5329	0.0005
566.7264	0.0046
566.92	0.0063
567.1136	0.0029
567.3071	-0.0078
567.5006	0.0026
567.6941	0.0038
567.8876	0.0018
568.0811	0.0165
568.2745	0.0003
568.468	0.0026
568.6614	0.0114
568.8548	0.0076
569.0482	0.0084
569.2416	0.0057
569.4349	0.0057
569.6283	0.0072
569.8216	0.0091
570.0149	0.0004
570.2082	0.0066
570.4015	0.0044
570.5947	0.0076
570.788	0.0061
570.9812	0.0058
571.1744	0.0041
571.3676	0.0029
571.5608	-0.0002
571.754	0.0078
571.9471	0.0087
572.1402	0.0048
572.3333	0.0041
572.5264	0.0036
572.7195	-0.0003
572.9126	0.0034
573.1057	0.0074
573.2987	0.0078
573.4917	0.0054
573.6847	-0.0001
573.8777	0.005
574.0707	0.0051
574.2636	0.0063
574.4566	0.0018
574.6495	0.0058
574.8424	0.0082
575.0353	0.0055
575.2281	0.0036
575.421	-0.0008
575.6138	0.0022
575.8067	0.0057
575.9995	0.0025
576.1923	0.0066
576.385	0.0068
576.5778	0.0081
576.7706	0.0069
576.9633	0.0066
577.156	0.0001
577.3487	0.005
577.5414	0
577.734	0.0036
577.9267	0.0041
578.1193	0.006
578.3119	0.0008
578.5045	0.0081
578.6971	-0.0007
578.8897	0.0054
579.0822	0.0097
579.2747	0.0053
579.4673	0.0107
579.6598	0.0037
579.8522	0.0023
580.0447	0.0071
580.2372	0.0115
580.4296	0.0101
580.622	0.0076
580.8144	0.0048
581.0068	0.0035
581.1992	0.0038
581.3915	-0.0001
581.5839	0.0062
581.7762	0.0046
581.9685	0.0046
582.1608	0.0077
582.353	0.001
582.5453	0.0074
582.7375	0.0056
582.9298	-0.003
583.122	-0.0003
583.3142	0.0032
583.5063	0.0034
583.6985	0.0004
583.8906	0.002
584.0827	0.0073
584.2749	0.0043
584.4669	0.0015
584.659	0.0083
584.8511	0.0105
585.0431	0.0082
585.2352	0.0042
585.4272	0.0056
585.6192	0.0051
585.8111	0.0053
586.0031	0.0006
586.195	0.0029
586.387	0.0023
586.5789	0.0074
586.7708	0.0063
586.9627	0.0071
587.1545	0.0067
587.3464	0.0053
587.5382	0.0058
587.73	0.0089
587.9218	0.003
588.1136	0.007
588.3053	0.0058
588.4971	0.003
588.6888	-0
588.8805	0.0073
589.0722	0.0092
589.2639	0.0088
589.4556	0.0036
589.6472	0.0088
589.8389	0.0028
590.0305	0.0016
590.2221	0.0067
590.4137	0.0001
590.6052	-0.0007
590.7968	0.002
590.9883	0.0034
591.1798	0.0006
591.3713	0.0065
591.5628	0.0002
591.7543	0.0021
591.9458	0.0033
592.1372	0.0075
592.3286	0.0039
592.52	0.0037
592.7114	0.0035
592.9028	0.009
593.0941	0.0013
593.2855	0.0013
593.4768	0.0109
593.6681	0.0138
593.8594	0.0061
594.0506	0.0043
594.2419	0.0017
594.4331	0.0065
594.6244	-0.0013
594.8156	0.0007
595.0067	0.001
595.1979	-0.0005
595.3891	0.0043
595.5802	0.0085
595.7713	0.0075
595.9624	0.0113
596.1535	0.0044
596.3446	0.0029
596.5357	0.0053
596.7267	0.0056
596.9177	0.0038
597.1087	0.0018
597.2997	0.003
597.4907	0.002
597.6817	0.0053
597.8726	0.0107
598.0635	0.0033
598.2544	0.005
598.4453	0.0057
598.6362	0.0048
598.827	0.0045
599.0179	0.0004
599.2087	0.0077
599.3995	0.0075
599.5903	0.0082
599.7811	0.007
599.9718	0.0037
600.1626	-0.0001
600.3533	0.003
600.544	0.0039
600.7347	0.0025
600.9254	0.0052
601.116	0.0078
601.3067	0.0025
601.4973	0.0113
601.6879	0.0041
601.8785	0.0075
602.0691	-0.0052
602.2596	0.0101
602.4502	0.0081
602.6407	0.0025
602.8312	0.0011
603.0217	0.0058
603.2122	0.004
603.4027	0.0036
603.5931	0.0031
603.7835	0.0072
603.9739	-0.0045
604.1643	0.0125
604.3547	0.0114
604.5451	0.0122
604.7354	-0.0005
604.9257	0.0001
605.116	-0.0013
605.3063	0.0051
605.4966	0.004
605.6869	0.0079
605.8771	0.0031
606.0673	-0.0003
606.2575	-0.0017
606.4477	0.01
606.6379	0.005
606.8281	0.0064
607.0182	0.0084
607.2083	0.007
607.3985	0.0034
607.5885	0.003
607.7786	0.0075
607.9687	-0.0016
608.1587	0.0142
608.3488	0.0066
608.5388	0.0018
608.7288	0.0008
608.9187	0.0054
609.1087	0.0139
609.2986	0.0082
609.4886	0.0019
609.6785	0.0063
609.8684	-0.0029
610.0582	0.0005
610.2481	-0.001
610.4379	0.007
610.6278	0.0006
610.8176	0.0082
611.0074	0.0027
611.1971	-0.0026
611.3869	0.0063
611.5766	-0.0033
611.7664	0.0134
611.9561	0.0088
612.1458	0.0024
612.3354	0.009
612.5251	0.0008
612.7147	0.0152
612.9044	0.0028
613.094	0.0075
613.2836	-0.0002
613.4731	0.0037
613.6627	0.0037
613.8522	0.0102
614.0417	0.0058
614.2313	0.0054
614.4207	0.0088
614.6102	0.0064
614.7997	0.0077
614.9891	0.0052
615.1785	0.0055
615.3679	0.0098
615.5573	0.0064
615.7467	0.0009
615.9361	0.001
616.1254	0.0088
616.3147	0.015
616.504	0.0104
616.6933	0.006
616.8826	0.0092
617.0718	0.0095
617.2611	-0.0008
617.4503	-0.0026
617.6395	-0.0014
617.8287	0.0093
618.0179	0.0073
618.207	0.0124
618.3961	-0.005
618.5853	-0.0047
618.7744	0.0095
618.9634	0.006
619.1525	0.0072
619.3416	0.0068
619.5306	0.0061
619.7196	0.0169
619.9086	-0.0034
620.0976	-0.0059
620.2866	0.0051
620.4755	-0.0025
620.6645	0.0103
620.8534	-0.0014
621.0423	0.0131
621.2312	0.0001
621.42	-0.0021
621.6089	0.0089
621.7977	0.01
621.9865	0.0008
622.1753	-0.0055
622.3641	-0.0016
622.5529	0.0005
622.7416	0.0031
622.9303	0.0051
623.1191	0.0126
623.3078	0.0014
623.4964	0.0025
623.6851	0.0046
623.8737	-0.0061
624.0624	-0.0054
624.251	0.0074
624.4396	-0.0004
624.6282	0.0094
624.8167	-0.0003
625.0053	0.0065
625.1938	-0.0054
625.3823	0.0196
625.5708	-0.0061
625.7593	-0.01
625.9477	0.0125
626.1362	0.0025
626.3246	0.0045
626.513	0.0084
626.7014	0.0012
626.8898	0.0092
627.0781	0.0063
627.2665	0.0054
627.4548	-0.0018
627.6431	0.0048
627.8314	0.0138
628.0197	0.0089
628.2079	-0
628.3962	0.0007
628.5844	0.0031
628.7726	0.012
628.9608	0.0061
629.1489	0.0069
629.3371	-0.0107
629.5252	0.0027
629.7134	0.0062
629.9015	0.0082
630.0895	-0.004
630.2776	0.0092
630.4657	0.0025
630.6537	0.0029
630.8417	-0.0137
631.0297	0.0075
631.2177	-0.0011
631.4057	0.0167
631.5936	-0.007
631.7815	0.0092
631.9695	0.0125
632.1574	0.0136
632.3452	0.0193
632.5331	-0.0013
632.7209	0.0186
632.9088	-0.0001
633.0966	0.0292
633.2844	0.0062
633.4722	0.017
633.6599	0.0134
633.8477	0.0093
634.0354	0.0135
634.2231	-0.0002
634.4108	0.0059
634.5985	0.0206
634.7861	-0.0105
634.9738	-0.0146
635.1614	0.0246
635.349	0.0016
635.5366	0.0137
635.7242	-0.0055
635.9117	0.0119
636.0993	0.0052
636.2868	0.0036
636.4743	0.0039
636.6618	-0.01
636.8492	0.0014
637.0367	-0.0043
637.2241	0.0071
637.4115	0.0195
637.5989	0.0008
637.7863	0.0236
637.9737	0.012
638.161	0.0003
638.3484	-0.0039
638.5357	0.0052
638.723	0.0091
638.9103	-0.0121
639.0975	0.0108
639.2848	-0.0008
639.472	0.0112
639.6592	-0.0083
639.8464	-0.0048
640.0336	0.0055
640.2208	0.0072
640.4079	-0.0012
640.595	-0.0013
640.7821	0.0048
640.9692	-0.005
641.1563	0.0032
641.3434	0.0084
641.5304	0.0125
641.7174	0.004
641.9044	0.0069
642.0914	0.0195
642.2784	0.0085
642.4653	0.0063
642.6523	-0.0042
642.8392	0.0019
643.0261	0.0153
643.213	-0.006
643.3999	0.0157
643.5867	0.0051
643.7735	-0.0058
643.9604	0.005
644.1472	0.0147
644.3339	-0.0183
644.5207	-0.013
644.7075	0.0096
644.8942	0.0006
645.0809	0.003
645.2676	-0.0124
645.4543	-0.0061
645.6409	0.0166
645.8276	0.007
646.0142	-0.0252
646.2008	0.0121
646.3874	-0.0188
646.574	-0.0139
646.7605	-0.0018
646.9471	-0.0056
647.1336	-0.0146
647.3201	0.0066
647.5066	0.0127
647.6931	-0.0093
647.8795	0.0128
648.0659	0.0028
648.2524	0.0064
648.4388	-0.0001
648.6252	-0.0054
648.8115	0.0075
648.9979	0.0004
649.1842	-0.0011
649.3705	0.0084
649.5568	-0.013
649.7431	-0.0107
649.9294	-0.0146
650.1156	-0.0205
650.3018	-0.0008
650.488	0.0133
650.6742	0.0179
650.8604	-0.0043
651.0466	0.0068
651.2327	0.0056
651.4188	0.0035
651.6049	0.017
651.791	0.0076
651.9771	0.0045
652.1632	0.0059
652.3492	-0.0008
652.5352	0.0063
652.7212	0.009
652.9072	0.0088
653.0932	0.0171
653.2791	0.0181
653.465	-0.0022
653.651	-0.0133
653.8369	0.0132
654.0227	0.0016
654.2086	0.006
654.3944	0.0182
654.5803	0.005
654.7661	0.0058
654.9519	-0.0003
655.1377	-0.0001
655.3234	-0.0001
655.5092	-0.0001
655.6949	-0.0001
655.8806	-0.0001
656.0663	-0.0001
656.2519	-0.0001
656.4376	-0.0001
656.6232	-0.0001
656.8088	-0.0001
656.9945	-0.0001
657.18	-0.0001
657.3656	-0.0001
657.5511	-0.0001
657.7367	-0.0001
657.9222	-0.0001
658.1077	-0.0001
658.2932	-0.0001
658.4786	-0.0001
658.6641	-0.0001
658.8495	-0.0001
659.0349	-0.0001
659.2203	-0.0001
659.4057	-0.0001
659.591	0.1604
659.7764	0.0338
659.9617	0.0114
660.147	0.0021
660.3323	0.01
660.5176	0.0006
660.7028	-0.0037
660.888	0.0089
661.0733	0.0255
661.2585	-0.0096
661.4436	0.0206
661.6288	0.0232
661.8139	0.0012
661.9991	-0.0117
662.1842	0.0166
662.3693	-0.0003
662.5544	0.0107
662.7394	0.0116
662.9245	-0.0133
663.1095	-0.0315
663.2945	-0.017
663.4795	0.0059
663.6644	0.0087
663.8494	-0.0014
664.0343	0.0123
664.2193	-0.0097
664.4042	-0.0082
664.589	0.0034
664.7739	0.028
664.9587	-0.0072
665.1436	-0.0085
665.3284	-0.0021
665.5132	0.0073
665.698	0.0035
665.8827	0.0179
666.0675	-0.0186
666.2522	0.0099
666.4369	0.0028
666.6216	-0.0055
666.8063	-0.0111
666.9909	-0.0071
667.1756	-0.0044
667.3602	-0.004
667.5448	0.0005
667.7294	0.0125
667.9139	-0.0087
668.0985	0.0282
668.283	0.0016
668.4675	0.0328
668.652	0.0047
668.8365	-0.0109
669.0209	0.0299
669.2054	-0.002
669.3898	0.0114
669.5742	0.0104
669.7586	0.0142
669.943	0.0104
670.1273	0.0069
670.3117	-0.0007
670.496	0.0093
670.6803	0.0026
670.8646	-0.0262
671.0488	0.0219
671.2331	-0.018
671.4173	0.0133
671.6015	0.0093
671.7857	0.0188
671.9699	0.0125
672.1541	-0.0021
672.3382	0.0157
672.5223	0.0045
672.7064	-0.0042
672.8905	-0.0058
673.0746	0.0078
673.2587	0.0242
673.4427	0.0042
673.6267	0.0248
673.8107	0.0203
673.9947	0.0147
674.1787	0.0005
674.3626	0.0139
674.5465	-0.0058
674.7304	0.0344
674.9143	-0.0186
675.0982	-0.0197
675.2821	-0.0092
675.4659	-0.0041
675.6497	0.007
675.8335	0.0114
676.0173	-0.0065
676.2011	-0.0092
676.3849	-0.022
676.5686	0.0107
676.7523	0.0133
676.936	0.0092
677.1197	-0.0061
677.3034	0.0338
677.487	0.0132
677.6706	0.0098
677.8542	-0.0153
678.0378	0.008
678.2214	-0.0063
678.405	0.009
678.5885	0.0246
678.772	0.0001
678.9555	0.0041
679.139	0.0007
679.3225	-0.0088
679.5059	0.0017
679.6894	0.012
679.8728	0.0092
680.0562	-0.002
680.2395	-0.0024
680.4229	-0.0045
680.6062	0.0163
680.7896	-0.0159
680.9729	0.0121
681.1562	0.0013
681.3394	0.0065
681.5227	0.0118
681.7059	-0.0013
681.8891	0.001
682.0723	0.0026
682.2555	-0.0038
682.4387	-0.0017
682.6218	-0.0073
682.805	0.0124
682.9881	0.0196
683.1712	0.0058
683.3542	0.0065
683.5373	-0.02
683.7203	0.0077
683.9034	-0.0099
684.0864	0.0085
684.2694	0.0049
684.4523	0.003
684.6353	-0.0043
684.8182	0.0088
685.0011	0.0085
685.184	-0.002
685.3669	0.0248
685.5498	-0.0051
685.7326	-0.0112
685.9154	-0.004
686.0982	0.0047
686.281	-0.0022
686.4638	0.0058
686.6465	0.0039
686.8293	-0.0181
687.012	0.0165
687.1947	-0.0082
687.3774	0.0119
687.56	0.0002
687.7427	-0.0087
687.9253	-0.0329
688.1079	0.004
688.2905	0.0276
688.4731	0.0139
688.6556	0.0227
688.8382	-0.0248
689.0207	0.0067
689.2032	0.0139
689.3857	-0.0017
689.5681	0.0177
689.7506	0.0227
689.933	0.0133
690.1154	-0.0015
690.2978	0.0052
690.4802	0.0127
690.6626	0.0174
690.8449	0.0065
691.0272	-0.0044
691.2095	-0.0119
691.3918	0.0101
691.5741	0.0099
691.7563	0.0131
691.9386	0.0051
692.1208	0.0073
692.303	0.0176
692.4852	-0.0015
692.6673	0.0037
692.8495	-0.018
693.0316	0.0116
693.2137	0.02
693.3958	0.0179
693.5778	-0.0016
693.7599	-0.0156
693.9419	-0.0138
694.1239	0.022
694.3059	0.0226
694.4879	-0.0023
694.6699	-0.0057
694.8518	0.005
695.0337	0.01
695.2157	0.0286
695.3975	-0.0052
695.5794	-0.0119
695.7613	0.0011
695.9431	-0.0313
696.1249	0.0161
696.3067	-0.0003
696.4885	0.0202
696.6703	-0.0007
696.852	-0.0071
697.0337	0.0192
697.2154	0.003
697.3971	-0.0061
697.5788	0.0108
697.7605	-0.0159
697.9421	0.0239
698.1237	0.0127
698.3053	0.0069
698.4869	-0.0006
698.6685	-0.0025
698.85	0.0137
699.0315	-0.0004
699.213	0.0228
699.3945	-0.0148
699.576	-0.0055
699.7575	-0.0045
699.9389	-0.0128
700.1203	0.0136
700.3017	0.0106
700.4831	0.0266
700.6645	0.0266
700.8458	-0.0145
701.0271	0.0332
701.2084	0.0018
701.3897	0.0189
701.571	-0.0186
701.7523	0.01
701.9335	0.0157
702.1147	0.0154
702.2959	-0.0169
702.4771	0.0194
702.6583	0.0153
702.8394	-0.0028
703.0205	0.0257
703.2016	0.0035
703.3827	-0.0055
703.5638	-0.0054
703.7449	0.0145
703.9259	0.0198
704.1069	-0.0126
704.2879	0.0038
704.4689	-0.0067
704.6499	0.031
704.8308	0.0281
705.0117	0.0228
705.1927	0.0053
705.3735	-0.0134
705.5544	-0.0077
705.7353	-0.0202
705.9161	-0.0322
706.0969	-0.0015
706.2777	-0.0064
706.4585	0.0045
706.6393	0.01
706.82	0.0048
707.0007	0.0041
707.1815	0.0063
707.3621	0.0286
707.5428	0.0083
707.7235	0.0061
707.9041	-0.012
708.0847	0.0051
708.2653	0.0144
708.4459	0.0047
708.6265	-0.0001
708.807	0.0277
708.9875	-0.0038
709.168	0.002
709.3485	0.0054
709.529	-0.0008
709.7095	-0.01
709.8899	0.0078
710.0703	-0.0016
710.2507	0.0049
710.4311	-0.0122
710.6115	0.0343
710.7918	0.0297
710.9721	0.0009
711.1524	-0.0157
711.3327	-0.0175
711.513	-0.0013
711.6932	-0.0089
711.8735	0.0198
712.0537	0.004
712.2339	-0.0132
712.4141	0.0341
712.5942	-0.0246
712.7744	0.0099
712.9545	0.0112
713.1346	0.024
713.3147	0.0002
713.4947	-0.0053
713.6748	0.0068
713.8548	0.0125
714.0348	0.0124
714.2148	0.0089
714.3948	0.0144
714.5748	0.0043
714.7547	0.0046
714.9346	0.0061
715.1145	-0.0154
715.2944	-0.0154
715.4743	0.0466
715.6541	-0.0082
715.834	0.0365
716.0138	0.0213
716.1936	0.0014
716.3733	-0.013
716.5531	-0.0263
716.7328	0.0135
716.9126	0.0008
717.0923	-0.0349
717.2719	-0.0073
717.4516	0.0099
717.6312	-0.0064
717.8109	0.0267
717.9905	0.0162
718.1701	0.0099
718.3496	-0.004
718.5292	0.0075
718.7087	0.0166
718.8882	0.0171
719.0677	-0.0142
719.2472	-0.0051
719.4267	-0.0056
719.6061	0.0151
719.7856	0.0234
719.965	-0.0134
720.1443	-0.006
720.3237	-0.0149
720.5031	-0.0028
720.6824	0.0091
720.8617	-0.0159
721.041	0.0396
721.2203	-0.0264
721.3995	-0.0181
721.5788	-0.0025
721.758	-0.0043
721.9372	0.0031
722.1164	0.0007
722.2956	-0.0105
722.4747	0.0127
722.6538	0.0097
722.8329	0.0241
723.012	0.011
723.1911	-0.0023
723.3702	0.0071
723.5492	-0.0048
723.7282	0.0055
723.9072	0.0119
724.0862	0.0057
724.2652	0.0055
724.4441	0.0089
724.623	-0.0053
724.8019	-0.0121
724.9808	-0.0049
725.1597	-0.0048
725.3385	-0.0121
725.5174	-0.0038
725.6962	0.0109
725.875	0.0289
726.0538	0.0129
726.2325	0.0151
726.4112	-0.0141
726.59	0.0192
726.7687	-0.0195
726.9474	0.0015
727.126	0.02
727.3047	-0.0133
727.4833	0.0136
727.6619	-0.0097
727.8405	-0.0172
728.0191	0.0385
728.1976	-0.0144
728.3762	-0.0201
728.5547	-0.0088
728.7332	0.0189
728.9116	-0.0011
729.0901	0.0228
729.2686	0.0027
729.447	0.026
729.6254	0.0085
729.8038	0.0012
729.9821	-0.0377
730.1605	0.0057
730.3388	-0.013
730.5171	0.0036
730.6954	-0.0055
730.8737	0.0127
731.0519	-0.0209
731.2302	0.0133
731.4084	0.0086
731.5866	-0.0053
731.7648	-0.0025
731.9429	0.0117
732.1211	-0.0149
732.2992	-0.0134
732.4773	-0.0001
732.6554	0.0096
732.8335	0.0273
733.0115	0.0073
733.1896	-0.0043
733.3676	0.0142
733.5456	0.0024
733.7235	0.0048
733.9015	0.0074
734.0794	-0.0092
734.2574	-0.0068
734.4353	0.0097
734.6131	0.003
734.791	-0.0101
734.9689	-0.0124
735.1467	-0.0174
735.3245	0.0188
735.5023	0.0062
735.68	-0.005
735.8578	0.0141
736.0355	-0.0137
736.2132	-0.0064
736.3909	0.0164
736.5686	-0.0044
736.7463	-0.0243
736.9239	0.0074
737.1015	-0.0068
737.2791	0.0056
737.4567	0.0086
737.6343	-0.0327
737.8118	0.0045
737.9894	-0.005
738.1669	-0.0001
738.3444	0.0222
738.5218	-0.0183
738.6993	0.0103
738.8767	0.0167
739.0541	0.0029
739.2315	0.0026
739.4089	0.0129
739.5863	0.0098
739.7636	0.002
739.9409	0.0094
740.1182	-0.0089
740.2955	0.0046
740.4728	-0.0151
740.65	-0.0121
740.8272	0.0267
741.0044	-0.0075
741.1816	0.0104
741.3588	-0.0324
741.5359	-0.0046
741.7131	-0.0191
741.8902	-0.0022
742.0673	-0.0342
742.2444	0.0143
742.4214	-0.0005
742.5985	-0.0096
742.7755	0.0099
742.9525	-0.0194
743.1295	-0.0165
743.3064	0.0052
743.4834	-0.0109
743.6603	0.0264
743.8372	-0.0469
744.0141	0.0168
744.191	-0.008
744.3678	-0.0258
744.5446	0.0071
744.7215	0.0052
744.8982	0.0234
745.075	0.0211
745.2518	0.0174
745.4285	0.0042
745.6052	-0.0226
745.7819	-0.0048
745.9586	0.0117
746.1353	0.0096
746.3119	-0.0349
746.4885	0.0118
746.6651	0.0068
746.8417	-0.0039
747.0183	0.0262
747.1948	0.0029
747.3714	0.0161
747.5479	0.0495
747.7244	-0.0302
747.9008	0.0032
748.0773	0.0403
748.2537	-0.0248
748.4301	0.0037
748.6065	0.0008
748.7829	-0.0169
748.9593	-0.0069
749.1356	0.0065
749.3119	-0.0023
749.4882	-0.0027
749.6645	-0.0129
749.8408	0.023
750.017	0.0189
750.1933	-0.0148
750.3695	0.0002
750.5457	-0.0048
750.7218	-0.0017
750.898	-0.0217
751.0741	-0.0083
751.2502	0.0061
751.4263	-0.0116
751.6024	-0.0049
751.7784	-0.004
751.9545	0.0114
752.1305	0.0256
752.3065	0.0153
752.4825	0.0145
752.6584	-0.004
752.8344	-0.0206
753.0103	-0.036
753.1862	0.0196
753.3621	-0.0092
753.5379	-0.0077
753.7138	0.0182
753.8896	-0.0067
754.0654	-0.0102
754.2412	0.0408
754.417	0.0247
754.5927	0.0237
754.7685	0.0024
754.9442	0.0057
755.1199	0.0022
755.2956	0.0047
755.4712	0.0107
755.6469	0.0104
755.8225	-0.0114
755.9981	0.0082
756.1736	-0.0038
756.3492	-0.0214
756.5248	0.0139
756.7003	0.0015
756.8758	-0.005
757.0513	0.0052
757.2267	0.0121
757.4022	-0.002
757.5776	0.0029
757.753	0.0246
757.9284	0.0043
758.1038	0.0079
758.2791	0.0191
758.4545	-0.0223
758.6298	0.0179
758.8051	-0.0021
758.9803	0.0045
759.1556	-0.0071
759.3308	-0.0099
759.506	-0.0042
759.6812	-0.0043
759.8564	-0.0032
760.0316	-0.0062
760.2067	0.0281
760.3819	0.0032
760.557	0.0199
760.732	0.0132
760.9071	0.0004
761.0821	0.0026
761.2572	-0.0028
761.4322	0.0017
761.6072	0.0016
761.7821	-0.0365
761.9571	-0.0019
762.132	0.0064
762.3069	0.0195
762.4818	0.0249
762.6567	-0.017
762.8316	0.0115
763.0064	0.0155
763.1812	0.008
763.356	-0.023
763.5308	0.0121
763.7055	0.0074
763.8803	0.0027
764.055	-0.0008
764.2297	0.0009
764.4044	0.0053
764.579	-0.0035
764.7537	0.002
764.9283	-0.0094
765.1029	0.0099
765.2775	0.0118
765.4521	-0.0057
765.6266	0.0171
765.8011	0.0109
765.9756	0.0127
766.1501	-0.0043
766.3246	-0.0029
766.4991	0.011
766.6735	0.0332
766.8479	0.0004
767.0223	-0.0061
767.1967	0.013
767.371	0.0055
767.5454	0.0112
767.7197	0.048
767.894	-0.0073
768.0683	0.0292
768.2425	0.0023
768.4168	0.0299
768.591	-0.0008
768.7652	-0.0189
768.9394	-0.0328
769.1135	-0.0307
769.2877	-0.0006
769.4618	0.0275
769.6359	0.01
769.81	-0.0026
769.984	0.004
770.1581	-0.0174
770.3321	0.0264
770.5061	0.0017
770.6801	0.008
770.8541	-0.0039
771.028	0.0273
771.202	0.0218
771.3759	0.0286
771.5498	-0.0026
771.7236	-0.0019
771.8975	0.0339
772.0713	-0.002
772.2451	-0.0002
772.4189	-0.0238
772.5927	-0.0256
772.7665	-0.0249
772.9402	0.0104
773.1139	-0.0062
773.2876	0.0235
773.4613	0.0537
773.635	0.036
773.8086	0.0265
773.9822	0.0132
774.1558	0.0484
774.3294	-0.0076
774.503	-0.0257
774.6765	0.0344
774.8501	-0.0228
775.0236	0.0318
775.1971	-0.0298
775.3705	-0.0222
775.544	-0.0403
775.7174	-0.0218
775.8908	-0.0115
776.0642	0.033
776.2376	-0.0061
776.4109	0.0084
776.5843	0.005
776.7576	0.0414
776.9309	0.0672
777.1041	-0.0211
777.2774	-0.0028
777.4506	0.0014
777.6238	-0.0396
777.797	0.0061
777.9702	-0.0112
778.1434	-0.0014
778.3165	-0.0093
778.4896	-0.0249
778.6627	-0.0033
778.8358	-0.0233
779.0089	-0.0224
779.1819	0.0391
779.3549	0.0098
779.5279	-0.0105
779.7009	0.0389
779.8739	0.0853
780.0468	0.0222
780.2197	0.0051
780.3926	-0.0485
780.5655	0.0288
780.7384	-0.0451
780.9112	0.0234
781.0841	0.0022
781.2569	-0.0126
781.4297	-0.0214
781.6024	-0.0006
781.7752	0.0171
781.9479	0.0416
782.1206	-0.0028
782.2933	-0.0158
782.466	0.0233
782.6386	-0.0305
782.8113	0.0122
782.9839	-0.002
783.1565	-0.0105
783.329	0.0133
783.5016	0.009
783.6741	-0.0026
783.8466	0.0375
784.0191	0.0151
784.1916	-0.0314
784.3641	-0.0408
784.5365	0.0176
784.7089	-0.0293
784.8813	0.0554
785.0537	0.013
785.2261	-0.0076
785.3984	0.0145
785.5707	-0.0211
785.743	0.0541
785.9153	-0.0323
786.0876	-0.0304
786.2598	-0.0333
786.432	-0.0198
786.6042	0.0518
786.7764	-0.0213
786.9486	-0.0225
787.1207	0.0155
787.2928	0.0437
787.4649	-0.0066
787.637	0.047
787.8091	-0.0054
787.9811	0.0306
788.1532	0.0021
788.3252	0.02
788.4972	0.0212
788.6691	0.0195
788.8411	-0.0242
789.013	0.0276
789.1849	-0.0217
789.3568	-0.0165
789.5287	0.0117
789.7005	-0.0594
789.8723	-0.0087
790.0442	-0.0003
790.2159	0.0176
790.3877	0.0368
790.5595	0.0692
790.7312	-0.0227
790.9029	-0.0223
791.0746	0.0134
791.2463	-0.0549
791.4179	0.006
791.5896	-0.0023
791.7612	0.0471
791.9328	0.0161
792.1044	-0.0094
792.2759	-0.0658
792.4474	0.0309
792.619	0.0763
792.7905	0.0327
792.9619	0.0198
793.1334	0.0357
793.3048	0.0511
793.4762	0.0195
793.6476	-0.0135
793.819	0.0072
793.9904	-0.008
794.1617	-0.0125
794.333	0.023
794.5043	0.0301
794.6756	-0.0177
794.8469	0.0153
795.0181	-0.0002
795.1893	0.0248
795.3605	0.0308
795.5317	-0.0324
795.7029	0.0014
795.874	-0.0248
796.0452	-0.0114
796.2163	0.0778
796.3873	0.122
796.5584	-0.0069
796.7294	-0.0151
796.9005	0.0144
797.0715	0.0011
797.2425	0.0463
797.4134	0.0902
797.5844	0.0384
797.7553	-0.0214
797.9262	0.0617
798.0971	0.0421
798.2679	-0.0205
798.4388	0.0446
798.6096	-0.0045
798.7804	0.0119
798.9512	0.0662
799.122	-0.0118
799.2927	0.0036
799.4635	-0.074
799.6342	-0.0591
799.8049	-0.0174
799.9755	-0.0652
800.1462	-0.0045
800.3168	0.0211
800.4874	-0.0879
800.658	-0.0078
800.8286	0.0026
800.9991	-0.0366
801.1696	0.0083
801.3402	0.0157
801.5106	-0.1319
801.6811	-0.0146
801.8516	0.0124
802.022	0.062
802.1924	-0.068
802.3628	-0.0363
802.5332	0.0157
802.7035	0.0123
802.8739	-0.096
803.0442	-0.0295
803.2145	-0.0381
803.3847	0.0503
803.555	0.0375
803.7252	-0.0314
803.8954	-0.1288
804.0656	0.0227
804.2358	-0.0167
804.4059	0.059
804.5761	-0.01
804.7462	0.0134
804.9163	-0.0144
805.0864	-0.0388
805.2564	-0.0953
805.4264	0.0575
805.5965	0.0745
805.7665	-0.0256
805.9364	0.0487
806.1064	-0.0253
806.2763	-0.0295
806.4462	0.009
806.6161	0.0203
806.786	-0.0503
806.9559	-0.0071
807.1257	-0.0153
807.2955	-0.0212
807.4653	-0.0063
807.6351	0.0365
807.8048	-0.0444
807.9746	0.0724
808.1443	-0.0608
808.314	0.0126
808.4837	0.0148
808.6533	0.0154
808.8229	0.0179
808.9926	0.0591
809.1622	-0.0221
809.3317	0.0046
809.5013	-0.0681
809.6708	-0.0506
809.8403	-0.0038
810.0098	-0.0476
810.1793	-0.0858
810.3488	-0.0083
810.5182	0.0467
810.6876	0.0032
810.857	-0.0073
811.0264	-0.0639
811.1958	0.009
811.3651	-0.0559
811.5344	-0.0283
811.7037	0.0381
811.873	0.0342
812.0422	-0.1179
812.2115	0.0063
812.3807	-0.1685
812.5499	-0.0474
812.7191	-0.0908
812.8882	-0.0427
813.0574	-0.1004
813.2265	-0.0116
813.3956	0.102
813.5646	0.0371
813.7337	0.0309
813.9027	-0.1338
814.0718	0.0881
814.2407	0.0175
814.4097	0.0812
814.5787	0.0726
814.7476	0.0487
814.9165	-0.0464
815.0854	-0.0351
815.2543	-0.0494
815.4232	0.0841
815.592	0.088
815.7608	-0.111
815.9296	0.0399
816.0984	-0.0349
816.2671	-0.1411
816.4359	0.0586
816.6046	-0.013
816.7733	-0.0676
816.942	-0.0488
817.1106	0.035
817.2793	-0.1338
817.4479	-0.0538
817.6165	0.0657
817.785	-0.0141
817.9536	0.0333
818.1221	-0.0188
818.2906	-0.0011
818.4591	0.056
818.6276	-0.0706
818.7961	-0.0712
818.9645	0.1388
819.1329	0.1181
819.3013	0.0458
819.4697	-0.0719
819.638	0.0215
819.8064	-0.0234
819.9747	-0.0326
820.143	-0.1092
820.3113	0.028
820.4795	-0.0323
820.6477	0.1204
820.816	-0.0227
820.9842	0.0175
821.1523	-0.0996
821.3205	0.0351
821.4886	-0.0027
821.6567	-0.0633
821.8248	0.1089
821.9929	-0.0998
822.1609	-0.0395
822.329	-0.0323
822.497	0.0485
822.665	0.221
822.833	0.0421
823.0009	-0.0692
823.1688	0.2123
823.3367	-0.3086
823.5046	0.1541
823.6725	-0.1228
823.8404	-0.0063
824.0082	0.0241
824.176	-0.0708
824.3438	0.0334
824.5116	-0.0137
824.6793	0.2349
824.847	-0.03
825.0147	-0.023
825.1824	-0.0401
825.3501	-0.0445
825.5177	-0.0046
825.6854	0.0571
825.853	-0.1138
826.0206	-0.0188
826.1881	0.0406
826.3557	0.1968
826.5232	-0.0185
826.6907	0.0259
826.8582	-0.0459
827.0257	0.2091
827.1931	0.1044
827.3605	-0.0307
827.528	-0.1745
827.6953	-0.2072
827.8627	-0.0748
828.03	0.0356
828.1974	-0.1377
828.3647	-0.0589
828.532	-0.0607
828.6992	0.0563
828.8665	-0.2821
829.0337	0.0258
829.2009	-0.209
829.3681	0.0184
829.5352	-0.1955
829.7024	-0.0546
829.8695	0.0424
830.0366	0.1738
830.2037	0.1713
830.3707	-0.0505
830.5378	-0.1378
830.7048	-0.1778
830.8718	0.0161
831.0388	0.1641
831.2057	-0.1136
831.3727	-0.2358
831.5396	-0.0809
831.7065	-0.8006
831.8734	0.2753
832.0402	0.1879
832.2071	-0.5481
832.3739	0.0446
832.5407	-1.6641
832.7075	-0.3609
832.8742	0.1044
833.041	0.1028
833.2077	0.016
833.3744	0.2724
833.541	-0.1219
833.7077	0.1189
833.8743	0.2756
834.0409	0.0687
834.2075	0.0687
834.3741	-0.3776
834.5407	-0.0728
834.7072	0.1171
834.8737	0.261
835.0402	0.1832
835.2067	0.0616
835.3731	-0.0227
835.5395	-0.1253
835.706	-0.3389
835.8723	-0.2121
836.0387	0.0507
836.2051	0.0485
836.3714	-0.0535
836.5377	0.0218
836.704	0.1748
836.8703	-0.2808
837.0365	-0.8754
837.2027	0.4602
837.3689	-0.1204
837.5351	0.0117
837.7013	-0.1797
837.8674	-0.5721
838.0335	-0.0904
838.1997	-0.2937
838.3657	-0
838.5318	-0.1021
838.6978	-0.195
838.8639	-0.4203
839.0299	0.0115
839.1958	0.0172
839.3618	0.2362
839.5277	0.0734
839.6937	-0.3049
839.8596	-0.2604
840.0254	-0.2165
840.1913	-0.2618
840.3571	0.0492
840.523	-0
840.6888	0.0712
840.8545	-0.415
841.0203	-0.0422
841.186	0.4909
841.3517	-0.1886
841.5174	0.1852
841.6831	0.171
841.8488	-0.0272
842.0144	0.188
842.18	-0.0243
842.3456	-0.6704
842.5112	-0
842.6767	-0.1037
842.8422	-0.1235
843.0077	0.1914
843.1732	-0.007
843.3387	-0
843.5042	-0
843.6696	0.0425
843.835	-0.04
844.0004	-0.2624
844.1657	-0.6403
844.3311	-0.5056
844.4964	-0
844.6617	0.174
844.827	-0
844.9923	0.197
845.1575	0.0955
845.3227	-0.3895
845.4879	-0.415
845.6531	-0.0701
845.8183	0.2316
845.9834	-0
846.1485	0.1031
846.3136	-0.1055
846.4787	-0
846.6438	-0.306
846.8088	0.0963
846.9738	-0
847.1388	0.1467
847.3038	-0.1833
847.4687	-0
847.6337	-0.4656
847.7986	-0.3713
847.9635	-0.1469
848.1284	0.2222
848.2932	0.6014
848.458	-0
848.6228	0.0593
848.7876	-0
848.9524	-0.3429
849.1172	-1.7645
849.2819	-0
849.4466	0.1231
849.6113	-0.0027
849.7759	0.2898
849.9406	-0.2578
850.1052	-0.083
850.2698	-0.083
850.4344	-0.8184
850.599	-0.3325
850.7635	-0.0948
850.928	-0
851.0925	0.2502
851.257	-0.0423
851.4215	0.089
851.5859	0.2534
851.7503	-0
851.9147	-0.2662
852.0791	-0.341
852.2434	0.1807
852.4078	-0
852.5721	0.7789
852.7364	-0.1363
852.9007	-0.3171
853.0649	-0
853.2291	-0.1165
853.3934	-0
853.5575	-0.3384
853.7217	0.3996
853.8859	-0
854.05	-0.3337
854.2141	1.8129
854.3782	-0.2989
854.5423	0.0168
854.7063	-0.1637
854.8703	-0.0173
855.0343	0.4508
855.1983	0.3303
855.3623	-0.2009
855.5262	-0
855.6901	-0.0424
855.854	-0.0871
856.0179	-0.1024
856.1818	-0
856.3456	0.6529
856.5094	-0.24
856.6732	-0.5738
856.837	-1.5652
857.0008	-0.0627
857.1645	-0.3701
857.3282	-0.2973
857.4919	-0.1119
857.6556	-0.4444
857.8192	-0.2408
857.9828	-0.226
858.1465	-0.1165
858.31	-0
858.4736	-0.5852
858.6372	-0
858.8007	0.6403
858.9642	0.0937
859.1277	-0
859.2911	-0.547
859.4546	-0
859.618	0.1171
859.7814	-0
859.9448	-0
860.1081	-0
860.2715	-1.074
860.4348	0.1474
860.5981	-0
860.7614	-0.4536
860.9246	0.2056
861.0879	-0.066
861.2511	-0
861.4143	-0.8819
861.5774	-0.4012
861.7406	-0.3464
861.9037	-0
862.0668	-0.8147
862.2299	0.0261
862.393	-0
862.556	-0
862.7191	-0.2374
862.8821	0.184
863.0451	-0.2097
863.208	0.3277
863.371	-0.4071
863.5339	0.3343
863.6968	-0.0811
863.8597	-0.3378
864.0225	-0.2876
864.1854	-0
864.3482	-1.049
864.511	0.0446
864.6737	-0
864.8365	-0.0822
864.9992	0.3633
865.1619	-0.2532
865.3246	-1.7042
865.4873	-0.6506
865.65	-0.0919
865.8126	0.6145
865.9752	-0.0853
866.1378	1.256
866.3004	-0.134
866.4629	-1.5333
866.6254	0.4709
866.7879	0.415
866.9504	-0
867.1129	0.0527
867.2753	-0.3051
867.4377	-0
867.6001	-0
867.7625	-0.2081
867.9249	0.013
868.0872	0.1356
868.2495	0.6473
868.4118	-0
868.5741	-0
868.7363	-0
868.8986	-0.2236
869.0608	-0
869.223	-0.2457
869.3851	-0
869.5473	0.0516
869.7094	-0
869.8715	-0.5892
870.0336	0.0501
870.1957	-0.0774
870.3577	0.269
870.5197	-0.3955
870.6817	-0.9133
870.8437	0.0701
871.0057	0.1899
871.1676	0.325
871.3295	-0
871.4914	-0
871.6533	-0.4531
871.8151	-0
871.977	-0.2038
872.1388	0.09
872.3006	-0.2967
872.4623	-0.9051
872.6241	-0
872.7858	-0.0449
872.9475	-0
873.1092	-0.0793
873.2709	0.2148
873.4325	-1.7771
873.5941	-0
873.7557	0.8781
873.9173	-0.0191
874.0789	0.2919
874.2404	1.1016
874.4019	-0.1389
874.5634	-0
874.7249	-0
874.8863	0.1242
875.0478	-0.149
875.2092	0.6017
875.3706	-0.0141
875.5319	0.3466
875.6933	-0.1047
875.8546	0.1675
876.0159	-0
876.1772	-0.6611
876.3385	-0
876.4997	-0.0907
876.6609	0.3762
876.8221	-0
876.9833	-0
877.1445	0.2661
877.3056	-0
877.4667	-0.1725
877.6278	0.45
877.7889	-0
877.9499	-0
878.111	-0.3536
878.272	-0
878.433	-0.1578
878.5939	-0.4839
878.7549	-0
878.9158	-0
879.0767	0.6634
879.2376	0.2599
879.3984	0.3378
879.5593	0.3904
879.7201	-1.5749
879.8809	-0.3234
880.0417	-0.2888
880.2024	0.1344
880.3632	-0.4666
880.5239	0.179
880.6846	-0.5275
880.8452	-0.2171
881.0059	-0.9083
881.1665	0.3652
881.3271	-0
881.4877	0.2194
881.6483	-0
881.8088	-0
881.9693	-1.1727
882.1298	-1.1727
882.2903	-1.1727
