Data from D4ACN5uM440nmA_Absorbance_13-50-25-297.txt Node
Date: Fri Feb 21 13:50:25 GMT 2025
User: LASERRRRR
Spectrometer: FLMT03099
Trigger mode: 0
Integration Time (sec): 1.500000E-2
Scans to average: 1
Electric dark correction enabled: true
Nonlinearity correction enabled: false
Boxcar width: 0
XAxis mode: Wavelengths
Number of Pixels in Spectrum: 3648
>>>>>Begin Spectral Data<<<<<
179.3399	-0.0453
179.5586	-0.0453
179.7771	-0.0453
179.9957	-0.2659
180.2143	-1.5847
180.4329	-0.2112
180.6514	-1.0709
180.8699	-0
181.0885	0.6591
181.307	0.5424
181.5255	0.3733
181.744	-0
181.9625	0.4301
182.181	-0.3688
182.3994	-0.2636
182.6179	-0
182.8363	-0
183.0547	-0.1413
183.2732	0.2625
183.4916	0.5862
183.71	0.3179
183.9284	0.4472
184.1467	0.2613
184.3651	0.0094
184.5835	0.2308
184.8018	0.0654
185.0201	0.0972
185.2385	0.2597
185.4568	0.1553
185.6751	0.089
185.8934	0.2275
186.1117	-0.0531
186.3299	0.1443
186.5482	0.248
186.7664	-0.0432
186.9847	0.0713
187.2029	0.1888
187.4211	0.0935
187.6393	0.0583
187.8575	0.1454
188.0757	0.3838
188.2939	0.1408
188.512	0.1135
188.7302	0.151
188.9483	0.4207
189.1665	0.6889
189.3846	0.3232
189.6027	0.1693
189.8208	0.1731
190.0389	0.229
190.257	0.1808
190.475	0.0497
190.6931	0.0404
190.9111	0.0543
191.1292	0.1931
191.3472	0.1313
191.5652	0.2649
191.7832	0.1341
192.0012	0.258
192.2192	0.3354
192.4371	0.1314
192.6551	0.2142
192.873	0.1743
193.091	0.1715
193.3089	0.1811
193.5268	0.3137
193.7447	0.1707
193.9626	0.317
194.1805	0.2757
194.3984	0.2475
194.6162	0.3093
194.8341	0.4226
195.0519	0.2448
195.2697	0.2344
195.4875	0.3818
195.7054	0.2329
195.9231	0.2864
196.1409	0.2579
196.3587	0.3401
196.5765	0.3292
196.7942	0.3598
197.012	0.3594
197.2297	0.3367
197.4474	0.4887
197.6651	0.3837
197.8828	0.3036
198.1005	0.367
198.3182	0.4525
198.5358	0.4106
198.7535	0.4515
198.9711	0.3856
199.1888	0.3619
199.4064	0.4011
199.624	0.3902
199.8416	0.3953
200.0592	0.4021
200.2767	0.3667
200.4943	0.4784
200.7119	0.4516
200.9294	0.3858
201.1469	0.4157
201.3645	0.4787
201.582	0.4294
201.7995	0.4641
202.017	0.4351
202.2344	0.4188
202.4519	0.3794
202.6694	0.382
202.8868	0.3918
203.1042	0.4077
203.3217	0.3803
203.5391	0.4138
203.7565	0.339
203.9739	0.381
204.1913	0.3454
204.4086	0.3823
204.626	0.3831
204.8433	0.3386
205.0607	0.3748
205.278	0.382
205.4953	0.328
205.7126	0.3673
205.9299	0.3412
206.1472	0.3276
206.3644	0.3474
206.5817	0.306
206.7989	0.3465
207.0162	0.337
207.2334	0.3475
207.4506	0.3301
207.6678	0.314
207.885	0.2871
208.1022	0.3244
208.3194	0.2974
208.5365	0.3178
208.7537	0.2838
208.9708	0.3217
209.1879	0.3125
209.405	0.2706
209.6222	0.2749
209.8392	0.3052
210.0563	0.2854
210.2734	0.2583
210.4905	0.2792
210.7075	0.2774
210.9245	0.2714
211.1416	0.286
211.3586	0.27
211.5756	0.2597
211.7926	0.2754
212.0096	0.2707
212.2265	0.2731
212.4435	0.2724
212.6604	0.2493
212.8774	0.2667
213.0943	0.2515
213.3112	0.2634
213.5281	0.2352
213.745	0.2446
213.9619	0.2522
214.1788	0.2531
214.3956	0.2604
214.6125	0.2646
214.8293	0.2443
215.0461	0.2532
215.2629	0.2523
215.4798	0.2379
215.6965	0.2406
215.9133	0.2456
216.1301	0.2469
216.3469	0.2406
216.5636	0.235
216.7803	0.2417
216.9971	0.2623
217.2138	0.2436
217.4305	0.2406
217.6472	0.2477
217.8639	0.2519
218.0805	0.248
218.2972	0.2449
218.5138	0.2521
218.7305	0.2553
218.9471	0.2506
219.1637	0.2608
219.3803	0.2619
219.5969	0.2552
219.8135	0.264
220.0301	0.2491
220.2466	0.2449
220.4632	0.2606
220.6797	0.2617
220.8962	0.2593
221.1127	0.2727
221.3292	0.2687
221.5457	0.268
221.7622	0.2645
221.9787	0.2823
222.1951	0.2747
222.4116	0.2826
222.628	0.2901
222.8444	0.2661
223.0608	0.2772
223.2772	0.2761
223.4936	0.2796
223.71	0.2872
223.9264	0.2956
224.1427	0.2853
224.3591	0.2791
224.5754	0.2961
224.7917	0.2949
225.008	0.2994
225.2243	0.2995
225.4406	0.2993
225.6569	0.3011
225.8732	0.3053
226.0894	0.2944
226.3057	0.3018
226.5219	0.3214
226.7381	0.3187
226.9543	0.3232
227.1705	0.325
227.3867	0.316
227.6029	0.3329
227.8191	0.3355
228.0352	0.3398
228.2513	0.3488
228.4675	0.3388
228.6836	0.351
228.8997	0.3347
229.1158	0.3503
229.3319	0.3634
229.548	0.3473
229.764	0.3558
229.9801	0.3725
230.1961	0.3723
230.4121	0.3608
230.6282	0.3746
230.8442	0.3882
231.0602	0.3814
231.2761	0.3746
231.4921	0.3847
231.7081	0.393
231.924	0.4016
232.14	0.414
232.3559	0.4014
232.5718	0.4039
232.7877	0.4131
233.0036	0.4085
233.2195	0.4192
233.4353	0.4192
233.6512	0.4244
233.867	0.4258
234.0829	0.4172
234.2987	0.4307
234.5145	0.4302
234.7303	0.4284
234.9461	0.4402
235.1619	0.4401
235.3776	0.4375
235.5934	0.4384
235.8091	0.4375
236.0249	0.4454
236.2406	0.438
236.4563	0.4386
236.672	0.4492
236.8877	0.4561
237.1034	0.4535
237.319	0.4531
237.5347	0.4446
237.7503	0.4556
237.966	0.4612
238.1816	0.4518
238.3972	0.4523
238.6128	0.4673
238.8284	0.4629
239.0439	0.4699
239.2595	0.4638
239.475	0.4605
239.6906	0.4623
239.9061	0.4618
240.1216	0.4641
240.3371	0.4633
240.5526	0.4585
240.7681	0.4666
240.9836	0.4619
241.199	0.4527
241.4145	0.442
241.6299	0.4558
241.8453	0.4419
242.0607	0.4393
242.2761	0.4357
242.4915	0.4355
242.7069	0.4242
242.9223	0.4181
243.1376	0.4112
243.353	0.4021
243.5683	0.4005
243.7836	0.3867
243.9989	0.3801
244.2142	0.3797
244.4295	0.3734
244.6448	0.3637
244.86	0.3496
245.0753	0.343
245.2905	0.3475
245.5057	0.3438
245.721	0.3399
245.9362	0.3258
246.1514	0.3181
246.3665	0.3054
246.5817	0.2986
246.7969	0.2978
247.012	0.2947
247.2271	0.29
247.4423	0.283
247.6574	0.279
247.8725	0.275
248.0876	0.2671
248.3026	0.272
248.5177	0.2602
248.7328	0.2555
248.9478	0.2502
249.1628	0.2505
249.3779	0.2428
249.5929	0.2424
249.8079	0.2338
250.0228	0.2259
250.2378	0.2321
250.4528	0.2263
250.6677	0.2232
250.8827	0.2164
251.0976	0.2126
251.3125	0.216
251.5274	0.2108
251.7423	0.2112
251.9572	0.2072
252.172	0.2085
252.3869	0.2043
252.6017	0.1995
252.8166	0.1984
253.0314	0.1929
253.2462	0.2013
253.461	0.1984
253.6758	0.1941
253.8906	0.1921
254.1053	0.1926
254.3201	0.1953
254.5348	0.1881
254.7496	0.1907
254.9643	0.1911
255.179	0.1856
255.3937	0.1911
255.6083	0.1942
255.823	0.1883
256.0377	0.1796
256.2523	0.1827
256.467	0.1884
256.6816	0.187
256.8962	0.1809
257.1108	0.1783
257.3254	0.1791
257.54	0.1829
257.7545	0.1817
257.9691	0.1777
258.1836	0.1728
258.3981	0.1834
258.6127	0.1694
258.8272	0.179
259.0417	0.1731
259.2561	0.1745
259.4706	0.1739
259.6851	0.1814
259.8995	0.1729
260.114	0.18
260.3284	0.174
260.5428	0.1783
260.7572	0.1742
260.9716	0.1797
261.186	0.1725
261.4003	0.1739
261.6147	0.1774
261.829	0.1771
262.0433	0.1785
262.2577	0.1815
262.472	0.1771
262.6863	0.1808
262.9005	0.1797
263.1148	0.1778
263.3291	0.1814
263.5433	0.1852
263.7576	0.18
263.9718	0.1775
264.186	0.1824
264.4002	0.1795
264.6144	0.1878
264.8286	0.1824
265.0427	0.1862
265.2569	0.1877
265.471	0.1819
265.6851	0.1823
265.8993	0.1807
266.1134	0.1751
266.3275	0.1858
266.5415	0.1836
266.7556	0.1861
266.9697	0.181
267.1837	0.1824
267.3978	0.1838
267.6118	0.1808
267.8258	0.1819
268.0398	0.1795
268.2538	0.1851
268.4677	0.1794
268.6817	0.1829
268.8957	0.1728
269.1096	0.1744
269.3235	0.1716
269.5374	0.1821
269.7514	0.1794
269.9652	0.1764
270.1791	0.1729
270.393	0.1804
270.6068	0.178
270.8207	0.1706
271.0345	0.1731
271.2483	0.1714
271.4622	0.1773
271.676	0.1791
271.8897	0.1757
272.1035	0.1825
272.3173	0.1704
272.531	0.169
272.7448	0.1743
272.9585	0.1673
273.1722	0.168
273.3859	0.1752
273.5996	0.1713
273.8133	0.1778
274.0269	0.1741
274.2406	0.1755
274.4542	0.1771
274.6679	0.18
274.8815	0.1784
275.0951	0.1838
275.3087	0.1773
275.5223	0.1709
275.7358	0.1775
275.9494	0.1822
276.1629	0.1784
276.3765	0.1837
276.59	0.173
276.8035	0.1828
277.017	0.184
277.2305	0.1835
277.444	0.1814
277.6574	0.1793
277.8709	0.1896
278.0843	0.1805
278.2978	0.1834
278.5112	0.1823
278.7246	0.1831
278.938	0.1802
279.1513	0.1823
279.3647	0.1828
279.5781	0.1803
279.7914	0.18
280.0047	0.1817
280.2181	0.1818
280.4314	0.1813
280.6447	0.1857
280.8579	0.1763
281.0712	0.1812
281.2845	0.1817
281.4977	0.182
281.711	0.179
281.9242	0.1805
282.1374	0.1809
282.3506	0.1784
282.5638	0.1823
282.7769	0.1827
282.9901	0.1854
283.2033	0.1806
283.4164	0.1794
283.6295	0.1826
283.8426	0.1799
284.0557	0.1888
284.2688	0.1877
284.4819	0.1812
284.695	0.1886
284.908	0.1848
285.1211	0.1861
285.3341	0.1803
285.5471	0.1832
285.7601	0.1855
285.9731	0.1886
286.1861	0.1926
286.3991	0.1923
286.612	0.1921
286.825	0.1843
287.0379	0.1813
287.2508	0.1889
287.4637	0.186
287.6766	0.1852
287.8895	0.1852
288.1024	0.1925
288.3152	0.1912
288.5281	0.1834
288.7409	0.1938
288.9538	0.1916
289.1666	0.1912
289.3794	0.1869
289.5922	0.1872
289.8049	0.1872
290.0177	0.1893
290.2304	0.1906
290.4432	0.1909
290.6559	0.1889
290.8686	0.1932
291.0813	0.1908
291.294	0.1886
291.5067	0.1851
291.7194	0.1911
291.932	0.1919
292.1447	0.1887
292.3573	0.1972
292.5699	0.1891
292.7825	0.191
292.9951	0.1898
293.2077	0.189
293.4203	0.1888
293.6328	0.192
293.8454	0.1919
294.0579	0.1953
294.2704	0.1933
294.4829	0.1894
294.6954	0.1928
294.9079	0.1916
295.1204	0.1902
295.3328	0.2018
295.5453	0.1935
295.7577	0.1895
295.9701	0.1894
296.1825	0.1962
296.3949	0.1926
296.6073	0.1852
296.8197	0.1915
297.0321	0.1914
297.2444	0.1926
297.4567	0.1904
297.6691	0.1939
297.8814	0.1897
298.0937	0.1903
298.306	0.1867
298.5182	0.1879
298.7305	0.1924
298.9428	0.1906
299.155	0.1879
299.3672	0.1902
299.5794	0.1842
299.7916	0.1908
300.0038	0.1881
300.216	0.1924
300.4282	0.1871
300.6403	0.1955
300.8525	0.1941
301.0646	0.1901
301.2767	0.1891
301.4888	0.1942
301.7009	0.1962
301.913	0.1958
302.125	0.1901
302.3371	0.189
302.5491	0.1903
302.7612	0.1943
302.9732	0.1928
303.1852	0.1909
303.3972	0.1967
303.6092	0.1931
303.8211	0.1916
304.0331	0.1929
304.245	0.1913
304.457	0.1831
304.6689	0.1907
304.8808	0.1816
305.0927	0.1866
305.3046	0.1807
305.5164	0.1827
305.7283	0.1824
305.9401	0.1757
306.152	0.1744
306.3638	0.183
306.5756	0.1816
306.7874	0.1759
306.9992	0.1751
307.2109	0.1766
307.4227	0.175
307.6344	0.1725
307.8462	0.1713
308.0579	0.1706
308.2696	0.1675
308.4813	0.1671
308.693	0.1621
308.9046	0.1648
309.1163	0.1604
309.328	0.1576
309.5396	0.1487
309.7512	0.1522
309.9628	0.1508
310.1744	0.1533
310.386	0.1492
310.5976	0.1438
310.8091	0.1524
311.0207	0.15
311.2322	0.1469
311.4437	0.1427
311.6552	0.1448
311.8667	0.1471
312.0782	0.1356
312.2897	0.1422
312.5012	0.1296
312.7126	0.1415
312.924	0.1341
313.1355	0.1395
313.3469	0.1307
313.5583	0.1324
313.7696	0.1385
313.981	0.1336
314.1924	0.1295
314.4037	0.1311
314.6151	0.1298
314.8264	0.1359
315.0377	0.126
315.249	0.1325
315.4603	0.1232
315.6716	0.1299
315.8828	0.1292
316.0941	0.1235
316.3053	0.1217
316.5165	0.1325
316.7277	0.125
316.9389	0.1258
317.1501	0.1285
317.3613	0.1282
317.5724	0.1278
317.7836	0.1218
317.9947	0.1257
318.2058	0.1275
318.417	0.127
318.6281	0.1271
318.8391	0.1274
319.0502	0.1258
319.2613	0.126
319.4723	0.123
319.6834	0.1271
319.8944	0.1218
320.1054	0.1244
320.3164	0.1185
320.5274	0.1224
320.7383	0.1288
320.9493	0.1223
321.1602	0.1245
321.3712	0.1217
321.5821	0.124
321.793	0.1292
322.0039	0.1223
322.2148	0.1259
322.4257	0.1269
322.6365	0.1272
322.8474	0.1306
323.0582	0.1234
323.269	0.1201
323.4798	0.1258
323.6906	0.1219
323.9014	0.1213
324.1122	0.1216
324.3229	0.1333
324.5337	0.1322
324.7444	0.1289
324.9551	0.1281
325.1658	0.1232
325.3765	0.136
325.5872	0.1298
325.7979	0.1268
326.0085	0.1271
326.2192	0.1318
326.4298	0.1312
326.6404	0.1314
326.851	0.1266
327.0616	0.1306
327.2722	0.1353
327.4828	0.1293
327.6933	0.1355
327.9039	0.1295
328.1144	0.1287
328.3249	0.1377
328.5354	0.1319
328.7459	0.1349
328.9564	0.1286
329.1669	0.1406
329.3773	0.1345
329.5878	0.1322
329.7982	0.1337
330.0086	0.1328
330.219	0.1309
330.4294	0.1329
330.6398	0.133
330.8502	0.1383
331.0605	0.1326
331.2708	0.1303
331.4812	0.1342
331.6915	0.1351
331.9018	0.1339
332.1121	0.1367
332.3224	0.1354
332.5326	0.1369
332.7429	0.1397
332.9531	0.1382
333.1633	0.1331
333.3735	0.1315
333.5837	0.1367
333.7939	0.1348
334.0041	0.142
334.2143	0.1369
334.4244	0.1416
334.6346	0.1397
334.8447	0.133
335.0548	0.1385
335.2649	0.138
335.475	0.1389
335.685	0.1389
335.8951	0.1361
336.1051	0.1446
336.3152	0.1405
336.5252	0.1392
336.7352	0.1422
336.9452	0.1359
337.1552	0.1399
337.3652	0.1407
337.5751	0.1373
337.7851	0.1409
337.995	0.142
338.2049	0.14
338.4148	0.143
338.6247	0.146
338.8346	0.1467
339.0445	0.1367
339.2543	0.1422
339.4642	0.1329
339.674	0.1384
339.8838	0.1377
340.0936	0.1514
340.3034	0.14
340.5132	0.136
340.7229	0.1422
340.9327	0.1477
341.1424	0.1416
341.3522	0.1406
341.5619	0.1496
341.7716	0.1482
341.9813	0.1438
342.1909	0.1495
342.4006	0.1551
342.6102	0.1543
342.8199	0.1464
343.0295	0.1438
343.2391	0.1498
343.4487	0.1487
343.6583	0.1539
343.8679	0.1517
344.0774	0.1498
344.287	0.1557
344.4965	0.1537
344.706	0.1619
344.9155	0.1556
345.125	0.155
345.3345	0.1673
345.544	0.155
345.7534	0.1592
345.9629	0.1591
346.1723	0.1605
346.3817	0.1572
346.5911	0.1638
346.8005	0.167
347.0099	0.1678
347.2193	0.1596
347.4286	0.1715
347.638	0.1672
347.8473	0.1683
348.0566	0.1623
348.2659	0.1659
348.4752	0.1701
348.6845	0.1682
348.8937	0.1656
349.103	0.1694
349.3122	0.1666
349.5214	0.1725
349.7306	0.1798
349.9398	0.1685
350.149	0.1648
350.3582	0.1694
350.5674	0.1751
350.7765	0.1763
350.9856	0.1691
351.1948	0.1718
351.4039	0.1786
351.613	0.1777
351.822	0.1851
352.0311	0.1805
352.2402	0.1796
352.4492	0.1756
352.6582	0.1804
352.8672	0.1761
353.0762	0.1863
353.2852	0.1831
353.4942	0.1813
353.7032	0.1748
353.9121	0.1834
354.1211	0.1808
354.33	0.1844
354.5389	0.1831
354.7478	0.1828
354.9567	0.1827
355.1655	0.1889
355.3744	0.1807
355.5833	0.1834
355.7921	0.1934
356.0009	0.1895
356.2097	0.1825
356.4185	0.1903
356.6273	0.1843
356.8361	0.1886
357.0448	0.1902
357.2536	0.1845
357.4623	0.1872
357.671	0.1934
357.8797	0.1932
358.0884	0.1896
358.2971	0.1893
358.5057	0.1939
358.7144	0.1938
358.923	0.2011
359.1316	0.1961
359.3402	0.2041
359.5488	0.1943
359.7574	0.2025
359.966	0.1979
360.1746	0.193
360.3831	0.2036
360.5916	0.2057
360.8002	0.2065
361.0087	0.2088
361.2172	0.2088
361.4256	0.206
361.6341	0.2037
361.8426	0.2104
362.051	0.2126
362.2594	0.2165
362.4678	0.2143
362.6762	0.2089
362.8846	0.2167
363.093	0.2165
363.3014	0.2144
363.5097	0.2141
363.718	0.2255
363.9264	0.2214
364.1347	0.2167
364.343	0.2231
364.5513	0.2203
364.7595	0.2271
364.9678	0.2184
365.176	0.2241
365.3842	0.224
365.5925	0.2214
365.8007	0.2288
366.0089	0.233
366.217	0.2249
366.4252	0.2318
366.6333	0.2321
366.8415	0.2332
367.0496	0.2349
367.2577	0.2328
367.4658	0.2284
367.6739	0.2269
367.882	0.2384
368.09	0.2331
368.2981	0.2358
368.5061	0.2424
368.7141	0.2288
368.9221	0.2498
369.1301	0.2462
369.3381	0.2472
369.5461	0.2504
369.754	0.2452
369.962	0.2458
370.1699	0.2451
370.3778	0.252
370.5857	0.2545
370.7936	0.2465
371.0015	0.2569
371.2093	0.251
371.4172	0.25
371.625	0.2519
371.8328	0.2486
372.0406	0.2597
372.2484	0.2538
372.4562	0.2545
372.664	0.2621
372.8717	0.2574
373.0795	0.2677
373.2872	0.2601
373.4949	0.2553
373.7026	0.2492
373.9103	0.2439
374.118	0.2615
374.3256	0.2614
374.5333	0.26
374.7409	0.2656
374.9485	0.2668
375.1561	0.2684
375.3637	0.2613
375.5713	0.2697
375.7789	0.2717
375.9864	0.2688
376.194	0.2779
376.4015	0.2681
376.609	0.2732
376.8165	0.2734
377.024	0.2736
377.2315	0.2726
377.4389	0.2711
377.6464	0.2726
377.8538	0.2786
378.0612	0.2722
378.2686	0.2768
378.476	0.2801
378.6834	0.2782
378.8908	0.2853
379.0981	0.2868
379.3055	0.2858
379.5128	0.2781
379.7201	0.2893
379.9274	0.28
380.1347	0.2844
380.342	0.2863
380.5492	0.2753
380.7565	0.28
380.9637	0.2847
381.1709	0.2876
381.3781	0.2853
381.5853	0.2832
381.7925	0.2901
381.9997	0.2942
382.2068	0.2957
382.4139	0.293
382.6211	0.2923
382.8282	0.2999
383.0353	0.2882
383.2424	0.2992
383.4494	0.2879
383.6565	0.2933
383.8635	0.2901
384.0706	0.3014
384.2776	0.2925
384.4846	0.2982
384.6916	0.2909
384.8986	0.2877
385.1055	0.3066
385.3125	0.2999
385.5194	0.3083
385.7263	0.2919
385.9333	0.3044
386.1402	0.2958
386.347	0.3015
386.5539	0.2977
386.7608	0.2917
386.9676	0.2986
387.1744	0.2928
387.3813	0.2985
387.5881	0.2855
387.7948	0.2936
388.0016	0.2931
388.2084	0.3022
388.4151	0.3
388.6219	0.2863
388.8286	0.3086
389.0353	0.2943
389.242	0.2923
389.4487	0.2904
389.6553	0.2888
389.862	0.282
390.0686	0.2939
390.2753	0.2911
390.4819	0.2888
390.6885	0.2929
390.8951	0.282
391.1016	0.2833
391.3082	0.2882
391.5147	0.2773
391.7213	0.2858
391.9278	0.2776
392.1343	0.2812
392.3408	0.2819
392.5473	0.2728
392.7537	0.2796
392.9602	0.2736
393.1666	0.2789
393.373	0.2842
393.5794	0.2673
393.7858	0.2823
393.9922	0.2759
394.1986	0.2737
394.4049	0.2713
394.6113	0.2669
394.8176	0.2768
395.0239	0.2675
395.2302	0.2626
395.4365	0.2695
395.6428	0.2664
395.8491	0.2639
396.0553	0.2585
396.2615	0.2678
396.4678	0.2734
396.674	0.2589
396.8802	0.2588
397.0863	0.2568
397.2925	0.2606
397.4987	0.2552
397.7048	0.2597
397.9109	0.2495
398.117	0.2541
398.3231	0.2503
398.5292	0.2447
398.7353	0.2484
398.9413	0.2536
399.1474	0.2577
399.3534	0.2511
399.5594	0.2531
399.7654	0.2479
399.9714	0.2509
400.1774	0.2483
400.3833	0.2552
400.5893	0.2521
400.7952	0.2613
401.0011	0.2474
401.207	0.2549
401.4129	0.2494
401.6188	0.2428
401.8247	0.263
402.0305	0.2505
402.2364	0.2458
402.4422	0.2542
402.648	0.2498
402.8538	0.2487
403.0596	0.2433
403.2654	0.2601
403.4711	0.2506
403.6768	0.2487
403.8826	0.2562
404.0883	0.254
404.294	0.2446
404.4997	0.2532
404.7054	0.2554
404.911	0.2529
405.1167	0.255
405.3223	0.2403
405.5279	0.257
405.7335	0.2516
405.9391	0.2398
406.1447	0.2659
406.3502	0.2535
406.5558	0.2533
406.7613	0.2452
406.9668	0.2434
407.1724	0.2491
407.3778	0.2526
407.5833	0.2297
407.7888	0.2481
407.9942	0.2526
408.1997	0.2499
408.4051	0.253
408.6105	0.2538
408.8159	0.245
409.0213	0.2577
409.2267	0.2549
409.432	0.2581
409.6374	0.2563
409.8427	0.2592
410.048	0.2503
410.2533	0.2515
410.4586	0.2402
410.6639	0.2592
410.8691	0.2423
411.0744	0.253
411.2796	0.2486
411.4848	0.2534
411.69	0.2464
411.8952	0.2529
412.1004	0.257
412.3056	0.2506
412.5107	0.254
412.7158	0.2491
412.921	0.2521
413.1261	0.2508
413.3312	0.2506
413.5362	0.2617
413.7413	0.2488
413.9464	0.2411
414.1514	0.241
414.3564	0.2378
414.5614	0.2425
414.7664	0.2434
414.9714	0.251
415.1764	0.251
415.3813	0.2445
415.5863	0.2407
415.7912	0.2487
415.9961	0.2432
416.201	0.2528
416.4059	0.252
416.6108	0.2504
416.8156	0.2445
417.0205	0.2461
417.2253	0.2386
417.4301	0.2479
417.6349	0.242
417.8397	0.2404
418.0445	0.239
418.2492	0.2363
418.454	0.2388
418.6587	0.2406
418.8634	0.2472
419.0681	0.2423
419.2728	0.2298
419.4775	0.259
419.6822	0.234
419.8868	0.222
420.0915	0.2365
420.2961	0.2263
420.5007	0.2335
420.7053	0.2306
420.9099	0.2316
421.1144	0.2236
421.319	0.2232
421.5235	0.2158
421.728	0.2371
421.9325	0.2249
422.137	0.2209
422.3415	0.2267
422.546	0.2219
422.7504	0.2276
422.9549	0.2321
423.1593	0.221
423.3637	0.2333
423.5681	0.2304
423.7725	0.2216
423.9769	0.2253
424.1812	0.2108
424.3856	0.212
424.5899	0.2138
424.7942	0.2236
424.9985	0.2035
425.2028	0.2289
425.4071	0.219
425.6113	0.2126
425.8156	0.2062
426.0198	0.2079
426.224	0.2105
426.4282	0.2072
426.6324	0.2141
426.8366	0.2083
427.0407	0.2112
427.2449	0.2104
427.449	0.2048
427.6531	0.2077
427.8572	0.2021
428.0613	0.2065
428.2654	0.201
428.4694	0.1946
428.6735	0.1992
428.8775	0.1941
429.0815	0.1854
429.2855	0.1956
429.4895	0.1929
429.6935	0.1857
429.8975	0.184
430.1014	0.194
430.3053	0.1937
430.5093	0.1752
430.7132	0.18
430.9171	0.1783
431.1209	0.1877
431.3248	0.1801
431.5286	0.1765
431.7325	0.1884
431.9363	0.1697
432.1401	0.168
432.3439	0.1725
432.5477	0.1602
432.7514	0.17
432.9552	0.1675
433.1589	0.1587
433.3627	0.1659
433.5664	0.155
433.7701	0.1611
433.9737	0.1651
434.1774	0.158
434.3811	0.1501
434.5847	0.1496
434.7883	0.1513
434.9919	0.1515
435.1955	0.1454
435.3991	0.1442
435.6027	0.1409
435.8062	0.1587
436.0098	0.137
436.2133	0.1408
436.4168	0.1377
436.6203	0.1326
436.8238	0.1362
437.0272	0.1289
437.2307	0.1302
437.4341	0.1279
437.6375	0.1269
437.841	0.1256
438.0443	0.1334
438.2477	0.1217
438.4511	0.121
438.6545	0.1222
438.8578	0.1179
439.0611	0.118
439.2644	0.115
439.4677	0.1254
439.671	0.1152
439.8743	0.1189
440.0775	0.1182
440.2808	0.111
440.484	0.1017
440.6872	0.1154
440.8904	0.0936
441.0936	0.1081
441.2967	0.091
441.4999	0.0931
441.703	0.0975
441.9062	0.1064
442.1093	0.1063
442.3124	0.094
442.5155	0.0987
442.7185	0.0847
442.9216	0.0872
443.1246	0.0867
443.3276	0.0851
443.5307	0.0791
443.7337	0.0862
443.9366	0.0721
444.1396	0.0774
444.3426	0.0809
444.5455	0.0775
444.7484	0.0798
444.9513	0.0755
445.1542	0.0789
445.3571	0.0754
445.56	0.061
445.7628	0.0685
445.9657	0.0789
446.1685	0.0758
446.3713	0.072
446.5741	0.0759
446.7769	0.0691
446.9797	0.0693
447.1824	0.0673
447.3852	0.0559
447.5879	0.053
447.7906	0.06
447.9933	0.0619
448.196	0.0572
448.3986	0.0548
448.6013	0.048
448.8039	0.0573
449.0066	0.0629
449.2092	0.0551
449.4118	0.0546
449.6143	0.053
449.8169	0.0517
450.0195	0.0496
450.222	0.0462
450.4245	0.0468
450.627	0.0504
450.8295	0.0384
451.032	0.0431
451.2345	0.0378
451.4369	0.0504
451.6394	0.0408
451.8418	0.0355
452.0442	0.0427
452.2466	0.0372
452.449	0.0397
452.6513	0.0271
452.8537	0.0335
453.056	0.036
453.2583	0.037
453.4607	0.0276
453.663	0.0405
453.8652	0.0329
454.0675	0.0439
454.2697	0.0311
454.472	0.029
454.6742	0.0343
454.8764	0.0373
455.0786	0.03
455.2808	0.0303
455.4829	0.0351
455.6851	0.0299
455.8872	0.0158
456.0893	0.0281
456.2915	0.0298
456.4935	0.0287
456.6956	0.0213
456.8977	0.0235
457.0997	0.0302
457.3018	0.0267
457.5038	0.0262
457.7058	0.027
457.9078	0.026
458.1098	0.0297
458.3117	0.0289
458.5137	0.0107
458.7156	0.0242
458.9175	0.0191
459.1194	0.0137
459.3213	0.0235
459.5232	0.0208
459.725	0.0225
459.9269	0.0226
460.1287	0.0148
460.3305	0.0281
460.5323	0.0149
460.7341	0.0151
460.9359	0.0102
461.1376	0.0266
461.3394	0.0307
461.5411	0.0178
461.7428	0.0213
461.9445	0.0129
462.1462	0.0146
462.3479	0.0119
462.5495	0.0236
462.7512	0.025
462.9528	0.0062
463.1544	0.0141
463.356	0.0099
463.5576	0.0192
463.7592	0.0167
463.9607	0.0119
464.1623	0.0108
464.3638	0.0141
464.5653	0.0201
464.7668	0.0216
464.9683	0.0095
465.1697	0.0079
465.3712	0.0047
465.5726	0.0147
465.7741	0.0202
465.9755	0.0147
466.1769	0.0114
466.3782	0.0041
466.5796	0.0133
466.7809	0.0125
466.9823	0.0095
467.1836	0.007
467.3849	0.0169
467.5862	0.0001
467.7875	0.0077
467.9887	0.0076
468.19	0.0107
468.3912	0.0127
468.5924	0.0106
468.7936	0.0074
468.9948	0.003
469.196	0.0045
469.3972	0.004
469.5983	0.0083
469.7994	0.0105
470.0006	0.0155
470.2017	0.0134
470.4027	0.0261
470.6038	0.0104
470.8049	0.005
471.0059	0.0116
471.2069	0.0114
471.408	0.015
471.6089	0.0063
471.8099	0.0094
472.0109	0.0146
472.2119	0.0117
472.4128	0.0032
472.6137	0.0127
472.8146	0.0105
473.0155	0.0197
473.2164	0.0116
473.4173	0.0003
473.6181	0.0081
473.819	0.0126
474.0198	0.0121
474.2206	0.0099
474.4214	0.01
474.6222	-0.0038
474.8229	-0.0004
475.0237	0.0133
475.2244	0.0183
475.4251	0.0154
475.6258	0.0044
475.8265	0.0097
476.0272	0.0006
476.2278	0.0168
476.4285	0.0054
476.6291	0.0109
476.8297	0.0077
477.0303	0.0064
477.2309	0.0064
477.4315	-0.0006
477.632	0.006
477.8326	0.0068
478.0331	0.015
478.2336	0.0088
478.4341	0.0074
478.6346	0.0066
478.8351	0.0027
479.0355	0.0133
479.236	0.0142
479.4364	0.0116
479.6368	0.0046
479.8372	0.0028
480.0376	-0.0026
480.2379	0.0136
480.4383	0.0104
480.6386	-0.0006
480.8389	0.011
481.0392	0.0078
481.2395	0.007
481.4398	0.0039
481.6401	0.0078
481.8403	0.0119
482.0405	0.0016
482.2408	0.0117
482.441	0.008
482.6411	0.011
482.8413	-0.0001
483.0415	0.0094
483.2416	0.0104
483.4417	0.0065
483.6419	0.0003
483.8419	0.0009
484.042	0.0092
484.2421	-0.0018
484.4422	0.0033
484.6422	0.0056
484.8422	0.0106
485.0422	0.0024
485.2422	0.0045
485.4422	-0.0001
485.6422	0.0034
485.8421	0.0028
486.042	0.0115
486.242	0.0025
486.4419	0.0051
486.6417	0.0029
486.8416	0.0019
487.0415	0.0007
487.2413	0.0023
487.4411	0.01
487.641	0.0032
487.8408	0.0054
488.0405	0.0091
488.2403	0.005
488.4401	0.0034
488.6398	0.0121
488.8395	-0.0005
489.0392	0.0084
489.2389	0.011
489.4386	-0.0022
489.6383	0.0091
489.8379	0.0042
490.0376	0.009
490.2372	0.0037
490.4368	0.004
490.6364	0.0011
490.836	0.0058
491.0355	-0.0015
491.2351	0.0008
491.4346	0.0069
491.6341	0.0055
491.8336	0.0079
492.0331	0.0004
492.2326	0.0148
492.432	0.0087
492.6315	0.0092
492.8309	0.0118
493.0303	0.0006
493.2297	0.0098
493.4291	-0.0023
493.6284	0.0058
493.8278	0.002
494.0271	0.005
494.2264	-0.0009
494.4257	0.0089
494.625	0.0099
494.8243	-0.0008
495.0236	0.0103
495.2228	0.0069
495.422	0.0078
495.6213	0.0049
495.8205	0.0015
496.0196	0.0017
496.2188	0.0073
496.418	0.0082
496.6171	0.0033
496.8162	0.0045
497.0153	0.0066
497.2144	0.0005
497.4135	0.0049
497.6126	0.0058
497.8116	0.0065
498.0107	0.0056
498.2097	0.0067
498.4087	0.0019
498.6077	0.0012
498.8067	0.0045
499.0056	0.0027
499.2046	0.0077
499.4035	0.0007
499.6024	-0.0075
499.8013	0.014
500.0002	0.0077
500.199	0.011
500.3979	0.0031
500.5967	0.004
500.7956	0.0092
500.9944	0.0131
501.1932	0.0099
501.3919	0.0107
501.5907	0.0091
501.7895	0.0075
501.9882	0.0063
502.1869	0.0143
502.3856	0.0061
502.5843	0.0042
502.783	0.0048
502.9816	0.0105
503.1803	0.0056
503.3789	0.0047
503.5775	0.002
503.7761	-0.0028
503.9747	0.0082
504.1732	-0.0045
504.3718	0.0105
504.5703	0.0079
504.7689	-0.0051
504.9674	-0.0024
505.1658	-0.0011
505.3643	0.0173
505.5628	0.0124
505.7612	0.0115
505.9597	0.0032
506.1581	0.0086
506.3565	0.0092
506.5549	-0.0028
506.7532	0.0008
506.9516	0.0042
507.1499	0.0105
507.3482	0.0099
507.5465	0.0118
507.7448	0.0089
507.9431	0.0113
508.1414	0.004
508.3396	0.0049
508.5379	0.0032
508.7361	0.0145
508.9343	0.0079
509.1325	0.0131
509.3306	0.0062
509.5288	-0.0073
509.7269	0.0097
509.9251	0.0103
510.1232	0.0084
510.3213	0.0094
510.5193	0.0081
510.7174	0.0104
510.9154	0.01
511.1135	-0.0013
511.3115	0.0074
511.5095	0.0006
511.7075	0.0089
511.9055	0.0087
512.1034	0.003
512.3014	-0.0016
512.4993	0.0102
512.6972	-0.0078
512.8951	0.0053
513.093	0.0086
513.2908	0.0133
513.4887	-0.0004
513.6865	0.0063
513.8844	0.0068
514.0822	0.0043
514.2799	-0.0053
514.4777	-0.0001
514.6755	0.0057
514.8732	-0.0007
515.0709	0.0128
515.2687	0.003
515.4664	0.0097
515.664	0.0128
515.8617	0.0057
516.0594	0.0087
516.257	0.0099
516.4546	0.0095
516.6522	0.0076
516.8498	0.0051
517.0474	0.0016
517.2449	0.0047
517.4425	0.0024
517.64	0.0093
517.8375	0.0188
518.035	0.0014
518.2325	0.0094
518.43	0.0063
518.6274	0.004
518.8249	0.0032
519.0223	0.0086
519.2197	0.0044
519.4171	0.0002
519.6145	0.0054
519.8118	-0.0052
520.0092	0.0017
520.2065	0.0127
520.4038	-0.0012
520.6011	0.0105
520.7984	0.017
520.9956	0.008
521.1929	0.005
521.3901	0.0106
521.5874	0.0259
521.7846	-0.003
521.9818	-0.001
522.1789	-0.0009
522.3761	0.0161
522.5732	0.0107
522.7704	0.0003
522.9675	-0.0062
523.1646	-0.0089
523.3617	0.0101
523.5587	0.0116
523.7558	0.0069
523.9528	0.0087
524.1498	0.0051
524.3468	0.0079
524.5438	0.0061
524.7408	-0.0021
524.9378	0.011
525.1347	0.0058
525.3316	-0.0028
525.5285	0.0029
525.7254	0.0014
525.9223	0.0048
526.1192	0.0086
526.316	0.0106
526.5129	0.0067
526.7097	0.0044
526.9065	0.0105
527.1033	0.0104
527.3	0.0124
527.4968	0.001
527.6935	-0.0041
527.8903	0.0076
528.087	0.0089
528.2837	0.0123
528.4804	0.0003
528.677	0.0047
528.8737	0.0028
529.0703	0.0006
529.2669	0.0123
529.4635	0.0031
529.6601	0.0023
529.8567	-0.007
530.0532	0.0048
530.2498	-0.0022
530.4463	0.0012
530.6428	0.0061
530.8393	0.0192
531.0358	0.0077
531.2322	0.0065
531.4287	0.0059
531.6251	0.0022
531.8215	0.0016
532.0179	0.0047
532.2143	0.0136
532.4107	0.0056
532.607	-0.0022
532.8034	0.0021
532.9997	0.0001
533.196	-0.0056
533.3923	0.0155
533.5886	0.0131
533.7848	0.0056
533.9811	0.0091
534.1773	0.0129
534.3735	0.0088
534.5697	0.0068
534.7659	0.0121
534.9621	0.0038
535.1582	0.0036
535.3544	0.0143
535.5505	0.0092
535.7466	0.0039
535.9427	0.005
536.1387	-0.0019
536.3348	0.013
536.5308	-0.0011
536.7269	-0.0003
536.9229	0.0069
537.1189	0.0079
537.3148	0.0031
537.5108	0.0112
537.7068	0.0123
537.9027	-0.0093
538.0986	0.007
538.2945	0.0062
538.4904	0.0087
538.6863	0.0061
538.8821	0.013
539.078	0.013
539.2738	0.002
539.4696	-0.0007
539.6654	0.0046
539.8611	0.0066
540.0569	0.0003
540.2526	0.016
540.4484	-0.0113
540.6441	0.0093
540.8398	0.014
541.0355	0.0074
541.2311	0.0072
541.4268	0.0115
541.6224	0.0192
541.818	0.006
542.0136	0.0127
542.2092	0.0098
542.4048	0.0068
542.6003	0.0087
542.7959	0.002
542.9914	0.0092
543.1869	-0.0014
543.3824	0.0118
543.5779	0.0186
543.7734	0.0156
543.9688	0.006
544.1642	0.0023
544.3596	0.014
544.555	0.0041
544.7504	0.0076
544.9458	0.0121
545.1411	0.0099
545.3365	0.0055
545.5318	0.0027
545.7271	0.0137
545.9224	0.0038
546.1177	0.0018
546.3129	0.0054
546.5081	0.009
546.7034	0.004
546.8986	0.0006
547.0938	0.0066
547.289	0.0129
547.4841	0.01
547.6793	0.0041
547.8744	0.0105
548.0695	-0.0042
548.2646	0.0106
548.4597	-0.0004
548.6548	0.015
548.8498	0.0089
549.0448	0.0044
549.2399	0.0145
549.4349	0.0173
549.6298	0.0061
549.8248	0.0089
550.0198	0.0165
550.2147	0.0014
550.4096	-0.0032
550.6045	0.0044
550.7994	0.0124
550.9943	0.017
551.1892	-0.0094
551.384	0.0131
551.5788	0.0063
551.7737	0.0107
551.9685	0.0043
552.1632	0.0026
552.358	0.0037
552.5528	0.0081
552.7475	0.0117
552.9422	0.0153
553.1369	0.0136
553.3316	0.0057
553.5263	0.0123
553.7209	0.0013
553.9156	0.0054
554.1102	0.0058
554.3048	-0.0012
554.4994	0.0099
554.694	0.012
554.8885	-0.0009
555.0831	0.0028
555.2776	0.0103
555.4721	0.0115
555.6666	0.0033
555.8611	0.0032
556.0555	0.0113
556.25	0.0171
556.4444	0.0059
556.6388	0.0077
556.8332	0.0139
557.0276	-0.0042
557.222	-0.0003
557.4163	0.0038
557.6107	0.0039
557.805	0.0023
557.9993	0.0071
558.1936	-0.0085
558.3879	0.0062
558.5821	0.0061
558.7764	0.0122
558.9706	0.0072
559.1648	0.0103
559.359	-0.0075
559.5532	-0.0007
559.7473	-0.0009
559.9415	-0.0011
560.1356	0.018
560.3297	0.009
560.5238	0.01
560.7179	0.0057
560.9119	0.0016
561.106	-0.0024
561.3	0.0084
561.494	-0.0032
561.688	-0.0075
561.882	0.0051
562.076	0.0076
562.2699	0.0097
562.4639	0.0151
562.6578	0.0163
562.8517	-0.001
563.0456	0.0002
563.2395	0.011
563.4333	0.0064
563.6272	0.0056
563.821	0.0112
564.0148	-0.0008
564.2086	-0.0001
564.4024	0.0125
564.5961	0.0123
564.7899	0.008
564.9836	0.009
565.1773	0.0114
565.371	0.0009
565.5647	0.0065
565.7584	0.0124
565.952	0.0072
566.1456	0.0071
566.3393	0.0061
566.5329	0.0021
566.7264	0.0092
566.92	0.0009
567.1136	-0.0016
567.3071	-0.0011
567.5006	0.0086
567.6941	0.0033
567.8876	0.0084
568.0811	0.0144
568.2745	-0.0021
568.468	0.0034
568.6614	0.0072
568.8548	0.0078
569.0482	0.0068
569.2416	0.0112
569.4349	0.0062
569.6283	0.0028
569.8216	0.0037
570.0149	0.0012
570.2082	0.006
570.4015	0.0007
570.5947	0.0063
570.788	0.0077
570.9812	-0.0002
571.1744	0.007
571.3676	0.0023
571.5608	0.0038
571.754	0.0116
571.9471	0.0091
572.1402	0.0074
572.3333	0.0061
572.5264	0.0076
572.7195	0.0038
572.9126	0.001
573.1057	0.0082
573.2987	0.0021
573.4917	0.0019
573.6847	0.0028
573.8777	0.0069
574.0707	0.0015
574.2636	0.007
574.4566	0.0033
574.6495	0.0039
574.8424	0.0055
575.0353	0.0115
575.2281	0.0109
575.421	0.0013
575.6138	0.0001
575.8067	0.0058
575.9995	0.004
576.1923	-0.0013
576.385	0.0043
576.5778	0.0074
576.7706	0.0022
576.9633	0.0054
577.156	0.0028
577.3487	0.0024
577.5414	0.0033
577.734	0.0014
577.9267	0.0052
578.1193	0.01
578.3119	0.0016
578.5045	0.0019
578.6971	-0.0001
578.8897	0.0046
579.0822	0.0117
579.2747	0.0007
579.4673	0.0057
579.6598	0.0075
579.8522	0.0049
580.0447	0.0079
580.2372	0.0085
580.4296	0.0057
580.622	0.0041
580.8144	0.0018
581.0068	0.0021
581.1992	0.006
581.3915	0.0001
581.5839	0.0061
581.7762	0.002
581.9685	0.002
582.1608	0.0071
582.353	0.0052
582.5453	0.0081
582.7375	0.0063
582.9298	0.0022
583.122	-0.0003
583.3142	0.0093
583.5063	0.0053
583.6985	0.0051
583.8906	0.0025
584.0827	0.0067
584.2749	0.0043
584.4669	0.0033
584.659	0.0106
584.8511	0.0079
585.0431	0.0092
585.2352	0.0058
585.4272	0.0066
585.6192	0.0057
585.8111	-0.0001
586.0031	0.0033
586.195	0.0013
586.387	0.0052
586.5789	0.0051
586.7708	0.0061
586.9627	0.0087
587.1545	0.0067
587.3464	0.0052
587.5382	0.0018
587.73	0.0077
587.9218	0.0065
588.1136	-0.0011
588.3053	0.0082
588.4971	0.0029
588.6888	0.001
588.8805	0.0058
589.0722	0.0163
589.2639	0.0022
589.4556	0.0042
589.6472	0.0118
589.8389	0.0026
590.0305	0.002
590.2221	0.0095
590.4137	0.0027
590.6052	0.0061
590.7968	0.007
590.9883	0.0055
591.1798	0.0024
591.3713	-0.0044
591.5628	0.0046
591.7543	0.0119
591.9458	0.0028
592.1372	0.0043
592.3286	0.0049
592.52	0.002
592.7114	0.0084
592.9028	0.0093
593.0941	0.0046
593.2855	0.0043
593.4768	0.0078
593.6681	0.0112
593.8594	0.0104
594.0506	0.0042
594.2419	-0.0013
594.4331	0.0027
594.6244	0.0013
594.8156	0.0046
595.0067	-0.0011
595.1979	0.0023
595.3891	-0.0037
595.5802	0.0095
595.7713	0.0063
595.9624	0.0059
596.1535	0.0045
596.3446	0.0045
596.5357	0.0059
596.7267	0.0061
596.9177	0.0058
597.1087	0.0053
597.2997	0.004
597.4907	-0.0058
597.6817	0.008
597.8726	0.0077
598.0635	0.0004
598.2544	0.0092
598.4453	0.0084
598.6362	0.0058
598.827	0.0106
599.0179	0.0067
599.2087	0.0098
599.3995	0.0074
599.5903	0.0076
599.7811	0.0073
599.9718	0.0009
600.1626	0.002
600.3533	0.0031
600.544	0.0068
600.7347	0.0068
600.9254	0.0102
601.116	0.0048
601.3067	0
601.4973	0.0094
601.6879	0.0035
601.8785	0.0118
602.0691	0.0029
602.2596	0.0059
602.4502	0.0011
602.6407	0.001
602.8312	0.0023
603.0217	0.0048
603.2122	0.006
603.4027	0.0066
603.5931	0.0032
603.7835	0.0062
603.9739	0.002
604.1643	0.0038
604.3547	0.0101
604.5451	0.0067
604.7354	0.0023
604.9257	0.0006
605.116	-0.0001
605.3063	0.0053
605.4966	0.0056
605.6869	0.0076
605.8771	0.0055
606.0673	0.0028
606.2575	0.0007
606.4477	0.0092
606.6379	0.004
606.8281	0.0049
607.0182	0.0025
607.2083	0.0074
607.3985	0.0057
607.5885	0.0023
607.7786	0.0055
607.9687	0.0115
608.1587	0.0102
608.3488	0.0043
608.5388	0
608.7288	-0.0025
608.9187	0.0037
609.1087	0.0078
609.2986	0.0078
609.4886	-0.0036
609.6785	0.0067
609.8684	0.006
610.0582	0.0028
610.2481	-0.0024
610.4379	0.0046
610.6278	0.0058
610.8176	0.0126
611.0074	0.004
611.1971	0.0085
611.3869	0.0124
611.5766	-0.0005
611.7664	0.0141
611.9561	0.0091
612.1458	0.0093
612.3354	0.0092
612.5251	0.0026
612.7147	0.0104
612.9044	0.003
613.094	0.0045
613.2836	0.0047
613.4731	0.0031
613.6627	0.0053
613.8522	0.0047
614.0417	0.0075
614.2313	0.0013
614.4207	0.0112
614.6102	0.0097
614.7997	0.0105
614.9891	0.0068
615.1785	0.0002
615.3679	0.0137
615.5573	0.0109
615.7467	-0
615.9361	0.0066
616.1254	0.0138
616.3147	0.0064
616.504	0.0037
616.6933	0.0051
616.8826	0.0027
617.0718	0.0159
617.2611	0.0033
617.4503	0.003
617.6395	0.007
617.8287	0.0041
618.0179	0.0134
618.207	0.0038
618.3961	0.0005
618.5853	-0.003
618.7744	-0.0021
618.9634	0.0096
619.1525	0.0071
619.3416	-0.0071
619.5306	-0.0006
619.7196	0.0098
619.9086	0.0039
620.0976	0.0005
620.2866	0.0122
620.4755	-0.0064
620.6645	0.0051
620.8534	0.0133
621.0423	-0.0023
621.2312	0.0025
621.42	0.0106
621.6089	0.0064
621.7977	0.0118
621.9865	0.0093
622.1753	-0.0066
622.3641	-0.0024
622.5529	-0.0033
622.7416	-0.0071
622.9303	-0.0013
623.1191	0.0118
623.3078	0.0089
623.4964	0.0002
623.6851	0.004
623.8737	0.0051
624.0624	0.0004
624.251	0.0057
624.4396	0.0074
624.6282	0.0095
624.8167	0.0004
625.0053	0.0193
625.1938	0.0114
625.3823	0.009
625.5708	-0.0045
625.7593	-0.0019
625.9477	0.0145
626.1362	0.0015
626.3246	0.0055
626.513	0.0113
626.7014	0.0092
626.8898	0.0066
627.0781	0.0048
627.2665	0.0056
627.4548	-0.0045
627.6431	0.0021
627.8314	0.0141
628.0197	0.0085
628.2079	-0.0009
628.3962	0.0154
628.5844	0.0015
628.7726	0.0049
628.9608	0.0025
629.1489	0.0091
629.3371	-0.0081
629.5252	-0.0018
629.7134	-0.0048
629.9015	0.0058
630.0895	-0.0119
630.2776	0.0072
630.4657	0.0154
630.6537	0.0111
630.8417	-0.0085
631.0297	0.0065
631.2177	0.0052
631.4057	0.0146
631.5936	-0.0019
631.7815	0.0054
631.9695	0.0143
632.1574	0.0208
632.3452	0.004
632.5331	0.0147
632.7209	0.0269
632.9088	0.0002
633.0966	0.0306
633.2844	0.0014
633.4722	0.0155
633.6599	0.0295
633.8477	0.0043
634.0354	0.0224
634.2231	-0.0133
634.4108	0.004
634.5985	0.0191
634.7861	-0.0012
634.9738	-0.0056
635.1614	-0.0024
635.349	0.0053
635.5366	0.005
635.7242	0.0182
635.9117	0.0092
636.0993	0.0048
636.2868	-0.0038
636.4743	0.0179
636.6618	-0.0109
636.8492	0.0031
637.0367	0.0024
637.2241	0.0099
637.4115	0.0202
637.5989	-0.0072
637.7863	0.0339
637.9737	0.0072
638.161	0.0133
638.3484	0.0022
638.5357	0.0067
638.723	0.0154
638.9103	0.0011
639.0975	0.0133
639.2848	0.0112
639.472	0.0188
639.6592	-0.0049
639.8464	0.0162
640.0336	0.0169
640.2208	-0.01
640.4079	-0.0031
640.595	-0.0061
640.7821	0.0293
640.9692	-0.0029
641.1563	0.0129
641.3434	-0.0014
641.5304	0.0242
641.7174	0.0073
641.9044	0.0044
642.0914	0.0263
642.2784	-0.0167
642.4653	-0.0154
642.6523	0.0115
642.8392	0.0061
643.0261	0.0091
643.213	-0.005
643.3999	0.0129
643.5867	0.0111
643.7735	0.0115
643.9604	0.0243
644.1472	-0.0031
644.3339	-0.0009
644.5207	0.0043
644.7075	-0.0054
644.8942	0.0117
645.0809	-0.0084
645.2676	-0.0075
645.4543	-0.0095
645.6409	0.0197
645.8276	0.0291
646.0142	0.023
646.2008	0.0047
646.3874	-0.0095
646.574	0.0084
646.7605	0.0241
646.9471	0.0115
647.1336	-0.0117
647.3201	0.0107
647.5066	0.0229
647.6931	0.0154
647.8795	0.0068
648.0659	0.0096
648.2524	0.0195
648.4388	0.0148
648.6252	0.0113
648.8115	-0.0018
648.9979	0.0184
649.1842	0
649.3705	0.0187
649.5568	0.0027
649.7431	-0.0139
649.9294	0.0104
650.1156	0.0116
650.3018	0.0247
650.488	0.029
650.6742	0.0045
650.8604	0.0453
651.0466	0.0079
651.2327	-0.0149
651.4188	0.0027
651.6049	0.0243
651.791	0.0037
651.9771	-0.003
652.1632	0.0144
652.3492	-0.0044
652.5352	-0.0039
652.7212	0.0123
652.9072	-0.0028
653.0932	0.0127
653.2791	0.0029
653.465	0.0164
653.651	0.0096
653.8369	0.0084
654.0227	-0.0082
654.2086	0.0065
654.3944	0.002
654.5803	0.0085
654.7661	-0.0022
654.9519	-0.0012
655.1377	0.0001
655.3234	0.0001
655.5092	0.0001
655.6949	0.0001
655.8806	0.0001
656.0663	0.0001
656.2519	0.0001
656.4376	0.0001
656.6232	0.0001
656.8088	0.0001
656.9945	0.0001
657.18	0.0001
657.3656	0.0001
657.5511	0.0001
657.7367	0.0001
657.9222	0.0001
658.1077	0.0001
658.2932	0.0001
658.4786	0.0001
658.6641	0.0001
658.8495	0.0001
659.0349	0.0001
659.2203	0.0001
659.4057	0.0001
659.591	0.1434
659.7764	0.0082
659.9617	0.0016
660.147	0.0065
660.3323	0.0077
660.5176	-0.0026
660.7028	0.0007
660.888	0.0129
661.0733	0.0163
661.2585	-0.0138
661.4436	0.0131
661.6288	0.0068
661.8139	0.0074
661.9991	-0.004
662.1842	0.0159
662.3693	-0.0025
662.5544	0.0162
662.7394	0.0131
662.9245	0.0188
663.1095	-0.0036
663.2945	-0.0149
663.4795	-0.0152
663.6644	0.011
663.8494	0.0122
664.0343	0.0156
664.2193	-0.0098
664.4042	0.012
664.589	0.001
664.7739	-0.0014
664.9587	-0.0172
665.1436	-0.0058
665.3284	0.0122
665.5132	-0.0141
665.698	0.0066
665.8827	-0.0027
666.0675	-0.0071
666.2522	0.0035
666.4369	0.0083
666.6216	0.0045
666.8063	0.0076
666.9909	0.0092
667.1756	0.0014
667.3602	0.0057
667.5448	0.0086
667.7294	0.0176
667.9139	0.0149
668.0985	0.0045
668.283	0.0213
668.4675	0.0114
668.652	0.0098
668.8365	-0.0046
669.0209	0.0128
669.2054	0.0176
669.3898	0.0181
669.5742	0.0157
669.7586	0.0079
669.943	-0.012
670.1273	-0.0118
670.3117	0.0229
670.496	0.0221
670.6803	0.0242
670.8646	-0.0095
671.0488	0.02
671.2331	-0.0088
671.4173	0.0144
671.6015	0.0054
671.7857	0.0149
671.9699	0.0054
672.1541	-0.0005
672.3382	-0.0084
672.5223	0.0104
672.7064	0.015
672.8905	0.0094
673.0746	0.0074
673.2587	0.011
673.4427	0.0242
673.6267	0.0036
673.8107	0.0096
673.9947	0.0087
674.1787	-0.0012
674.3626	0.0061
674.5465	0.0402
674.7304	-0.0077
674.9143	-0.0012
675.0982	0.0206
675.2821	-0.0071
675.4659	-0.0073
675.6497	-0.0008
675.8335	0.0256
676.0173	-0.0079
676.2011	0.0012
676.3849	0.0023
676.5686	0.0129
676.7523	0.0101
676.936	0.0054
677.1197	0.0053
677.3034	0.0352
677.487	0.0164
677.6706	0.0136
677.8542	-0.0013
678.0378	0.0048
678.2214	0.0021
678.405	0.0087
678.5885	0.0079
678.772	0.0039
678.9555	0.0023
679.139	0.009
679.3225	0.0032
679.5059	-0.0026
679.6894	0.0093
679.8728	-0.0012
680.0562	0
680.2395	-0.0058
680.4229	-0.0203
680.6062	-0.0089
680.7896	-0.0077
680.9729	0.0361
681.1562	-0.0118
681.3394	0.0044
681.5227	-0.014
681.7059	0.017
681.8891	-0.0029
682.0723	0.0045
682.2555	0.0092
682.4387	0.0352
682.6218	-0.0034
682.805	0.0067
682.9881	0.0198
683.1712	0.0175
683.3542	-0.0021
683.5373	-0.0206
683.7203	-0.0156
683.9034	0.0029
684.0864	0.0075
684.2694	0.0078
684.4523	0.0203
684.6353	-0.0056
684.8182	-0.0094
685.0011	0.0175
685.184	0.0082
685.3669	0.0203
685.5498	-0.0018
685.7326	-0.0083
685.9154	0.0052
686.0982	0.0072
686.281	-0.0004
686.4638	0.0098
686.6465	0.0109
686.8293	-0.0123
687.012	0.0015
687.1947	-0.0025
687.3774	0.0194
687.56	-0.0211
687.7427	-0.0034
687.9253	-0.0063
688.1079	-0.0014
688.2905	-0.0086
688.4731	0.0324
688.6556	0.002
688.8382	-0.0151
689.0207	0.0003
689.2032	0.0333
689.3857	0
689.5681	-0.0079
689.7506	0.0289
689.933	0.0066
690.1154	-0.01
690.2978	-0.0214
690.4802	0.0251
690.6626	0.0041
690.8449	0.011
691.0272	-0.0002
691.2095	-0.0047
691.3918	0.0031
691.5741	0.0202
691.7563	0.0012
691.9386	0.011
692.1208	0.0165
692.303	0.0102
692.4852	0.0133
692.6673	0.0005
692.8495	-0.006
693.0316	0.0127
693.2137	0.0183
693.3958	0.0109
693.5778	0.012
693.7599	-0.0097
693.9419	-0.0226
694.1239	-0.005
694.3059	0.0049
694.4879	0.015
694.6699	0.0069
694.8518	0.0223
695.0337	0.0047
695.2157	0.011
695.3975	0.0065
695.5794	-0.0062
695.7613	0.0101
695.9431	-0.0046
696.1249	0.0153
696.3067	-0.01
696.4885	0.0173
696.6703	0.0236
696.852	-0.0099
697.0337	0.0255
697.2154	0.0006
697.3971	0.0219
697.5788	0.016
697.7605	-0.0167
697.9421	0.0153
698.1237	0.0118
698.3053	-0.0029
698.4869	0.0086
698.6685	-0.0149
698.85	0.0112
699.0315	-0.0153
699.213	0.0226
699.3945	0.0079
699.576	0.0001
699.7575	-0.0032
699.9389	-0.0007
700.1203	0.0045
700.3017	0.0048
700.4831	0.0268
700.6645	0.0001
700.8458	-0.0007
701.0271	0.0359
701.2084	0.0107
701.3897	0.0191
701.571	-0.0188
701.7523	0.0021
701.9335	0.0126
702.1147	0.0183
702.2959	-0.0036
702.4771	0.0155
702.6583	0.0007
702.8394	-0.0277
703.0205	0.0286
703.2016	-0.0017
703.3827	-0.0117
703.5638	0.0001
703.7449	0.0451
703.9259	0.0121
704.1069	-0.0124
704.2879	0.014
704.4689	0.0067
704.6499	0.022
704.8308	-0.0199
705.0117	0.0078
705.1927	0.0095
705.3735	0.0069
705.5544	0.0236
705.7353	-0.0127
705.9161	0.0031
706.0969	0.0189
706.2777	-0.0031
706.4585	0.0022
706.6393	0.0288
706.82	0.0007
707.0007	-0.0002
707.1815	-0.0058
707.3621	0.0285
707.5428	0.0237
707.7235	-0.0063
707.9041	0.0137
708.0847	0.0066
708.2653	0.0296
708.4459	0.0091
708.6265	-0.0099
708.807	0.006
708.9875	0.0202
709.168	0.0101
709.3485	0.0225
709.529	0.013
709.7095	-0.0121
709.8899	0.0066
710.0703	0.0085
710.2507	0.0123
710.4311	-0.0345
710.6115	0.0148
710.7918	0.0151
710.9721	0.0078
711.1524	-0.0044
711.3327	-0.0135
711.513	0.0061
711.6932	-0.0054
711.8735	0.0366
712.0537	-0.0249
712.2339	-0.0023
712.4141	0.0458
712.5942	-0.0047
712.7744	0.0298
712.9545	0.0176
713.1346	0.0491
713.3147	-0.003
713.4947	-0.0032
713.6748	0.0038
713.8548	0.0223
714.0348	0.0228
714.2148	0.0449
714.3948	0.0232
714.5748	0.0376
714.7547	0.0141
714.9346	0.0095
715.1145	-0.0153
715.2944	-0.0029
715.4743	0.0143
715.6541	-0.0029
715.834	0.032
716.0138	0.043
716.1936	0.0081
716.3733	-0.0166
716.5531	0.0233
716.7328	0.0186
716.9126	0.027
717.0923	-0.0245
717.2719	0.0074
717.4516	0.0261
717.6312	-0.0093
717.8109	0.0179
717.9905	0.011
718.1701	0.0301
718.3496	0.0108
718.5292	0.0012
718.7087	0.0403
718.8882	0.0366
719.0677	-0.0097
719.2472	0.0155
719.4267	-0.0116
719.6061	-0.0126
719.7856	0.0376
719.965	0.0347
720.1443	-0.0031
720.3237	-0.0003
720.5031	0.0039
720.6824	0.0187
720.8617	0.0153
721.041	0.0273
721.2203	-0.0307
721.3995	0.0101
721.5788	-0.0058
721.758	-0.0003
721.9372	-0.0011
722.1164	0.028
722.2956	0.0054
722.4747	0.0262
722.6538	0.0181
722.8329	0.0145
723.012	-0.0263
723.1911	0.0303
723.3702	0.0089
723.5492	0.0109
723.7282	0.0057
723.9072	0.0205
724.0862	0.0019
724.2652	-0.0016
724.4441	-0.01
724.623	0.0084
724.8019	0.0113
724.9808	0.0136
725.1597	0.03
725.3385	0.0082
725.5174	0.0194
725.6962	-0.004
725.875	0.0104
726.0538	0.0077
726.2325	0.0152
726.4112	-0.0313
726.59	-0.0169
726.7687	-0.0229
726.9474	0.0017
727.126	0.0175
727.3047	-0.005
727.4833	0.0027
727.6619	0.0066
727.8405	0.0045
728.0191	0.0342
728.1976	0.0133
728.3762	0.0313
728.5547	-0.0028
728.7332	0.0296
728.9116	0.0324
729.0901	0.0099
729.2686	0.0004
729.447	-0.0146
729.6254	0.0061
729.8038	0.0276
729.9821	-0.0196
730.1605	0.0051
730.3388	0.009
730.5171	0.0236
730.6954	-0.0029
730.8737	0.0183
731.0519	0.0098
731.2302	0.0148
731.4084	-0.0019
731.5866	-0.0043
731.7648	0.0043
731.9429	0.016
732.1211	-0.009
732.2992	0.0038
732.4773	0.002
732.6554	-0.0061
732.8335	0.0167
733.0115	0.0072
733.1896	-0.0037
733.3676	0.0117
733.5456	0.013
733.7235	-0.0044
733.9015	0.0171
734.0794	-0.0054
734.2574	-0.0081
734.4353	0.0144
734.6131	-0.0182
734.791	-0.0118
734.9689	-0.0036
735.1467	-0.0125
735.3245	0.0266
735.5023	0.003
735.68	0.0022
735.8578	0.0025
736.0355	0.0213
736.2132	0.0214
736.3909	0.003
736.5686	0.0009
736.7463	-0.0151
736.9239	0.0017
737.1015	0.0175
737.2791	0.0107
737.4567	0.0229
737.6343	0.0146
737.8118	0.005
737.9894	0.0121
738.1669	-0.0029
738.3444	0.0272
738.5218	-0.019
738.6993	0.0025
738.8767	0.0163
739.0541	0.016
739.2315	-0.0002
739.4089	0.0108
739.5863	-0.005
739.7636	0.0039
739.9409	-0.0046
740.1182	0.0145
740.2955	0.0365
740.4728	-0.0289
740.65	-0.0101
740.8272	0.028
741.0044	-0.029
741.1816	0.0128
741.3588	-0.0069
741.5359	0.0143
741.7131	-0.0185
741.8902	-0.015
742.0673	-0.0077
742.2444	0.0357
742.4214	0.0335
742.5985	-0.0028
742.7755	0.024
742.9525	-0.0037
743.1295	-0.021
743.3064	0.0139
743.4834	-0.0063
743.6603	0.0358
743.8372	-0.0549
744.0141	0.0461
744.191	-0.0142
744.3678	-0.0162
744.5446	0.0106
744.7215	0.0005
744.8982	0.0179
745.075	0.0121
745.2518	0.032
745.4285	0.0288
745.6052	-0.0205
745.7819	0.0143
745.9586	0.0124
746.1353	-0.0135
746.3119	0.0203
746.4885	0.0069
746.6651	-0.0068
746.8417	-0.0217
747.0183	0.0304
747.1948	0.0018
747.3714	0.0257
747.5479	-0.0054
747.7244	0.0168
747.9008	-0.0206
748.0773	0.0621
748.2537	0.0436
748.4301	0.0281
748.6065	-0.0124
748.7829	-0.0375
748.9593	-0.0086
749.1356	0.0018
749.3119	0.0094
749.4882	0.0327
749.6645	0.0073
749.8408	0.0311
750.017	0.0105
750.1933	-0.0179
750.3695	0.0239
750.5457	0.0065
750.7218	-0.022
750.898	-0.0013
751.0741	0.0097
751.2502	0.0044
751.4263	0.0197
751.6024	0.0243
751.7784	-0.0261
751.9545	0.012
752.1305	0.0314
752.3065	0.0175
752.4825	-0.0106
752.6584	-0.0081
752.8344	-0.0133
753.0103	-0.022
753.1862	-0.0022
753.3621	-0.0051
753.5379	-0.0102
753.7138	0.032
753.8896	0.0125
754.0654	-0.0043
754.2412	0.0395
754.417	0.0231
754.5927	0.0121
754.7685	0.0299
754.9442	0.0164
755.1199	0.0373
755.2956	-0.0044
755.4712	0.0118
755.6469	0.0073
755.8225	-0.0019
755.9981	-0.0012
756.1736	0.0189
756.3492	0.0022
756.5248	0.0159
756.7003	0.0078
756.8758	0.0095
757.0513	0.0049
757.2267	0.0136
757.4022	-0.0012
757.5776	-0.0118
757.753	0.0133
757.9284	0.0017
758.1038	0.0194
758.2791	-0.006
758.4545	-0.002
758.6298	0.0147
758.8051	0.0127
758.9803	0.0082
759.1556	-0.0094
759.3308	0.005
759.506	-0.003
759.6812	0.0126
759.8564	-0.0058
760.0316	0.0009
760.2067	0.0315
760.3819	0.0069
760.557	-0.0054
760.732	0.0039
760.9071	0.016
761.0821	-0.0221
761.2572	0.0204
761.4322	0.0188
761.6072	0.0021
761.7821	-0.0283
761.9571	0.0389
762.132	-0.016
762.3069	0.0138
762.4818	0.0085
762.6567	-0.0007
762.8316	0.0203
763.0064	0.0184
763.1812	0.0209
763.356	-0.0103
763.5308	0.0104
763.7055	-0.023
763.8803	-0.0218
764.055	-0.0105
764.2297	0.0057
764.4044	-0.0017
764.579	0.0105
764.7537	-0.0099
764.9283	0.0139
765.1029	0.0075
765.2775	0.0178
765.4521	0.0132
765.6266	-0.0003
765.8011	0.0097
765.9756	0.0349
766.1501	0.0022
766.3246	0.0092
766.4991	0.0152
766.6735	0.0556
766.8479	0.0033
767.0223	0.0329
767.1967	0.0251
767.371	0.0422
767.5454	0.0413
767.7197	0.0292
767.894	0.019
768.0683	0.0154
768.2425	0.005
768.4168	0.0044
768.591	0.0025
768.7652	0.0031
768.9394	-0.0064
769.1135	-0.0127
769.2877	0.0111
769.4618	0.0278
769.6359	-0.002
769.81	0.0096
769.984	0.0001
770.1581	0.0084
770.3321	0.0262
770.5061	-0.0119
770.6801	0.0163
770.8541	0.0102
771.028	0.0515
771.202	0.018
771.3759	0.011
771.5498	0.009
771.7236	0.0028
771.8975	0.0381
772.0713	0.015
772.2451	0.0135
772.4189	-0.0213
772.5927	-0.0316
772.7665	-0.0034
772.9402	0.0333
773.1139	-0.0021
773.2876	0.0067
773.4613	0.0144
773.635	0.0211
773.8086	0.0735
773.9822	0.0396
774.1558	0.0268
774.3294	0.0139
774.503	0.0113
774.6765	0.016
774.8501	-0.0353
775.0236	0.0144
775.1971	-0.0142
775.3705	-0.0022
775.544	-0.0167
775.7174	0.0431
775.8908	0.0045
776.0642	0.0264
776.2376	0.043
776.4109	0.0123
776.5843	-0.0204
776.7576	-0.0148
776.9309	0.0018
777.1041	-0.0664
777.2774	0.051
777.4506	-0.0041
777.6238	-0.0154
777.797	0.0159
777.9702	-0.0115
778.1434	0.0243
778.3165	-0.0268
778.4896	-0.0223
778.6627	0.0216
778.8358	-0.0079
779.0089	0.0223
779.1819	0.0307
779.3549	0.0263
779.5279	-0.0133
779.7009	0.0777
779.8739	0.043
780.0468	-0.0006
780.2197	0.0355
780.3926	-0.0247
780.5655	0.0403
780.7384	-0.0151
780.9112	0.0317
781.0841	0.001
781.2569	0.0285
781.4297	-0.0049
781.6024	0.0332
781.7752	0.0612
781.9479	0.0251
782.1206	-0.0098
782.2933	0.0151
782.466	0.0309
782.6386	-0.0173
782.8113	0.0095
782.9839	0.0401
783.1565	0.0158
783.329	-0.0016
783.5016	0.0277
783.6741	0.0131
783.8466	0.0353
784.0191	0.0247
784.1916	-0.0092
784.3641	-0.0135
784.5365	0.018
784.7089	-0.0081
784.8813	0.0603
785.0537	0.0291
785.2261	0.0001
785.3984	-0.0148
785.5707	0.0046
785.743	0.0296
785.9153	-0.0208
786.0876	-0.02
786.2598	-0.0058
786.432	0.0488
786.6042	0.0669
786.7764	0.0058
786.9486	0.028
787.1207	0.0158
787.2928	0.0261
787.4649	-0.0207
787.637	-0.0017
787.8091	0.0144
787.9811	0.0327
788.1532	0.0273
788.3252	0.0095
788.4972	-0.0043
788.6691	0.0174
788.8411	-0.0047
789.013	0.0077
789.1849	-0.0104
789.3568	0.0009
789.5287	0.0268
789.7005	-0.012
789.8723	-0.0209
790.0442	-0.0567
790.2159	0.0203
790.3877	0.0461
790.5595	0.0204
790.7312	0.0238
790.9029	0.0012
791.0746	0.0152
791.2463	-0.0247
791.4179	-0.0244
791.5896	-0.0115
791.7612	-0.0058
791.9328	-0.0276
792.1044	0.026
792.2759	-0.0545
792.4474	0.056
792.619	-0.041
792.7905	0.0212
792.9619	0.0324
793.1334	0.0405
793.3048	0.0601
793.4762	-0.0082
793.6476	-0.0319
793.819	-0.027
793.9904	-0.0059
794.1617	-0.0146
794.333	0.0264
794.5043	0.0047
794.6756	0.0013
794.8469	0.015
795.0181	0.0096
795.1893	0.0134
795.3605	0.0485
795.5317	-0.055
795.7029	-0.0283
795.874	0.0433
796.0452	0.0285
796.2163	0.097
796.3873	0.0162
796.5584	0.0793
796.7294	0.0327
796.9005	0.0515
797.0715	-0.06
797.2425	0.061
797.4134	0.038
797.5844	0.0628
797.7553	-0.0632
797.9262	0.0578
798.0971	0.0347
798.2679	0.0408
798.4388	0.0329
798.6096	0.0255
798.7804	0.056
798.9512	0.0156
799.122	0.0119
799.2927	0.018
799.4635	-0.058
799.6342	-0.0716
799.8049	0.0714
799.9755	-0.0589
800.1462	0.0402
800.3168	0.1241
800.4874	-0.0696
800.658	0.1137
800.8286	-0.0297
800.9991	-0.0543
801.1696	-0.0197
801.3402	-0.0193
801.5106	-0.0586
801.6811	-0.0154
801.8516	0.0602
802.022	0.0235
802.1924	0.013
802.3628	0.0003
802.5332	0.0678
802.7035	0.0935
802.8739	0.1442
803.0442	-0.0491
803.2145	0.0432
803.3847	-0.0028
803.555	0.0161
803.7252	-0.005
803.8954	0.0657
804.0656	-0.0577
804.2358	-0.0639
804.4059	0.0582
804.5761	0.008
804.7462	0.0288
804.9163	-0.0402
805.0864	0.0217
805.2564	0.0722
805.4264	-0.0361
805.5965	0.0462
805.7665	-0.0176
805.9364	-0.0537
806.1064	0.051
806.2763	0.0365
806.4462	0.0736
806.6161	0.0454
806.786	-0.026
806.9559	-0.0114
807.1257	0.0887
807.2955	0.007
807.4653	0.0561
807.6351	0.0319
807.8048	0.0099
807.9746	0.0658
808.1443	-0.0105
808.314	0.0037
808.4837	-0.0193
808.6533	-0.0472
808.8229	0.0259
808.9926	0.0356
809.1622	0.0243
809.3317	-0.0438
809.5013	-0.072
809.6708	0.0104
809.8403	0.1101
810.0098	0.0278
810.1793	0.0444
810.3488	0.0535
810.5182	0.0584
810.6876	0.043
810.857	0.057
811.0264	-0.0584
811.1958	0.0797
811.3651	-0.0357
811.5344	0.0547
811.7037	0.1457
811.873	0.079
812.0422	0.0064
812.2115	-0.0111
812.3807	-0.0308
812.5499	-0.0272
812.7191	-0.1432
812.8882	-0.1048
813.0574	0.1906
813.2265	0.0059
813.3956	-0.0079
813.5646	-0.0108
813.7337	0.0577
813.9027	-0.0313
814.0718	-0.0375
814.2407	0.0389
814.4097	0.0905
814.5787	0.0588
814.7476	-0.0127
814.9165	0.0333
815.0854	-0.0325
815.2543	0.0827
815.4232	0.1201
815.592	0.0345
815.7608	0.0387
815.9296	-0.016
816.0984	0.1078
816.2671	-0.2107
816.4359	0.2284
816.6046	0.0454
816.7733	-0.045
816.942	0.0668
817.1106	0.0097
817.2793	-0.0109
817.4479	-0.0043
817.6165	-0.018
817.785	0.0713
817.9536	0.0458
818.1221	0.0414
818.2906	-0.1315
818.4591	-0.0255
818.6276	-0.0547
818.7961	0.0405
818.9645	-0.0362
819.1329	0.0639
819.3013	0.0302
819.4697	0.041
819.638	0.0534
819.8064	0.0276
819.9747	0.0072
820.143	-0.0655
820.3113	0.0297
820.4795	-0.013
820.6477	0.1635
820.816	0.1372
820.9842	0.0094
821.1523	0.0734
821.3205	0.0802
821.4886	-0.0138
821.6567	-0.0726
821.8248	0.1659
821.9929	-0.2262
822.1609	-0.0471
822.329	0.028
822.497	0.031
822.665	0.0038
822.833	0.0006
823.0009	-0.03
823.1688	0.0548
823.3367	-0.1817
823.5046	0.0944
823.6725	-0.0746
823.8404	0.0913
824.0082	-0.0677
824.176	-0.2069
824.3438	0.2052
824.5116	-0.0508
824.6793	0.1926
824.847	0.1532
825.0147	0.1418
825.1824	0.1216
825.3501	0.2708
825.5177	-0.0298
825.6854	0.3099
825.853	0.0006
826.0206	0.1348
826.1881	0.1119
826.3557	-0.0064
826.5232	0.2039
826.6907	-0.0248
826.8582	-0.0035
827.0257	0.2687
827.1931	0.1204
827.3605	0.0535
827.528	-0.1899
827.6953	-0.1928
827.8627	-0.029
828.03	0.1926
828.1974	-0.1007
828.3647	0.0005
828.532	0.2724
828.6992	0.0328
828.8665	-0.0763
829.0337	-0.0285
829.2009	-0.0186
829.3681	-0.0726
829.5352	-0.4954
829.7024	0.014
829.8695	-0.0726
830.0366	0.3668
830.2037	0.1206
830.3707	0.2014
830.5378	-0.0843
830.7048	-0.2259
830.8718	0.1251
831.0388	0.0828
831.2057	-0.0447
831.3727	-0.288
831.5396	0.4415
831.7065	-0.7774
831.8734	-0.0463
832.0402	0.1229
832.2071	-0.3239
832.3739	-0.4001
832.5407	-0
832.7075	-0.4006
832.8742	0.6431
833.041	0.2714
833.2077	-0.0648
833.3744	0.0346
833.541	0.1555
833.7077	0.0835
833.8743	0.2414
834.0409	0.004
834.2075	0.0951
834.3741	-0.3192
834.5407	0.1104
834.7072	0.3598
834.8737	0.2644
835.0402	0.6317
835.2067	-0.0992
835.3731	0.0524
835.5395	-0.0067
835.706	0.08
835.8723	-0.099
836.0387	0.076
836.2051	0.3595
836.3714	0.0294
836.5377	-0.0651
836.704	0.0241
836.8703	-0.1341
837.0365	-0.6173
837.2027	-0.0786
837.3689	0.3367
837.5351	0.1899
837.7013	-0.1272
837.8674	-0.3043
838.0335	-0.1932
838.1997	-0.0207
838.3657	0.1707
838.5318	-0.3221
838.6978	-0
838.8639	-0.3976
839.0299	0.0597
839.1958	0.1344
839.3618	-0.1896
839.5277	-0.1479
839.6937	0.0344
839.8596	0.0591
840.0254	-0.0232
840.1913	0.2966
840.3571	0.078
840.523	-0
840.6888	-0.1123
840.8545	-0.6584
841.0203	0.0518
841.186	0.1402
841.3517	-0.288
841.5174	0.2597
841.6831	-0.1653
841.8488	-0.0389
842.0144	0.2441
842.18	0.4694
842.3456	-0.6667
842.5112	-0
842.6767	-0.0266
842.8422	-0.1121
843.0077	0.2077
843.1732	-0.3532
843.3387	0.3541
843.5042	-0
843.6696	0.0181
843.835	-0
844.0004	0.0925
844.1657	-0
844.3311	-0.4139
844.4964	-0.3073
844.6617	0.278
844.827	-0
844.9923	0.2411
845.1575	0.4618
845.3227	-0.1195
845.4879	-0
845.6531	-0
845.8183	0.2089
845.9834	0.231
846.1485	0.1864
846.3136	0.0642
846.4787	-0.1063
846.6438	0.0022
846.8088	-0
846.9738	-0
847.1388	0.3171
847.3038	0.0381
847.4687	-0
847.6337	-0
847.7986	0.9519
847.9635	-0.0192
848.1284	2.1697
848.2932	0.1493
848.458	-0
848.6228	-0.1644
848.7876	-0
848.9524	-0.4401
849.1172	-0
849.2819	-0.6894
849.4466	0.4329
849.6113	0.0352
849.7759	-0
849.9406	-0.2084
850.1052	-0
850.2698	-0.0282
850.4344	-0.4707
850.599	-0
850.7635	-0
850.928	0.128
851.0925	0.5352
851.257	-0
851.4215	-0
851.5859	0.0082
851.7503	-0
851.9147	-0.6101
852.0791	0.3163
852.2434	0.0876
852.4078	-0.4513
852.5721	0.4895
852.7364	-0.1247
852.9007	-0.0483
853.0649	-0
853.2291	0.119
853.3934	-0
853.5575	-0.1361
853.7217	0.6016
853.8859	-0.6948
854.05	-0.5432
854.2141	-0
854.3782	-0
854.5423	-0.4308
854.7063	0.6505
854.8703	0.2235
855.0343	-0.2376
855.1983	0.2495
855.3623	-0.129
855.5262	-0.1927
855.6901	0.318
855.854	0.2096
856.0179	-0
856.1818	2.0294
856.3456	-0
856.5094	-0
856.6732	-0
856.837	-0.7758
857.0008	-0.2543
857.1645	1.6721
857.3282	-0.0241
857.4919	0.1384
857.6556	-0.6207
857.8192	-0.1764
857.9828	0.3212
858.1465	-0.0469
858.31	-0.2379
858.4736	-0.5335
858.6372	-0.442
858.8007	0.0417
858.9642	0.2118
859.1277	0.7389
859.2911	-0.2454
859.4546	-0
859.618	0.7551
859.7814	-0.1973
859.9448	0.8365
860.1081	0.0278
860.2715	-0
860.4348	0.1384
860.5981	0.4651
860.7614	-0
860.9246	0.3381
861.0879	0.1328
861.2511	-0
861.4143	-0
861.5774	-0.337
861.7406	-0.0354
861.9037	-0
862.0668	-0.7768
862.2299	0.3285
862.393	-0
862.556	-0
862.7191	-0.2292
862.8821	0.147
863.0451	-0.0917
863.208	0.4547
863.371	-0.3073
863.5339	0.158
863.6968	-0
863.8597	-0.445
864.0225	1.1622
864.1854	-0.167
864.3482	-1.245
864.511	-0
864.6737	0.103
864.8365	-0.1137
864.9992	-0
865.1619	-0.2905
865.3246	-2.0577
865.4873	-0
865.65	-0
865.8126	-0
865.9752	-0.0474
866.1378	0.5329
866.3004	-0.3529
866.4629	-2.0152
866.6254	0.1387
866.7879	-0
866.9504	-0.5687
867.1129	-0.6383
867.2753	0.2469
867.4377	-0.0125
867.6001	0.3709
867.7625	-0.0875
867.9249	-0
868.0872	0.1055
868.2495	-0
868.4118	-0
868.5741	-0
868.7363	-0
868.8986	-0
869.0608	0.2173
869.223	-0.1322
869.3851	-0
869.5473	0.0014
869.7094	-0
869.8715	-0
870.0336	0.1055
870.1957	-0.0207
870.3577	-0
870.5197	-0.0202
870.6817	-0.8665
870.8437	0.2966
871.0057	-0
871.1676	0.1384
871.3295	-0
871.4914	-0
871.6533	-0.5764
871.8151	0.3223
871.977	0.8094
872.1388	1.1406
872.3006	-0.1884
872.4623	-0.4915
872.6241	-0
872.7858	-0.0117
872.9475	-0
873.1092	0.5614
873.2709	-0
873.4325	-1.7833
873.5941	-0.9871
873.7557	1.8513
873.9173	0.033
874.0789	0.1947
874.2404	-0
874.4019	0.1355
874.5634	-0
874.7249	-0
874.8863	1.0414
875.0478	-0.2609
875.2092	0.6112
875.3706	0.1393
875.5319	-0
875.6933	-0.0117
875.8546	-0
876.0159	1.6014
876.1772	-0
876.3385	0.4937
876.4997	-0
876.6609	-0
876.8221	-0
876.9833	-0
877.1445	0.3678
877.3056	-0.8288
877.4667	-0.7799
877.6278	0.3985
877.7889	-0
877.9499	1.3617
878.111	-0.4837
878.272	-0.2125
878.433	-0.234
878.5939	-0
878.7549	-0
878.9158	-0.1954
879.0767	0.3057
879.2376	1.48
879.3984	0.2186
879.5593	0.2749
879.7201	-1.8513
879.8809	-0
880.0417	0.3674
880.2024	1.5262
880.3632	-0.6719
880.5239	0.2842
880.6846	-0.5635
880.8452	-0.3059
881.0059	-0.9384
881.1665	0.1337
881.3271	0.4398
881.4877	0.1223
881.6483	-0.8302
881.8088	-0
881.9693	-0.0483
882.1298	-0.0483
882.2903	-0.0483
