Data from D4ACN5uM440nmA_Absorbance_13-50-25-057.txt Node
Date: Fri Feb 21 13:50:25 GMT 2025
User: LASERRRRR
Spectrometer: FLMT03099
Trigger mode: 0
Integration Time (sec): 1.500000E-2
Scans to average: 1
Electric dark correction enabled: true
Nonlinearity correction enabled: false
Boxcar width: 0
XAxis mode: Wavelengths
Number of Pixels in Spectrum: 3648
>>>>>Begin Spectral Data<<<<<
179.3399	-0
179.5586	-0
179.7771	-0
179.9957	-0.1988
180.2143	-1.5631
180.4329	-0
180.6514	-0
180.8699	-0
181.0885	0.0677
181.307	0.0373
181.5255	0.3749
181.744	-0
181.9625	0.257
182.181	-0.3369
182.3994	-0.2836
182.6179	0.4096
182.8363	0.243
183.0547	-0.1756
183.2732	-0.0145
183.4916	0.1212
183.71	0.172
183.9284	0.1109
184.1467	0.3688
184.3651	0.023
184.5835	0.3467
184.8018	0.1526
185.0201	0.1725
185.2385	0.2657
185.4568	0.0791
185.6751	0.0264
185.8934	0.216
186.1117	0.0313
186.3299	0.0582
186.5482	0.1594
186.7664	0.2802
186.9847	-0.0388
187.2029	0.6249
187.4211	0.276
187.6393	0.1128
187.8575	0.232
188.0757	0.6915
188.2939	0.1204
188.512	0.3703
188.7302	0.1323
188.9483	0.4217
189.1665	0.4136
189.3846	0.3814
189.6027	0.1035
189.8208	0.4327
190.0389	0.4597
190.257	0.1055
190.475	0.0632
190.6931	0.0805
190.9111	-0.0235
191.1292	0.0997
191.3472	0.1858
191.5652	0.2654
191.7832	0.2611
192.0012	0.0868
192.2192	0.1819
192.4371	0.1016
192.6551	0.2088
192.873	0.2461
193.091	0.1637
193.3089	0.2163
193.5268	0.3935
193.7447	0.0979
193.9626	0.2474
194.1805	0.2545
194.3984	0.2081
194.6162	0.3195
194.8341	0.1952
195.0519	0.219
195.2697	0.3612
195.4875	0.351
195.7054	0.2932
195.9231	0.3083
196.1409	0.3541
196.3587	0.3563
196.5765	0.3293
196.7942	0.3733
197.012	0.3706
197.2297	0.3665
197.4474	0.3707
197.6651	0.3174
197.8828	0.3662
198.1005	0.42
198.3182	0.4683
198.5358	0.3521
198.7535	0.3649
198.9711	0.3834
199.1888	0.3973
199.4064	0.399
199.624	0.4407
199.8416	0.3954
200.0592	0.3889
200.2767	0.3954
200.4943	0.3707
200.7119	0.3951
200.9294	0.3758
201.1469	0.4045
201.3645	0.4954
201.582	0.3788
201.7995	0.4716
202.017	0.3522
202.2344	0.4214
202.4519	0.4275
202.6694	0.4525
202.8868	0.4278
203.1042	0.407
203.3217	0.4003
203.5391	0.4139
203.7565	0.38
203.9739	0.3502
204.1913	0.3737
204.4086	0.3561
204.626	0.3669
204.8433	0.3431
205.0607	0.3414
205.278	0.3572
205.4953	0.3618
205.7126	0.3634
205.9299	0.335
206.1472	0.3438
206.3644	0.3119
206.5817	0.3276
206.7989	0.3193
207.0162	0.3171
207.2334	0.3229
207.4506	0.3166
207.6678	0.2962
207.885	0.2888
208.1022	0.3169
208.3194	0.313
208.5365	0.3253
208.7537	0.2934
208.9708	0.3073
209.1879	0.2912
209.405	0.2533
209.6222	0.2855
209.8392	0.2922
210.0563	0.3018
210.2734	0.2571
210.4905	0.2651
210.7075	0.2619
210.9245	0.2877
211.1416	0.2889
211.3586	0.266
211.5756	0.2538
211.7926	0.2679
212.0096	0.2741
212.2265	0.2827
212.4435	0.285
212.6604	0.272
212.8774	0.2394
213.0943	0.2733
213.3112	0.2657
213.5281	0.2479
213.745	0.234
213.9619	0.2659
214.1788	0.2608
214.3956	0.2358
214.6125	0.2654
214.8293	0.2549
215.0461	0.2377
215.2629	0.2533
215.4798	0.2555
215.6965	0.2593
215.9133	0.2377
216.1301	0.2431
216.3469	0.2408
216.5636	0.2536
216.7803	0.2463
216.9971	0.2672
217.2138	0.2558
217.4305	0.257
217.6472	0.2318
217.8639	0.2529
218.0805	0.2624
218.2972	0.2438
218.5138	0.2479
218.7305	0.2513
218.9471	0.2631
219.1637	0.2836
219.3803	0.2575
219.5969	0.2504
219.8135	0.2669
220.0301	0.2722
220.2466	0.2605
220.4632	0.2581
220.6797	0.2598
220.8962	0.2585
221.1127	0.282
221.3292	0.2809
221.5457	0.2824
221.7622	0.2669
221.9787	0.3029
222.1951	0.2923
222.4116	0.2749
222.628	0.283
222.8444	0.2866
223.0608	0.2777
223.2772	0.2823
223.4936	0.272
223.71	0.284
223.9264	0.2842
224.1427	0.2967
224.3591	0.2844
224.5754	0.2972
224.7917	0.3037
225.008	0.3081
225.2243	0.3062
225.4406	0.2943
225.6569	0.3012
225.8732	0.2987
226.0894	0.3084
226.3057	0.3087
226.5219	0.3201
226.7381	0.3205
226.9543	0.3167
227.1705	0.3142
227.3867	0.3325
227.6029	0.3304
227.8191	0.3372
228.0352	0.33
228.2513	0.3504
228.4675	0.3509
228.6836	0.3495
228.8997	0.354
229.1158	0.3513
229.3319	0.3575
229.548	0.3478
229.764	0.3463
229.9801	0.3781
230.1961	0.372
230.4121	0.365
230.6282	0.3832
230.8442	0.3841
231.0602	0.383
231.2761	0.3731
231.4921	0.3912
231.7081	0.3846
231.924	0.4001
232.14	0.4011
232.3559	0.4078
232.5718	0.4031
232.7877	0.4063
233.0036	0.3994
233.2195	0.4076
233.4353	0.4232
233.6512	0.4186
233.867	0.43
234.0829	0.4263
234.2987	0.4247
234.5145	0.4299
234.7303	0.4384
234.9461	0.4364
235.1619	0.431
235.3776	0.4383
235.5934	0.4388
235.8091	0.4472
236.0249	0.447
236.2406	0.4358
236.4563	0.4473
236.672	0.4385
236.8877	0.4394
237.1034	0.4458
237.319	0.4472
237.5347	0.4545
237.7503	0.4515
237.966	0.4639
238.1816	0.4559
238.3972	0.4551
238.6128	0.4615
238.8284	0.4644
239.0439	0.4567
239.2595	0.4624
239.475	0.4646
239.6906	0.4481
239.9061	0.4641
240.1216	0.4625
240.3371	0.4596
240.5526	0.4701
240.7681	0.4634
240.9836	0.4616
241.199	0.457
241.4145	0.4536
241.6299	0.4473
241.8453	0.4429
242.0607	0.4334
242.2761	0.4311
242.4915	0.4222
242.7069	0.4192
242.9223	0.416
243.1376	0.4087
243.353	0.3904
243.5683	0.3932
243.7836	0.3864
243.9989	0.3788
244.2142	0.373
244.4295	0.3683
244.6448	0.361
244.86	0.3506
245.0753	0.3477
245.2905	0.338
245.5057	0.3341
245.721	0.3307
245.9362	0.3238
246.1514	0.3236
246.3665	0.3091
246.5817	0.3043
246.7969	0.2974
247.012	0.2922
247.2271	0.2881
247.4423	0.2813
247.6574	0.2804
247.8725	0.2681
248.0876	0.2654
248.3026	0.2662
248.5177	0.2585
248.7328	0.2439
248.9478	0.2493
249.1628	0.2453
249.3779	0.2351
249.5929	0.2366
249.8079	0.2302
250.0228	0.2279
250.2378	0.2306
250.4528	0.2258
250.6677	0.2245
250.8827	0.2161
251.0976	0.2182
251.3125	0.2168
251.5274	0.2168
251.7423	0.2056
251.9572	0.2092
252.172	0.2057
252.3869	0.2093
252.6017	0.2065
252.8166	0.2008
253.0314	0.1891
253.2462	0.2029
253.461	0.1973
253.6758	0.1895
253.8906	0.1981
254.1053	0.1936
254.3201	0.1955
254.5348	0.187
254.7496	0.1858
254.9643	0.1903
255.179	0.1827
255.3937	0.1909
255.6083	0.188
255.823	0.1908
256.0377	0.1791
256.2523	0.1828
256.467	0.183
256.6816	0.1815
256.8962	0.1866
257.1108	0.1869
257.3254	0.1789
257.54	0.1804
257.7545	0.187
257.9691	0.1782
258.1836	0.177
258.3981	0.1797
258.6127	0.1765
258.8272	0.184
259.0417	0.1791
259.2561	0.1777
259.4706	0.1766
259.6851	0.1766
259.8995	0.1743
260.114	0.181
260.3284	0.1739
260.5428	0.1729
260.7572	0.1721
260.9716	0.1852
261.186	0.171
261.4003	0.1708
261.6147	0.1732
261.829	0.1734
262.0433	0.1739
262.2577	0.1744
262.472	0.1742
262.6863	0.1828
262.9005	0.1767
263.1148	0.1767
263.3291	0.1777
263.5433	0.1763
263.7576	0.1767
263.9718	0.1779
264.186	0.1787
264.4002	0.1762
264.6144	0.189
264.8286	0.1806
265.0427	0.1842
265.2569	0.1785
265.471	0.1773
265.6851	0.1814
265.8993	0.1792
266.1134	0.1773
266.3275	0.178
266.5415	0.183
266.7556	0.1854
266.9697	0.1864
267.1837	0.1804
267.3978	0.1772
267.6118	0.1797
267.8258	0.1828
268.0398	0.1799
268.2538	0.1796
268.4677	0.1807
268.6817	0.1783
268.8957	0.1723
269.1096	0.1663
269.3235	0.1756
269.5374	0.1813
269.7514	0.1786
269.9652	0.1785
270.1791	0.1723
270.393	0.176
270.6068	0.1796
270.8207	0.1789
271.0345	0.1711
271.2483	0.1654
271.4622	0.1726
271.676	0.1698
271.8897	0.1696
272.1035	0.1703
272.3173	0.1691
272.531	0.1739
272.7448	0.165
272.9585	0.169
273.1722	0.1645
273.3859	0.1697
273.5996	0.1724
273.8133	0.1684
274.0269	0.1711
274.2406	0.1659
274.4542	0.1668
274.6679	0.1754
274.8815	0.1756
275.0951	0.1786
275.3087	0.1776
275.5223	0.1747
275.7358	0.1762
275.9494	0.1767
276.1629	0.1787
276.3765	0.1811
276.59	0.1718
276.8035	0.1724
277.017	0.1798
277.2305	0.1761
277.444	0.1779
277.6574	0.1765
277.8709	0.1784
278.0843	0.1801
278.2978	0.1835
278.5112	0.1784
278.7246	0.175
278.938	0.1825
279.1513	0.1784
279.3647	0.1789
279.5781	0.1786
279.7914	0.1817
280.0047	0.1778
280.2181	0.1793
280.4314	0.1812
280.6447	0.1789
280.8579	0.1791
281.0712	0.1739
281.2845	0.1833
281.4977	0.1785
281.711	0.1819
281.9242	0.1805
282.1374	0.1808
282.3506	0.1806
282.5638	0.1827
282.7769	0.1743
282.9901	0.1803
283.2033	0.183
283.4164	0.1834
283.6295	0.1808
283.8426	0.1825
284.0557	0.1848
284.2688	0.1852
284.4819	0.1788
284.695	0.1855
284.908	0.1773
285.1211	0.1853
285.3341	0.1849
285.5471	0.1847
285.7601	0.1837
285.9731	0.1854
286.1861	0.1856
286.3991	0.1859
286.612	0.1878
286.825	0.1858
287.0379	0.1921
287.2508	0.1904
287.4637	0.1916
287.6766	0.1907
287.8895	0.1827
288.1024	0.1925
288.3152	0.1882
288.5281	0.1869
288.7409	0.1923
288.9538	0.1878
289.1666	0.1903
289.3794	0.1817
289.5922	0.1849
289.8049	0.1918
290.0177	0.1888
290.2304	0.1898
290.4432	0.1952
290.6559	0.1951
290.8686	0.1885
291.0813	0.1924
291.294	0.1934
291.5067	0.1943
291.7194	0.1907
291.932	0.186
292.1447	0.1964
292.3573	0.193
292.5699	0.1941
292.7825	0.1869
292.9951	0.1865
293.2077	0.19
293.4203	0.1928
293.6328	0.1908
293.8454	0.1941
294.0579	0.1861
294.2704	0.1949
294.4829	0.1921
294.6954	0.1924
294.9079	0.1934
295.1204	0.188
295.3328	0.1996
295.5453	0.2015
295.7577	0.1913
295.9701	0.1914
296.1825	0.1989
296.3949	0.1907
296.6073	0.1879
296.8197	0.1954
297.0321	0.1925
297.2444	0.1915
297.4567	0.1952
297.6691	0.1881
297.8814	0.1938
298.0937	0.1963
298.306	0.1888
298.5182	0.1948
298.7305	0.1931
298.9428	0.1889
299.155	0.1846
299.3672	0.1938
299.5794	0.1955
299.7916	0.192
300.0038	0.1935
300.216	0.193
300.4282	0.1927
300.6403	0.1944
300.8525	0.1865
301.0646	0.1954
301.2767	0.1924
301.4888	0.1897
301.7009	0.1914
301.913	0.1957
302.125	0.1863
302.3371	0.1891
302.5491	0.1898
302.7612	0.2
302.9732	0.1918
303.1852	0.1961
303.3972	0.196
303.6092	0.1931
303.8211	0.1896
304.0331	0.1883
304.245	0.1918
304.457	0.1897
304.6689	0.1888
304.8808	0.1955
305.0927	0.1906
305.3046	0.1888
305.5164	0.1837
305.7283	0.1806
305.9401	0.1729
306.152	0.1807
306.3638	0.1766
306.5756	0.1776
306.7874	0.1743
306.9992	0.1734
307.2109	0.173
307.4227	0.1733
307.6344	0.1761
307.8462	0.1712
308.0579	0.1748
308.2696	0.1655
308.4813	0.1659
308.693	0.1614
308.9046	0.1662
309.1163	0.1597
309.328	0.1645
309.5396	0.1528
309.7512	0.1609
309.9628	0.1536
310.1744	0.1455
310.386	0.148
310.5976	0.1481
310.8091	0.1513
311.0207	0.1516
311.2322	0.1427
311.4437	0.142
311.6552	0.1483
311.8667	0.1456
312.0782	0.1359
312.2897	0.1426
312.5012	0.14
312.7126	0.1369
312.924	0.1393
313.1355	0.1401
313.3469	0.1348
313.5583	0.1301
313.7696	0.1269
313.981	0.1394
314.1924	0.1284
314.4037	0.1324
314.6151	0.1303
314.8264	0.1289
315.0377	0.1269
315.249	0.1327
315.4603	0.1284
315.6716	0.1283
315.8828	0.1334
316.0941	0.1254
316.3053	0.1211
316.5165	0.129
316.7277	0.122
316.9389	0.1209
317.1501	0.1281
317.3613	0.1232
317.5724	0.1263
317.7836	0.1182
317.9947	0.1237
318.2058	0.1218
318.417	0.121
318.6281	0.1238
318.8391	0.1251
319.0502	0.1257
319.2613	0.124
319.4723	0.1231
319.6834	0.1215
319.8944	0.1207
320.1054	0.1266
320.3164	0.1256
320.5274	0.1228
320.7383	0.1225
320.9493	0.1298
321.1602	0.1178
321.3712	0.1202
321.5821	0.1174
321.793	0.1255
322.0039	0.1275
322.2148	0.1273
322.4257	0.1225
322.6365	0.122
322.8474	0.1286
323.0582	0.1282
323.269	0.1241
323.4798	0.1233
323.6906	0.122
323.9014	0.1172
324.1122	0.1233
324.3229	0.1298
324.5337	0.1231
324.7444	0.1278
324.9551	0.1215
325.1658	0.1241
325.3765	0.1255
325.5872	0.1195
325.7979	0.1208
326.0085	0.1265
326.2192	0.1254
326.4298	0.1253
326.6404	0.132
326.851	0.1306
327.0616	0.1298
327.2722	0.1302
327.4828	0.124
327.6933	0.1371
327.9039	0.1308
328.1144	0.1318
328.3249	0.1339
328.5354	0.1263
328.7459	0.1292
328.9564	0.1273
329.1669	0.1329
329.3773	0.1354
329.5878	0.1301
329.7982	0.1291
330.0086	0.1349
330.219	0.1213
330.4294	0.1298
330.6398	0.1334
330.8502	0.139
331.0605	0.1294
331.2708	0.1302
331.4812	0.1346
331.6915	0.1331
331.9018	0.1319
332.1121	0.1375
332.3224	0.1305
332.5326	0.1368
332.7429	0.1391
332.9531	0.1362
333.1633	0.1332
333.3735	0.1339
333.5837	0.134
333.7939	0.1352
334.0041	0.1433
334.2143	0.1389
334.4244	0.1428
334.6346	0.1349
334.8447	0.1322
335.0548	0.1387
335.2649	0.139
335.475	0.14
335.685	0.1328
335.8951	0.1346
336.1051	0.1375
336.3152	0.1419
336.5252	0.1412
336.7352	0.142
336.9452	0.1397
337.1552	0.1365
337.3652	0.1292
337.5751	0.139
337.7851	0.1335
337.995	0.1364
338.2049	0.141
338.4148	0.146
338.6247	0.1398
338.8346	0.1394
339.0445	0.1403
339.2543	0.1402
339.4642	0.1389
339.674	0.1414
339.8838	0.1385
340.0936	0.1426
340.3034	0.1393
340.5132	0.1391
340.7229	0.1397
340.9327	0.1514
341.1424	0.1416
341.3522	0.1377
341.5619	0.1432
341.7716	0.149
341.9813	0.1561
342.1909	0.1537
342.4006	0.1483
342.6102	0.1436
342.8199	0.1479
343.0295	0.1494
343.2391	0.1422
343.4487	0.1524
343.6583	0.1585
343.8679	0.1484
344.0774	0.1557
344.287	0.1519
344.4965	0.1475
344.706	0.159
344.9155	0.1519
345.125	0.1552
345.3345	0.1631
345.544	0.1545
345.7534	0.1618
345.9629	0.1608
346.1723	0.1619
346.3817	0.1518
346.5911	0.1605
346.8005	0.1735
347.0099	0.1579
347.2193	0.1694
347.4286	0.1706
347.638	0.1683
347.8473	0.1692
348.0566	0.1685
348.2659	0.1642
348.4752	0.1628
348.6845	0.1703
348.8937	0.1663
349.103	0.1632
349.3122	0.1669
349.5214	0.172
349.7306	0.1745
349.9398	0.1726
350.149	0.1712
350.3582	0.174
350.5674	0.1725
350.7765	0.1762
350.9856	0.166
351.1948	0.1755
351.4039	0.1757
351.613	0.1703
351.822	0.1888
352.0311	0.1752
352.2402	0.1756
352.4492	0.1768
352.6582	0.1706
352.8672	0.183
353.0762	0.1839
353.2852	0.1876
353.4942	0.1824
353.7032	0.178
353.9121	0.1792
354.1211	0.1775
354.33	0.18
354.5389	0.1758
354.7478	0.1852
354.9567	0.1829
355.1655	0.1782
355.3744	0.1822
355.5833	0.1852
355.7921	0.1905
356.0009	0.1863
356.2097	0.1796
356.4185	0.1844
356.6273	0.1857
356.8361	0.1933
357.0448	0.1916
357.2536	0.1958
357.4623	0.1863
357.671	0.1972
357.8797	0.1924
358.0884	0.1857
358.2971	0.191
358.5057	0.1997
358.7144	0.1904
358.923	0.199
359.1316	0.2015
359.3402	0.1998
359.5488	0.1974
359.7574	0.2059
359.966	0.1963
360.1746	0.2038
360.3831	0.2058
360.5916	0.2012
360.8002	0.212
361.0087	0.209
361.2172	0.2072
361.4256	0.2057
361.6341	0.2075
361.8426	0.2124
362.051	0.2129
362.2594	0.2076
362.4678	0.2129
362.6762	0.2159
362.8846	0.2144
363.093	0.2172
363.3014	0.2175
363.5097	0.2233
363.718	0.2236
363.9264	0.2239
364.1347	0.2238
364.343	0.2121
364.5513	0.2221
364.7595	0.2292
364.9678	0.2186
365.176	0.2316
365.3842	0.2278
365.5925	0.2335
365.8007	0.2286
366.0089	0.2347
366.217	0.233
366.4252	0.2355
366.6333	0.241
366.8415	0.2288
367.0496	0.2383
367.2577	0.2357
367.4658	0.2327
367.6739	0.2309
367.882	0.2392
368.09	0.243
368.2981	0.2407
368.5061	0.2426
368.7141	0.2303
368.9221	0.2507
369.1301	0.2437
369.3381	0.252
369.5461	0.2511
369.754	0.2474
369.962	0.2442
370.1699	0.2479
370.3778	0.2547
370.5857	0.2528
370.7936	0.2533
371.0015	0.2475
371.2093	0.2524
371.4172	0.2474
371.625	0.2579
371.8328	0.2504
372.0406	0.2505
372.2484	0.2596
372.4562	0.2574
372.664	0.2631
372.8717	0.257
373.0795	0.2654
373.2872	0.2681
373.4949	0.2656
373.7026	0.2608
373.9103	0.2628
374.118	0.2599
374.3256	0.2721
374.5333	0.2656
374.7409	0.2727
374.9485	0.2678
375.1561	0.2712
375.3637	0.263
375.5713	0.276
375.7789	0.2651
375.9864	0.2681
376.194	0.2822
376.4015	0.2732
376.609	0.2722
376.8165	0.2762
377.024	0.2772
377.2315	0.2776
377.4389	0.2769
377.6464	0.278
377.8538	0.2764
378.0612	0.2804
378.2686	0.2787
378.476	0.2852
378.6834	0.2837
378.8908	0.2809
379.0981	0.2791
379.3055	0.2881
379.5128	0.2784
379.7201	0.2859
379.9274	0.2879
380.1347	0.2895
380.342	0.2927
380.5492	0.2922
380.7565	0.2821
380.9637	0.2941
381.1709	0.2942
381.3781	0.298
381.5853	0.2848
381.7925	0.2988
381.9997	0.2992
382.2068	0.2973
382.4139	0.2909
382.6211	0.2961
382.8282	0.2984
383.0353	0.303
383.2424	0.2983
383.4494	0.3009
383.6565	0.3041
383.8635	0.297
384.0706	0.3048
384.2776	0.2954
384.4846	0.3039
384.6916	0.2987
384.8986	0.2998
385.1055	0.3074
385.3125	0.3035
385.5194	0.3047
385.7263	0.2996
385.9333	0.2962
386.1402	0.302
386.347	0.2988
386.5539	0.3032
386.7608	0.2966
386.9676	0.3018
387.1744	0.2982
387.3813	0.3045
387.5881	0.2928
387.7948	0.299
388.0016	0.3079
388.2084	0.3039
388.4151	0.3016
388.6219	0.2926
388.8286	0.2969
389.0353	0.2988
389.242	0.3014
389.4487	0.2983
389.6553	0.2963
389.862	0.2914
390.0686	0.2944
390.2753	0.2957
390.4819	0.2923
390.6885	0.2934
390.8951	0.2946
391.1016	0.293
391.3082	0.2916
391.5147	0.2873
391.7213	0.2909
391.9278	0.2857
392.1343	0.2945
392.3408	0.2934
392.5473	0.2862
392.7537	0.2875
392.9602	0.2711
393.1666	0.282
393.373	0.2796
393.5794	0.2748
393.7858	0.2805
393.9922	0.2664
394.1986	0.2771
394.4049	0.2741
394.6113	0.2719
394.8176	0.2691
395.0239	0.2654
395.2302	0.2648
395.4365	0.2757
395.6428	0.2668
395.8491	0.2681
396.0553	0.2612
396.2615	0.2692
396.4678	0.2618
396.674	0.2607
396.8802	0.2629
397.0863	0.2538
397.2925	0.2673
397.4987	0.265
397.7048	0.2689
397.9109	0.2565
398.117	0.2566
398.3231	0.2564
398.5292	0.252
398.7353	0.2494
398.9413	0.2634
399.1474	0.2562
399.3534	0.2639
399.5594	0.2609
399.7654	0.2478
399.9714	0.2608
400.1774	0.2544
400.3833	0.253
400.5893	0.2502
400.7952	0.2622
401.0011	0.2558
401.207	0.2513
401.4129	0.2603
401.6188	0.2588
401.8247	0.2631
402.0305	0.2501
402.2364	0.2637
402.4422	0.2611
402.648	0.2526
402.8538	0.2576
403.0596	0.2491
403.2654	0.256
403.4711	0.2539
403.6768	0.259
403.8826	0.2522
404.0883	0.2588
404.294	0.2533
404.4997	0.2563
404.7054	0.2644
404.911	0.2553
405.1167	0.2577
405.3223	0.2539
405.5279	0.2463
405.7335	0.2566
405.9391	0.2529
406.1447	0.2666
406.3502	0.2481
406.5558	0.2543
406.7613	0.25
406.9668	0.2512
407.1724	0.2559
407.3778	0.2554
407.5833	0.2445
407.7888	0.2499
407.9942	0.2538
408.1997	0.2489
408.4051	0.2547
408.6105	0.2566
408.8159	0.2524
409.0213	0.2513
409.2267	0.2603
409.432	0.2488
409.6374	0.26
409.8427	0.2609
410.048	0.2541
410.2533	0.2583
410.4586	0.2563
410.6639	0.2509
410.8691	0.253
411.0744	0.2492
411.2796	0.2531
411.4848	0.255
411.69	0.2547
411.8952	0.252
412.1004	0.2495
412.3056	0.2468
412.5107	0.2533
412.7158	0.2613
412.921	0.2619
413.1261	0.2521
413.3312	0.2548
413.5362	0.2546
413.7413	0.2552
413.9464	0.2439
414.1514	0.252
414.3564	0.2453
414.5614	0.2532
414.7664	0.2477
414.9714	0.2393
415.1764	0.2493
415.3813	0.2456
415.5863	0.2532
415.7912	0.2444
415.9961	0.2427
416.201	0.2647
416.4059	0.2413
416.6108	0.2455
416.8156	0.2547
417.0205	0.2508
417.2253	0.2446
417.4301	0.2525
417.6349	0.2442
417.8397	0.2481
418.0445	0.2451
418.2492	0.243
418.454	0.2408
418.6587	0.2576
418.8634	0.2412
419.0681	0.2492
419.2728	0.234
419.4775	0.256
419.6822	0.2356
419.8868	0.2374
420.0915	0.237
420.2961	0.229
420.5007	0.244
420.7053	0.2339
420.9099	0.2375
421.1144	0.2354
421.319	0.2353
421.5235	0.2341
421.728	0.2272
421.9325	0.2372
422.137	0.2282
422.3415	0.2344
422.546	0.2247
422.7504	0.22
422.9549	0.2315
423.1593	0.2323
423.3637	0.2274
423.5681	0.2306
423.7725	0.2213
423.9769	0.2306
424.1812	0.2156
424.3856	0.2116
424.5899	0.2182
424.7942	0.2153
424.9985	0.2259
425.2028	0.2207
425.4071	0.2145
425.6113	0.2224
425.8156	0.2234
426.0198	0.2211
426.224	0.2193
426.4282	0.2051
426.6324	0.2123
426.8366	0.2243
427.0407	0.2096
427.2449	0.2059
427.449	0.2007
427.6531	0.2202
427.8572	0.2082
428.0613	0.211
428.2654	0.2043
428.4694	0.1963
428.6735	0.1904
428.8775	0.1974
429.0815	0.1894
429.2855	0.1949
429.4895	0.1985
429.6935	0.1984
429.8975	0.1852
430.1014	0.2009
430.3053	0.2003
430.5093	0.1816
430.7132	0.1744
430.9171	0.1786
431.1209	0.1818
431.3248	0.1737
431.5286	0.1676
431.7325	0.1809
431.9363	0.1728
432.1401	0.1694
432.3439	0.1648
432.5477	0.1741
432.7514	0.1734
432.9552	0.1693
433.1589	0.1572
433.3627	0.1736
433.5664	0.164
433.7701	0.1629
433.9737	0.1658
434.1774	0.1596
434.3811	0.1514
434.5847	0.1574
434.7883	0.1541
434.9919	0.1507
435.1955	0.1535
435.3991	0.1566
435.6027	0.1424
435.8062	0.1523
436.0098	0.1405
436.2133	0.14
436.4168	0.1421
436.6203	0.1366
436.8238	0.1267
437.0272	0.13
437.2307	0.1264
437.4341	0.137
437.6375	0.1341
437.841	0.1289
438.0443	0.1354
438.2477	0.1227
438.4511	0.1197
438.6545	0.1273
438.8578	0.1205
439.0611	0.1195
439.2644	0.1236
439.4677	0.117
439.671	0.1024
439.8743	0.1206
440.0775	0.1039
440.2808	0.1073
440.484	0.1039
440.6872	0.1071
440.8904	0.0987
441.0936	0.106
441.2967	0.0978
441.4999	0.0883
441.703	0.0962
441.9062	0.0971
442.1093	0.1067
442.3124	0.1002
442.5155	0.0969
442.7185	0.0904
442.9216	0.0909
443.1246	0.0914
443.3276	0.0889
443.5307	0.0791
443.7337	0.0882
443.9366	0.0797
444.1396	0.083
444.3426	0.0774
444.5455	0.0796
444.7484	0.0742
444.9513	0.076
445.1542	0.0771
445.3571	0.0775
445.56	0.0644
445.7628	0.0726
445.9657	0.071
446.1685	0.0717
446.3713	0.0738
446.5741	0.0714
446.7769	0.0777
446.9797	0.065
447.1824	0.0704
447.3852	0.0511
447.5879	0.0566
447.7906	0.057
447.9933	0.0528
448.196	0.0506
448.3986	0.0601
448.6013	0.0515
448.8039	0.0664
449.0066	0.0586
449.2092	0.0611
449.4118	0.0559
449.6143	0.0502
449.8169	0.0559
450.0195	0.0557
450.222	0.0522
450.4245	0.055
450.627	0.0492
450.8295	0.0458
451.032	0.0441
451.2345	0.0382
451.4369	0.0414
451.6394	0.043
451.8418	0.0445
452.0442	0.0442
452.2466	0.034
452.449	0.045
452.6513	0.0398
452.8537	0.0413
453.056	0.0309
453.2583	0.0315
453.4607	0.0332
453.663	0.0339
453.8652	0.0282
454.0675	0.0351
454.2697	0.0309
454.472	0.0357
454.6742	0.044
454.8764	0.0342
455.0786	0.03
455.2808	0.0228
455.4829	0.0363
455.6851	0.0303
455.8872	0.0205
456.0893	0.0288
456.2915	0.0304
456.4935	0.0332
456.6956	0.0268
456.8977	0.0232
457.0997	0.028
457.3018	0.0244
457.5038	0.0323
457.7058	0.0251
457.9078	0.028
458.1098	0.0245
458.3117	0.0291
458.5137	0.0164
458.7156	0.0227
458.9175	0.0179
459.1194	0.0245
459.3213	0.0162
459.5232	0.024
459.725	0.0163
459.9269	0.0175
460.1287	0.0193
460.3305	0.0192
460.5323	0.0173
460.7341	0.0168
460.9359	0.006
461.1376	0.0224
461.3394	0.016
461.5411	0.0239
461.7428	0.0198
461.9445	0.0184
462.1462	0.0172
462.3479	0.0115
462.5495	0.0253
462.7512	0.0277
462.9528	0.0063
463.1544	0.0072
463.356	0.0052
463.5576	0.0168
463.7592	0.0072
463.9607	0.0112
464.1623	0.0101
464.3638	0.0045
464.5653	0.0148
464.7668	0.0102
464.9683	0.0053
465.1697	0.0142
465.3712	0.0098
465.5726	0.0061
465.7741	0.0181
465.9755	0.0117
466.1769	0.0099
466.3782	0.015
466.5796	0.0122
466.7809	0.0139
466.9823	0.0071
467.1836	0.0165
467.3849	0.0153
467.5862	-0.005
467.7875	-0.0001
467.9887	0.012
468.19	0.0061
468.3912	0.0126
468.5924	0.0023
468.7936	0.008
468.9948	0.0006
469.196	0.0032
469.3972	-0.0034
469.5983	0.011
469.7994	0.0187
470.0006	0.0006
470.2017	0.0007
470.4027	0.0207
470.6038	0.0116
470.8049	0.0142
471.0059	0.0167
471.2069	0.0041
471.408	0.0133
471.6089	0.0078
471.8099	0.0043
472.0109	0.0044
472.2119	0.0211
472.4128	0.0099
472.6137	0.0034
472.8146	0.0085
473.0155	0.0105
473.2164	0.0044
473.4173	0.0007
473.6181	0
473.819	0.0078
474.0198	0.0068
474.2206	-0.0044
474.4214	0.01
474.6222	-0.0079
474.8229	0.0058
475.0237	0.0026
475.2244	-0.0018
475.4251	-0.0007
475.6258	-0.0012
475.8265	0.0111
476.0272	0.0042
476.2278	0.0065
476.4285	0.0008
476.6291	0.0079
476.8297	0.0054
477.0303	-0.0059
477.2309	0.0052
477.4315	0.0043
477.632	-0.0099
477.8326	0.0051
478.0331	0.0075
478.2336	0.0031
478.4341	0.0063
478.6346	-0.0039
478.8351	-0.0047
479.0355	0.0134
479.236	0.008
479.4364	0.004
479.6368	0.0087
479.8372	0.0054
480.0376	-0.0002
480.2379	0.0111
480.4383	0.0106
480.6386	-0.0016
480.8389	-0.0007
481.0392	0.0023
481.2395	0.0076
481.4398	0.0017
481.6401	0.0071
481.8403	0.009
482.0405	0.0037
482.2408	0.0012
482.441	0.0103
482.6411	0.0064
482.8413	0.0005
483.0415	0.013
483.2416	0.0001
483.4417	-0.0015
483.6419	0.0029
483.8419	0.0036
484.042	0.0024
484.2421	-0.0003
484.4422	-0.0045
484.6422	-0.003
484.8422	0.0008
485.0422	0.0041
485.2422	0.001
485.4422	0.0049
485.6422	0.003
485.8421	0.0022
486.042	0.0091
486.242	-0.0009
486.4419	0.0016
486.6417	0.0032
486.8416	0.0023
487.0415	-0.0018
487.2413	-0.0003
487.4411	-0.001
487.641	-0.0014
487.8408	0.006
488.0405	0.004
488.2403	-0.0029
488.4401	0.0011
488.6398	0.0073
488.8395	-0.0006
489.0392	0.002
489.2389	0.008
489.4386	-0.0081
489.6383	0.0013
489.8379	-0.0022
490.0376	-0.0021
490.2372	-0.0069
490.4368	-0.0043
490.6364	-0.0044
490.836	-0.0028
491.0355	-0.0037
491.2351	-0.0026
491.4346	0.0021
491.6341	-0.0088
491.8336	0.0039
492.0331	-0.0042
492.2326	0.0069
492.432	0.0022
492.6315	0.0106
492.8309	0.005
493.0303	0.0001
493.2297	-0.0032
493.4291	-0.0015
493.6284	0.0097
493.8278	-0.0035
494.0271	0.0026
494.2264	-0.0019
494.4257	0.0073
494.625	-0.001
494.8243	-0.007
495.0236	0.0045
495.2228	-0.002
495.422	0.0014
495.6213	0.0014
495.8205	0.0053
496.0196	0.0017
496.2188	-0.0002
496.418	-0.0002
496.6171	0.0008
496.8162	0.0021
497.0153	0.0082
497.2144	-0.0024
497.4135	0.0002
497.6126	0.0006
497.8116	0.0012
498.0107	-0.0026
498.2097	0.0037
498.4087	-0.0002
498.6077	-0.0076
498.8067	0.006
499.0056	-0.001
499.2046	0.0046
499.4035	0.002
499.6024	-0.0071
499.8013	0.0037
500.0002	0.0025
500.199	0.0033
500.3979	-0.0061
500.5967	0.0018
500.7956	0.0031
500.9944	0.0011
501.1932	0.0087
501.3919	-0.0015
501.5907	0.0087
501.7895	-0.0002
501.9882	0.0016
502.1869	0.0035
502.3856	-0.0008
502.5843	0.0005
502.783	-0.0024
502.9816	0.007
503.1803	0.0013
503.3789	0.005
503.5775	-0.0012
503.7761	-0.0112
503.9747	0.0085
504.1732	-0.0012
504.3718	0.0031
504.5703	-0.0006
504.7689	-0.015
504.9674	-0.006
505.1658	-0.0006
505.3643	0.0037
505.5628	0.0096
505.7612	0.0005
505.9597	-0.0044
506.1581	-0.0026
506.3565	0.0019
506.5549	0.0004
506.7532	-0.0005
506.9516	0.0003
507.1499	-0.0065
507.3482	0.0076
507.5465	-0.0012
507.7448	-0.0016
507.9431	0.0077
508.1414	-0.0008
508.3396	-0.0003
508.5379	-0.0021
508.7361	0.0007
508.9343	0.0078
509.1325	0.0098
509.3306	0.0001
509.5288	-0.0129
509.7269	-0.0009
509.9251	0.0069
510.1232	-0.0027
510.3213	-0.001
510.5193	-0.0027
510.7174	-0.0072
510.9154	0.0055
511.1135	-0.0084
511.3115	-0.0047
511.5095	-0.0006
511.7075	-0.0031
511.9055	0.007
512.1034	0.0042
512.3014	-0.0014
512.4993	-0.0016
512.6972	-0.0031
512.8951	-0.0068
513.093	-0.0044
513.2908	0.0084
513.4887	-0.0019
513.6865	-0.0095
513.8844	0.0013
514.0822	0.0058
514.2799	-0.0091
514.4777	-0.0035
514.6755	-0.0022
514.8732	0.0023
515.0709	-0.0061
515.2687	-0.0078
515.4664	-0.0031
515.664	-0.0006
515.8617	0.0037
516.0594	0.0044
516.257	-0.0051
516.4546	0.006
516.6522	-0.0037
516.8498	0.0025
517.0474	0.0053
517.2449	0.0059
517.4425	-0.0037
517.64	-0.001
517.8375	0.0031
518.035	-0.0088
518.2325	-0.0043
518.43	-0.0005
518.6274	-0.013
518.8249	-0.0116
519.0223	0.0106
519.2197	0.0023
519.4171	-0.0034
519.6145	0.0029
519.8118	-0.0092
520.0092	-0.0136
520.2065	0.0065
520.4038	-0.0055
520.6011	0.0003
520.7984	-0.001
520.9956	-0.004
521.1929	0.0008
521.3901	-0.0002
521.5874	0.0063
521.7846	-0.0154
521.9818	-0.005
522.1789	-0.0115
522.3761	0.0116
522.5732	-0.003
522.7704	-0.0096
522.9675	-0.009
523.1646	0.0016
523.3617	0.0036
523.5587	0.003
523.7558	-0.004
523.9528	0.0117
524.1498	-0.0057
524.3468	0.0046
524.5438	0.0109
524.7408	-0.0079
524.9378	0.0013
525.1347	0.005
525.3316	-0.0001
525.5285	0.0001
525.7254	0.0099
525.9223	0.0074
526.1192	-0.0006
526.316	0.0044
526.5129	0.0029
526.7097	-0.0084
526.9065	-0.004
527.1033	0.0022
527.3	0.0006
527.4968	-0.0003
527.6935	-0.0168
527.8903	-0.0102
528.087	0.0023
528.2837	0.0023
528.4804	-0.0048
528.677	-0.0036
528.8737	-0.0038
529.0703	-0.0031
529.2669	0.0016
529.4635	0.0034
529.6601	-0.0042
529.8567	-0.0023
530.0532	-0.0129
530.2498	-0.004
530.4463	-0.0061
530.6428	-0.0033
530.8393	0.002
531.0358	-0.0021
531.2322	-0.0056
531.4287	-0.0082
531.6251	-0.0147
531.8215	0.002
532.0179	-0.0038
532.2143	0.0007
532.4107	0.0073
532.607	-0.0079
532.8034	-0.0039
532.9997	-0.0088
533.196	-0.004
533.3923	0.0083
533.5886	-0.002
533.7848	-0.003
533.9811	0.0058
534.1773	0.0019
534.3735	0.0035
534.5697	0.0017
534.7659	0.0096
534.9621	0.0004
535.1582	0.0047
535.3544	0.0062
535.5505	0.0082
535.7466	0.0032
535.9427	0.0017
536.1387	-0.0032
536.3348	-0.0112
536.5308	-0.0046
536.7269	-0.0097
536.9229	-0.0028
537.1189	0.0027
537.3148	-0.002
537.5108	-0.0014
537.7068	0.0032
537.9027	-0.0083
538.0986	0.0028
538.2945	-0.0046
538.4904	-0.0036
538.6863	-0.0046
538.8821	0.0063
539.078	0.0003
539.2738	0.0006
539.4696	-0.004
539.6654	0.0043
539.8611	-0.0004
540.0569	-0.0006
540.2526	0.0056
540.4484	-0.0068
540.6441	0.0025
540.8398	0.0118
541.0355	0.0005
541.2311	0.0042
541.4268	-0.0006
541.6224	0.0077
541.818	0.001
542.0136	0.0025
542.2092	0.0058
542.4048	0.0131
542.6003	0.0016
542.7959	0.0021
542.9914	0.0094
543.1869	0.0038
543.3824	0.0034
543.5779	0.0018
543.7734	0.0134
543.9688	0.0061
544.1642	-0.0019
544.3596	0.0075
544.555	0.0021
544.7504	0.0035
544.9458	0.0048
545.1411	-0.0012
545.3365	0.0007
545.5318	0.0061
545.7271	0.0052
545.9224	-0.0074
546.1177	0.0042
546.3129	-0.0068
546.5081	0.0003
546.7034	0.0093
546.8986	-0.0033
547.0938	0.0055
547.289	0.0008
547.4841	0.0052
547.6793	0.0023
547.8744	0.0085
548.0695	-0.0085
548.2646	0.0048
548.4597	-0.0042
548.6548	0.0059
548.8498	0.0098
549.0448	0.0026
549.2399	0.0141
549.4349	0.0065
549.6298	-0.0033
549.8248	-0.001
550.0198	0.0013
550.2147	0.0045
550.4096	-0.0109
550.6045	-0.0065
550.7994	0.0061
550.9943	0.0068
551.1892	-0.0125
551.384	0.0053
551.5788	0.0033
551.7737	0.005
551.9685	0.0052
552.1632	-0.0029
552.358	-0.0004
552.5528	0.0053
552.7475	0.0053
552.9422	0.0089
553.1369	0.0067
553.3316	0.0018
553.5263	0.0088
553.7209	-0.0002
553.9156	-0.0005
554.1102	0.0016
554.3048	-0.0007
554.4994	0.0052
554.694	0.0018
554.8885	0.0022
555.0831	0.0033
555.2776	0
555.4721	0.008
555.6666	-0.0042
555.8611	-0.001
556.0555	-0.0003
556.25	0.0077
556.4444	0.0031
556.6388	0.0007
556.8332	0.0006
557.0276	0.0058
557.222	-0.0085
557.4163	0.005
557.6107	-0.0091
557.805	-0.0154
557.9993	0.0017
558.1936	-0.0056
558.3879	-0.0021
558.5821	-0.0114
558.7764	0.0007
558.9706	0.0022
559.1648	0.0027
559.359	-0.0005
559.5532	-0.0035
559.7473	-0.0053
559.9415	0.0034
560.1356	0.0034
560.3297	0.0011
560.5238	0.0003
560.7179	0.0024
560.9119	0.0017
561.106	-0.0101
561.3	-0.0008
561.494	0.0001
561.688	-0.0021
561.882	0.0004
562.076	-0.0092
562.2699	0.0004
562.4639	0.0163
562.6578	0.0079
562.8517	-0.0027
563.0456	-0.0001
563.2395	0.0064
563.4333	0.0099
563.6272	0.0053
563.821	-0.002
564.0148	0.0018
564.2086	-0.003
564.4024	0.0037
564.5961	0.0007
564.7899	0.0106
564.9836	-0.004
565.1773	0.0061
565.371	0.0026
565.5647	0.0051
565.7584	0.0037
565.952	0.0059
566.1456	0.007
566.3393	0.0014
566.5329	-0.0003
566.7264	0.0037
566.92	0.0021
567.1136	0.0014
567.3071	-0.0052
567.5006	0.0128
567.6941	0.004
567.8876	0.0027
568.0811	0.0148
568.2745	0.0008
568.468	0.0083
568.6614	0.0097
568.8548	0.0045
569.0482	0.0067
569.2416	-0.0013
569.4349	0.0013
569.6283	0.0052
569.8216	0.0093
570.0149	0.0044
570.2082	0.0129
570.4015	0.0021
570.5947	0.0084
570.788	0.0051
570.9812	0.003
571.1744	0.0072
571.3676	0.0035
571.5608	0.0087
571.754	0.0089
571.9471	0.0072
572.1402	0.0039
572.3333	0.0077
572.5264	0.0021
572.7195	0.0024
572.9126	0.0024
573.1057	0.0035
573.2987	0.0016
573.4917	0.0054
573.6847	0.0053
573.8777	0.0064
574.0707	0.0048
574.2636	0.0089
574.4566	0.0014
574.6495	0.0037
574.8424	0.0035
575.0353	0.0066
575.2281	0.0069
575.421	0.0011
575.6138	0.0042
575.8067	0.002
575.9995	0.0036
576.1923	0.005
576.385	0.0053
576.5778	0.0089
576.7706	0.0063
576.9633	0.0072
577.156	0.0021
577.3487	0.0047
577.5414	0.0036
577.734	0.0033
577.9267	0.0041
578.1193	0.0085
578.3119	0.0021
578.5045	0.0061
578.6971	0.0018
578.8897	0.0007
579.0822	0.0072
579.2747	0.0025
579.4673	0.0056
579.6598	0.0049
579.8522	0.0057
580.0447	0.0058
580.2372	0.0067
580.4296	0.0129
580.622	0.0004
580.8144	0.0077
581.0068	0.0026
581.1992	0.0048
581.3915	0
581.5839	0.0058
581.7762	0.0011
581.9685	0.0061
582.1608	0.0024
582.353	0.0043
582.5453	0.0062
582.7375	0.0083
582.9298	-0.0024
583.122	0.0001
583.3142	0.0028
583.5063	0.0032
583.6985	-0.0027
583.8906	0.0024
584.0827	0.0031
584.2749	0.0019
584.4669	0.0021
584.659	0.0059
584.8511	0.0078
585.0431	0.0047
585.2352	0.0053
585.4272	0.0066
585.6192	0.0066
585.8111	0.0003
586.0031	0.0008
586.195	0.004
586.387	0.0043
586.5789	0.0074
586.7708	0.0061
586.9627	0.0055
587.1545	0.0057
587.3464	0.003
587.5382	0.0019
587.73	0.0078
587.9218	0.0046
588.1136	0.0065
588.3053	0.0047
588.4971	0.0011
588.6888	-0.0054
588.8805	-0.0009
589.0722	0.0086
589.2639	0.0075
589.4556	0.0041
589.6472	0.0097
589.8389	0.0061
590.0305	-0.0009
590.2221	0.0099
590.4137	0.005
590.6052	0.0054
590.7968	0.0074
590.9883	0.0099
591.1798	0.0052
591.3713	0.005
591.5628	0.006
591.7543	0.0024
591.9458	0.002
592.1372	0.0078
592.3286	0.0049
592.52	0.0047
592.7114	0.0041
592.9028	0.0125
593.0941	-0.0012
593.2855	0.0035
593.4768	0.0067
593.6681	0.0089
593.8594	0.0103
594.0506	0.0027
594.2419	0.0048
594.4331	0.0035
594.6244	-0.0011
594.8156	0.0043
595.0067	0.0014
595.1979	0.0022
595.3891	0.0046
595.5802	0.0053
595.7713	0.0035
595.9624	0.0078
596.1535	0.0056
596.3446	0.0039
596.5357	0.0112
596.7267	0.0027
596.9177	0.0047
597.1087	0.0028
597.2997	0.0091
597.4907	-0.003
597.6817	0.0037
597.8726	0.0047
598.0635	0
598.2544	0.0036
598.4453	0.0067
598.6362	0.0043
598.827	0.0057
599.0179	0.0044
599.2087	0.0074
599.3995	0.0063
599.5903	0.0097
599.7811	0.0112
599.9718	-0.005
600.1626	0.0022
600.3533	0.0035
600.544	0.0047
600.7347	0.0051
600.9254	0.0101
601.116	0.0049
601.3067	-0.0031
601.4973	0.01
601.6879	0.0045
601.8785	0.0121
602.0691	0.0077
602.2596	0.0072
602.4502	0.0075
602.6407	0.0028
602.8312	0.0029
603.0217	-0.0002
603.2122	0.0025
603.4027	-0.0001
603.5931	0.0064
603.7835	0.0052
603.9739	-0.0032
604.1643	0.0061
604.3547	0.0069
604.5451	0.0149
604.7354	0.0001
604.9257	0.004
605.116	0.0002
605.3063	0.006
605.4966	0.002
605.6869	0.0075
605.8771	0.0103
606.0673	0.0022
606.2575	0.0022
606.4477	0.0075
606.6379	0.0048
606.8281	0.0037
607.0182	0.0051
607.2083	0.0045
607.3985	0.0024
607.5885	0.0009
607.7786	0.0013
607.9687	0.0043
608.1587	0.0106
608.3488	0.0039
608.5388	-0.0015
608.7288	0.0052
608.9187	0.0031
609.1087	0.0041
609.2986	0.0096
609.4886	0.0025
609.6785	0.0036
609.8684	0.003
610.0582	0.0022
610.2481	0.0037
610.4379	0.0053
610.6278	0.0032
610.8176	0.0085
611.0074	0.0016
611.1971	0.0056
611.3869	0.006
611.5766	-0.0039
611.7664	0.005
611.9561	0.0043
612.1458	-0.0013
612.3354	0.0006
612.5251	0.0077
612.7147	0.0047
612.9044	0.0088
613.094	0.0058
613.2836	-0.0013
613.4731	0.0081
613.6627	0.002
613.8522	0.0023
614.0417	0.0027
614.2313	0.0022
614.4207	0.0054
614.6102	0.0149
614.7997	0.0154
614.9891	0.0073
615.1785	0.0002
615.3679	0.0052
615.5573	-0.0002
615.7467	-0.0041
615.9361	0.0101
616.1254	0.0091
616.3147	0.0042
616.504	0.0059
616.6933	0.0054
616.8826	-0.0032
617.0718	0.0025
617.2611	-0.0018
617.4503	0.0002
617.6395	0.0006
617.8287	0.0151
618.0179	0.0057
618.207	0.0059
618.3961	0.0057
618.5853	0.0041
618.7744	0.0041
618.9634	0.0151
619.1525	-0.0009
619.3416	-0.0033
619.5306	0.0136
619.7196	0.006
619.9086	0.0028
620.0976	-0.0083
620.2866	0.0071
620.4755	0.0052
620.6645	0.01
620.8534	0.0118
621.0423	0.0021
621.2312	-0.0048
621.42	0.0013
621.6089	0.0034
621.7977	0.0089
621.9865	0.0009
622.1753	-0.004
622.3641	-0.0029
622.5529	0.0003
622.7416	-0.0032
622.9303	0.0035
623.1191	0.0073
623.3078	0.0019
623.4964	0.0092
623.6851	0.0029
623.8737	0.0135
624.0624	-0.0036
624.251	0.0065
624.4396	0.0024
624.6282	0.0154
624.8167	0.0022
625.0053	0.0091
625.1938	-0.0018
625.3823	0.0091
625.5708	0.004
625.7593	0.0017
625.9477	0.013
626.1362	-0.0019
626.3246	0.0005
626.513	0.0101
626.7014	0.0149
626.8898	0.0098
627.0781	0
627.2665	0.0081
627.4548	0.0033
627.6431	0.0123
627.8314	0.0184
628.0197	0.007
628.2079	0.0043
628.3962	0.0004
628.5844	0.0083
628.7726	-0.0022
628.9608	-0.001
629.1489	0.0005
629.3371	0.0011
629.5252	0.0142
629.7134	0.0107
629.9015	0.0096
630.0895	-0.0168
630.2776	-0.0035
630.4657	0.0112
630.6537	0.0026
630.8417	-0.0144
631.0297	0.007
631.2177	0.0094
631.4057	0.0042
631.5936	0.0017
631.7815	0.0071
631.9695	0.0099
632.1574	0.0042
632.3452	-0.0026
632.5331	-0.0001
632.7209	0.006
632.9088	0.0104
633.0966	0.0225
633.2844	0.003
633.4722	0.0017
633.6599	0.0149
633.8477	0.0049
634.0354	0.0044
634.2231	-0.009
634.4108	0.0104
634.5985	0.0226
634.7861	-0.0053
634.9738	-0.0107
635.1614	0.0061
635.349	0.0068
635.5366	-0.0012
635.7242	-0.0032
635.9117	0.0016
636.0993	0.0023
636.2868	0.0037
636.4743	0.0021
636.6618	-0.0134
636.8492	-0.0036
637.0367	-0.0106
637.2241	-0.0077
637.4115	0.0234
637.5989	0.0166
637.7863	0.0241
637.9737	-0.0055
638.161	0.0083
638.3484	-0.0049
638.5357	-0.0014
638.723	0.0201
638.9103	-0.0245
639.0975	0.0056
639.2848	0.0114
639.472	0.0071
639.6592	-0.0188
639.8464	0.0012
640.0336	0.0181
640.2208	-0.0121
640.4079	-0.0113
640.595	-0.0004
640.7821	0.0166
640.9692	0.0001
641.1563	0.0127
641.3434	0.007
641.5304	0.013
641.7174	0.0131
641.9044	-0.0051
642.0914	0.0254
642.2784	-0.0114
642.4653	-0.0083
642.6523	0.0016
642.8392	-0.0111
643.0261	-0.0043
643.213	0.0096
643.3999	0.0047
643.5867	0.0164
643.7735	-0.0009
643.9604	0.0163
644.1472	0.0151
644.3339	-0.0027
644.5207	-0.0051
644.7075	0.0058
644.8942	-0.0053
645.0809	0.0096
645.2676	-0.0165
645.4543	0.0015
645.6409	0.0294
645.8276	0.0074
646.0142	-0.0077
646.2008	-0.0018
646.3874	-0.0186
646.574	0.0105
646.7605	0.0026
646.9471	0.0116
647.1336	-0.0134
647.3201	0.0038
647.5066	0.0052
647.6931	0.0146
647.8795	0.0042
648.0659	0.0099
648.2524	-0.0049
648.4388	0.0141
648.6252	0.0009
648.8115	-0.001
648.9979	0.0103
649.1842	0.0079
649.3705	-0.0007
649.5568	-0.017
649.7431	-0.0032
649.9294	-0.0067
650.1156	-0.0077
650.3018	0.0204
650.488	0.0167
650.6742	0.0258
650.8604	0.018
651.0466	0.0072
651.2327	0.0022
651.4188	0.0085
651.6049	0.0152
651.791	0.0094
651.9771	0.0084
652.1632	-0.0082
652.3492	0.0107
652.5352	0.0239
652.7212	0.0124
652.9072	0.0021
653.0932	0.0127
653.2791	0.0007
653.465	0.0036
653.651	0.009
653.8369	0.0015
654.0227	-0.0031
654.2086	-0.0053
654.3944	0
654.5803	-0.0092
654.7661	0.0007
654.9519	-0.0022
655.1377	0
655.3234	0
655.5092	0
655.6949	0
655.8806	0
656.0663	0
656.2519	0
656.4376	0
656.6232	0
656.8088	0
656.9945	0
657.18	0
657.3656	0
657.5511	0
657.7367	0
657.9222	0
658.1077	0
658.2932	0
658.4786	0
658.6641	0
658.8495	0
659.0349	0
659.2203	0
659.4057	0
659.591	0.153
659.7764	0.0248
659.9617	0.0079
660.147	0.0026
660.3323	0.0132
660.5176	-0.0073
660.7028	-0.0171
660.888	0.0097
661.0733	0.0206
661.2585	-0.0065
661.4436	-0.0077
661.6288	-0.0018
661.8139	-0.0196
661.9991	-0.0273
662.1842	-0.002
662.3693	-0.0064
662.5544	0.0208
662.7394	0.0296
662.9245	0.0064
663.1095	-0.0188
663.2945	-0.0219
663.4795	-0.0096
663.6644	0.0038
663.8494	0.0189
664.0343	0.0164
664.2193	-0.0002
664.4042	0.028
664.589	0.0117
664.7739	0.0137
664.9587	-0.0104
665.1436	-0.0174
665.3284	0.0087
665.5132	-0.0203
665.698	0.0187
665.8827	0.0137
666.0675	-0.0241
666.2522	-0.0027
666.4369	-0.0086
666.6216	-0.0129
666.8063	-0.0019
666.9909	-0.0112
667.1756	-0.01
667.3602	-0.0248
667.5448	0.02
667.7294	0.0207
667.9139	0.0142
668.0985	0.0083
668.283	0.0146
668.4675	0.0152
668.652	0.0049
668.8365	0.0146
669.0209	0.0416
669.2054	0.0113
669.3898	0.0007
669.5742	0.0349
669.7586	0.0207
669.943	-0.002
670.1273	0.0093
670.3117	0.0223
670.496	0.0007
670.6803	0.0081
670.8646	-0.0209
671.0488	0.0117
671.2331	-0.0122
671.4173	0.0148
671.6015	0.0177
671.7857	0.0089
671.9699	0.0015
672.1541	0.0033
672.3382	0.0057
672.5223	0.0085
672.7064	-0.0082
672.8905	-0.0123
673.0746	0.02
673.2587	0.0123
673.4427	-0.0079
673.6267	0.0079
673.8107	0.0144
673.9947	0.0236
674.1787	0.0108
674.3626	-0.0027
674.5465	0.0222
674.7304	0.007
674.9143	-0.0006
675.0982	0.0047
675.2821	-0.0093
675.4659	-0.003
675.6497	0.0113
675.8335	0.0076
676.0173	-0.0063
676.2011	0.0088
676.3849	-0.0012
676.5686	0.0007
676.7523	0.0182
676.936	0.0057
677.1197	0.0023
677.3034	0.0309
677.487	0.0102
677.6706	0.0161
677.8542	-0.0002
678.0378	0.005
678.2214	0.004
678.405	-0.0011
678.5885	-0.0011
678.772	0.0046
678.9555	-0.0024
679.139	0.0178
679.3225	0.0056
679.5059	-0.0118
679.6894	0.0156
679.8728	0.0027
680.0562	-0.0025
680.2395	0.001
680.4229	-0.0044
680.6062	-0.0036
680.7896	-0.0058
680.9729	0.0152
681.1562	0.0045
681.3394	0.0035
681.5227	-0.003
681.7059	-0.0054
681.8891	0.0022
682.0723	-0.0101
682.2555	0.0092
682.4387	0.0182
682.6218	0.0055
682.805	0.0197
682.9881	0.0153
683.1712	0.0006
683.3542	0.0217
683.5373	-0.0082
683.7203	-0.0019
683.9034	-0.0175
684.0864	0.0075
684.2694	0.0115
684.4523	0.0283
684.6353	0.0122
684.8182	-0.0139
685.0011	0.0142
685.184	-0.0023
685.3669	0.0242
685.5498	0.0044
685.7326	0.0046
685.9154	-0.0082
686.0982	0.0067
686.281	-0.0068
686.4638	0.018
686.6465	0.0192
686.8293	0.0003
687.012	0.0166
687.1947	-0.0025
687.3774	0.0183
687.56	-0.0055
687.7427	0.0064
687.9253	-0.0295
688.1079	-0.0043
688.2905	-0.0104
688.4731	0.0309
688.6556	0.008
688.8382	-0.0148
689.0207	0.0227
689.2032	0.0166
689.3857	0.0027
689.5681	0.0001
689.7506	0.0269
689.933	-0.0057
690.1154	0.021
690.2978	0.0015
690.4802	0.0163
690.6626	0.0131
690.8449	0.0098
691.0272	0.0049
691.2095	-0.0154
691.3918	0.0135
691.5741	-0.0044
691.7563	0.018
691.9386	0.0249
692.1208	0.0008
692.303	0.0016
692.4852	0.0131
692.6673	0.0114
692.8495	-0.0065
693.0316	0.0169
693.2137	0.0124
693.3958	0.0017
693.5778	0.0093
693.7599	-0.0142
693.9419	-0.0034
694.1239	0.0039
694.3059	0.0228
694.4879	0.0016
694.6699	0.0092
694.8518	0.0137
695.0337	0.0097
695.2157	0.0246
695.3975	-0.0006
695.5794	-0.0174
695.7613	0.0017
695.9431	-0.0042
696.1249	0.0232
696.3067	0.0112
696.4885	0.0085
696.6703	0.0073
696.852	-0.006
697.0337	0.0184
697.2154	0.0146
697.3971	0.0105
697.5788	0.0102
697.7605	-0.0099
697.9421	0.0133
698.1237	0.0252
698.3053	-0.0047
698.4869	0.0054
698.6685	0.0013
698.85	0.0204
699.0315	0.0118
699.213	-0.0027
699.3945	0.0066
699.576	0.0361
699.7575	0.0252
699.9389	-0.0189
700.1203	0.0094
700.3017	-0.0034
700.4831	0.0209
700.6645	0.0316
700.8458	0.0175
701.0271	0.0422
701.2084	0.0092
701.3897	0.018
701.571	-0.0184
701.7523	0.0102
701.9335	0.0051
702.1147	0.0245
702.2959	0.0179
702.4771	0.0246
702.6583	-0.0062
702.8394	-0.0251
703.0205	0.0148
703.2016	0.0118
703.3827	-0.006
703.5638	0.0116
703.7449	0.0295
703.9259	0.0111
704.1069	0.0109
704.2879	0.0238
704.4689	-0.0038
704.6499	0.0173
704.8308	-0.0131
705.0117	0.0032
705.1927	0.0291
705.3735	0.0153
705.5544	0.0157
705.7353	-0.0078
705.9161	-0.0073
706.0969	0.0006
706.2777	-0.0023
706.4585	0.0032
706.6393	0.0086
706.82	0.0036
707.0007	-0.0036
707.1815	0.0016
707.3621	0.0339
707.5428	0.0263
707.7235	-0.0097
707.9041	0.0092
708.0847	0.0141
708.2653	0.0219
708.4459	-0.0076
708.6265	-0.0019
708.807	-0.0152
708.9875	0.0157
709.168	0.0012
709.3485	0.0108
709.529	0.0047
709.7095	-0.0178
709.8899	-0.0058
710.0703	0.0098
710.2507	0.0079
710.4311	-0.0438
710.6115	0.0239
710.7918	0.0247
710.9721	-0.0132
711.1524	-0.0201
711.3327	0.008
711.513	0.0021
711.6932	0.0121
711.8735	0.023
712.0537	0.0063
712.2339	0.0058
712.4141	-0.0044
712.5942	-0.0006
712.7744	0.0051
712.9545	0.0187
713.1346	0.0188
713.3147	0.0147
713.4947	-0.0081
713.6748	-0.0065
713.8548	0.013
714.0348	0.0256
714.2148	0.0174
714.3948	0.0143
714.5748	-0.0037
714.7547	0.0243
714.9346	0.0159
715.1145	0.0007
715.2944	-0.0209
715.4743	0.0043
715.6541	-0.0096
715.834	0.0349
716.0138	0.0342
716.1936	-0.015
716.3733	-0.0083
716.5531	-0.002
716.7328	0.0246
716.9126	0.0144
717.0923	-0.0142
717.2719	-0.0128
717.4516	0.0253
717.6312	-0.0007
717.8109	0.022
717.9905	0.0327
718.1701	-0.0111
718.3496	-0.0054
718.5292	0.0081
718.7087	-0.0113
718.8882	0.0021
719.0677	-0.0143
719.2472	-0.0106
719.4267	-0.0123
719.6061	-0.0224
719.7856	0.0304
719.965	0.0056
720.1443	-0.0149
720.3237	0.0037
720.5031	-0.0104
720.6824	0.0171
720.8617	0.0076
721.041	0.039
721.2203	-0.0007
721.3995	-0.0064
721.5788	0.0001
721.758	0.0068
721.9372	-0.0238
722.1164	-0.0175
722.2956	-0.0099
722.4747	0.0001
722.6538	-0.0159
722.8329	0.0317
723.012	0.0273
723.1911	-0.0016
723.3702	-0.0074
723.5492	0.0057
723.7282	0.011
723.9072	0.0228
724.0862	-0.0105
724.2652	0.0312
724.4441	-0.0072
724.623	0.0208
724.8019	-0.0013
724.9808	0.0264
725.1597	-0.0136
725.3385	0.0048
725.5174	0.0018
725.6962	0.0045
725.875	0.0187
726.0538	-0.0085
726.2325	0.0225
726.4112	-0.0073
726.59	-0.0121
726.7687	-0.0173
726.9474	0.0038
727.126	0.0291
727.3047	-0.0135
727.4833	0.0062
727.6619	0.0161
727.8405	0.0098
728.0191	0.0309
728.1976	0.0008
728.3762	-0.0017
728.5547	0.0026
728.7332	0.0252
728.9116	-0.0093
729.0901	0.0064
729.2686	0.0145
729.447	0.0094
729.6254	-0.0021
729.8038	0.0001
729.9821	0.0017
730.1605	0.014
730.3388	-0.0067
730.5171	0.0136
730.6954	-0.0078
730.8737	0.0121
731.0519	-0.0052
731.2302	0.0124
731.4084	-0.0103
731.5866	-0.0019
731.7648	0.0098
731.9429	0.0062
732.1211	0.0112
732.2992	0.003
732.4773	0.0001
732.6554	-0.0122
732.8335	0.0178
733.0115	0.008
733.1896	-0.0102
733.3676	0.0212
733.5456	0.0001
733.7235	-0.0144
733.9015	-0.0028
734.0794	-0.0214
734.2574	-0.0202
734.4353	0.0137
734.6131	-0.0002
734.791	0.006
734.9689	-0.0078
735.1467	-0.0125
735.3245	0.0117
735.5023	0.0036
735.68	-0.0112
735.8578	0.0055
736.0355	0.0062
736.2132	-0.0007
736.3909	0.0017
736.5686	-0.0101
736.7463	-0.0215
736.9239	0.0127
737.1015	0.0206
737.2791	0.0186
737.4567	0.0017
737.6343	0.0168
737.8118	0.0307
737.9894	0.014
738.1669	0.0081
738.3444	0.0415
738.5218	-0.0011
738.6993	0.0218
738.8767	0.0063
739.0541	-0.0189
739.2315	-0.0112
739.4089	0.0435
739.5863	0.0042
739.7636	-0.0013
739.9409	-0.0195
740.1182	-0.018
740.2955	0.022
740.4728	-0.0177
740.65	-0.0168
740.8272	0.0081
741.0044	0.0146
741.1816	0.0275
741.3588	0.0217
741.5359	0.0275
741.7131	-0.006
741.8902	0.0055
742.0673	-0.0052
742.2444	0.029
742.4214	0.0298
742.5985	0.0077
742.7755	-0.0168
742.9525	-0.0255
743.1295	-0.0324
743.3064	-0.0066
743.4834	0.0031
743.6603	0.0418
743.8372	-0.0508
744.0141	0.0037
744.191	-0.0082
744.3678	0.0011
744.5446	0.001
744.7215	-0.013
744.8982	0.0227
745.075	0.0653
745.2518	0.0167
745.4285	0.0289
745.6052	-0.0302
745.7819	-0.0013
745.9586	-0.0066
746.1353	-0.0159
746.3119	0.0087
746.4885	0.0316
746.6651	-0.0076
746.8417	-0.0107
747.0183	0.0137
747.1948	-0.0089
747.3714	0.0213
747.5479	-0.0069
747.7244	0.0018
747.9008	0.0018
748.0773	0.0292
748.2537	-0.0048
748.4301	0.0371
748.6065	-0.0258
748.7829	-0.0078
748.9593	0.0164
749.1356	-0.0044
749.3119	0.0078
749.4882	0.0293
749.6645	-0.0065
749.8408	0.0156
750.017	0.0034
750.1933	-0.0236
750.3695	0.0093
750.5457	-0.0083
750.7218	0.0166
750.898	-0.0049
751.0741	0.017
751.2502	0.0199
751.4263	0.0074
751.6024	0.0223
751.7784	-0.013
751.9545	0.0016
752.1305	0.0058
752.3065	0.018
752.4825	-0.0082
752.6584	0.0116
752.8344	-0.0172
753.0103	-0.0137
753.1862	0.0149
753.3621	-0.0035
753.5379	0.0123
753.7138	0.0124
753.8896	0.0173
754.0654	0.0123
754.2412	0.017
754.417	0.0106
754.5927	0.0056
754.7685	0.0077
754.9442	0.0155
755.1199	-0.0083
755.2956	0.0112
755.4712	-0.014
755.6469	0.0035
755.8225	0.0131
755.9981	-0.0022
756.1736	0.0065
756.3492	0.0064
756.5248	0.0169
756.7003	0.0045
756.8758	0.0133
757.0513	0.0013
757.2267	-0.0034
757.4022	-0.0059
757.5776	-0.0131
757.753	0.0126
757.9284	-0.0052
758.1038	0.0299
758.2791	0.0118
758.4545	-0.0163
758.6298	0.0079
758.8051	-0.0029
758.9803	0.0053
759.1556	-0.0067
759.3308	-0.0064
759.506	0.0167
759.6812	-0.0067
759.8564	0.012
760.0316	0.0119
760.2067	0.0187
760.3819	0.0027
760.557	-0.0089
760.732	-0.0066
760.9071	0.0062
761.0821	0.003
761.2572	-0.0241
761.4322	0.0219
761.6072	0.0011
761.7821	-0.0103
761.9571	-0.0074
762.132	-0.0101
762.3069	0.0091
762.4818	0.0105
762.6567	-0.0003
762.8316	0.0174
763.0064	0.0075
763.1812	0.0093
763.356	0.0018
763.5308	0.0207
763.7055	0.0019
763.8803	0.0219
764.055	0.0103
764.2297	-0.022
764.4044	-0.0098
764.579	-0.0077
764.7537	0.0237
764.9283	0.0108
765.1029	0.0101
765.2775	0.0071
765.4521	0.0043
765.6266	-0.0018
765.8011	0.0104
765.9756	0.0272
766.1501	-0.0062
766.3246	0.0088
766.4991	0.0084
766.6735	0.0299
766.8479	-0.0156
767.0223	-0.0128
767.1967	0.018
767.371	0.0127
767.5454	0.0207
767.7197	-0.0032
767.894	0.0009
768.0683	0.0226
768.2425	-0.0027
768.4168	0.0133
768.591	0.0132
768.7652	-0.0143
768.9394	-0.0307
769.1135	-0.0016
769.2877	0.0193
769.4618	0.033
769.6359	0.0051
769.81	0.0022
769.984	-0.0022
770.1581	0.0122
770.3321	0.0151
770.5061	0.0004
770.6801	0.0109
770.8541	-0.0047
771.028	0.0418
771.202	0.0184
771.3759	0.0142
771.5498	0.0035
771.7236	0.0264
771.8975	0.0192
772.0713	0.0024
772.2451	-0.0018
772.4189	-0.0023
772.5927	-0.012
772.7665	-0.0136
772.9402	0.0339
773.1139	0.0412
773.2876	-0.0091
773.4613	0.0192
773.635	0.0081
773.8086	0.0585
773.9822	0.0068
774.1558	0.0342
774.3294	0.0327
774.503	0.0207
774.6765	-0.0025
774.8501	0.0009
775.0236	0.0101
775.1971	-0.0111
775.3705	-0.0211
775.544	-0.0248
775.7174	0.0118
775.8908	0.0217
776.0642	0.0362
776.2376	0.0468
776.4109	0.0473
776.5843	-0.0178
776.7576	0.0264
776.9309	0.0553
777.1041	-0.0404
777.2774	0.0154
777.4506	-0.0174
777.6238	-0.0195
777.797	0.0152
777.9702	-0.0121
778.1434	0.0039
778.3165	-0.0186
778.4896	-0.0302
778.6627	-0.0009
778.8358	-0.0079
779.0089	-0.0034
779.1819	0.043
779.3549	0.0083
779.5279	-0.0396
779.7009	0.0352
779.8739	0.0528
780.0468	0.0175
780.2197	0.0022
780.3926	-0.0265
780.5655	0.036
780.7384	-0.0014
780.9112	0.0252
781.0841	0.0137
781.2569	0.0092
781.4297	-0.0107
781.6024	0.0065
781.7752	0.0299
781.9479	0.0251
782.1206	0.0146
782.2933	0.0163
782.466	0.0169
782.6386	-0.0167
782.8113	-0.0073
782.9839	0.0043
783.1565	0.0085
783.329	0.0113
783.5016	0.0001
783.6741	-0.0333
783.8466	0.0335
784.0191	-0.0046
784.1916	-0.0022
784.3641	-0.02
784.5365	0.0739
784.7089	-0.0312
784.8813	0.0751
785.0537	0.027
785.2261	0.0253
785.3984	0.0214
785.5707	0.0292
785.743	0.0062
785.9153	-0.0042
786.0876	-0.0133
786.2598	0.0697
786.432	0.0047
786.6042	0.0146
786.7764	0.0026
786.9486	0.0072
787.1207	0.0045
787.2928	0.038
787.4649	0.0207
787.637	-0.0074
787.8091	0.0096
787.9811	0.021
788.1532	0.0505
788.3252	0.0284
788.4972	0.0198
788.6691	-0.0114
788.8411	0.0002
789.013	0.028
789.1849	-0.0186
789.3568	0.0458
789.5287	0.0084
789.7005	-0.0137
789.8723	0.0145
790.0442	-0.0192
790.2159	-0.0028
790.3877	0.0422
790.5595	0.0129
790.7312	-0.0353
790.9029	-0.0217
791.0746	0.0141
791.2463	-0.0624
791.4179	-0.0008
791.5896	0.0383
791.7612	0.0346
791.9328	-0.0344
792.1044	0.0026
792.2759	-0.0226
792.4474	0.0097
792.619	-0.0109
792.7905	0.0371
792.9619	0.015
793.1334	0.0246
793.3048	0.0962
793.4762	0.0165
793.6476	-0.0069
793.819	-0.0038
793.9904	-0.0005
794.1617	-0.0258
794.333	0.0031
794.5043	0.0267
794.6756	-0.0056
794.8469	0.0169
795.0181	-0.011
795.1893	-0.0121
795.3605	0.0292
795.5317	0.0082
795.7029	0.02
795.874	-0.0035
796.0452	0.0463
796.2163	0.0388
796.3873	0.0293
796.5584	0.002
796.7294	0.0732
796.9005	0.055
797.0715	-0.0599
797.2425	0.0638
797.4134	0.0303
797.5844	0.0285
797.7553	-0.0487
797.9262	0.0503
798.0971	0.0509
798.2679	0.0214
798.4388	-0.0152
798.6096	0.0184
798.7804	0.0385
798.9512	0.0255
799.122	-0.0173
799.2927	0.0717
799.4635	-0.0605
799.6342	-0.0042
799.8049	0.0419
799.9755	-0.0279
800.1462	0.0464
800.3168	0.0402
800.4874	-0.0999
800.658	0.0171
800.8286	0.021
800.9991	0.1189
801.1696	-0.0619
801.3402	-0.1027
801.5106	-0.0358
801.6811	-0.0337
801.8516	0.0424
802.022	0.0338
802.1924	-0.0651
802.3628	-0.0335
802.5332	0.2219
802.7035	0.0763
802.8739	0.0044
803.0442	-0.0523
803.2145	0.1075
803.3847	0.0325
803.555	0.0056
803.7252	-0.0221
803.8954	-0.0343
804.0656	-0.0056
804.2358	-0.0121
804.4059	0.0292
804.5761	0.038
804.7462	0.0861
804.9163	0.0197
805.0864	-0.0642
805.2564	0.0024
805.4264	-0.0596
805.5965	0.0639
805.7665	0.0319
805.9364	0.0515
806.1064	0.0074
806.2763	0.0195
806.4462	-0.0116
806.6161	0.0302
806.786	0.05
806.9559	0.0618
807.1257	-0.0244
807.2955	-0.0008
807.4653	0.0402
807.6351	0.0619
807.8048	0.0213
807.9746	0.0326
808.1443	0.0326
808.314	0.0026
808.4837	0.0691
808.6533	0.0279
808.8229	0.032
808.9926	-0.0117
809.1622	0.0219
809.3317	-0.0708
809.5013	-0.0545
809.6708	0.0088
809.8403	0.0119
810.0098	-0.0153
810.1793	-0.0016
810.3488	-0.0802
810.5182	0.2426
810.6876	0.0562
810.857	0.0912
811.0264	-0.031
811.1958	0.0799
811.3651	-0.0377
811.5344	0.2158
811.7037	0.1299
811.873	0.0792
812.0422	-0.0384
812.2115	0.0421
812.3807	-0.176
812.5499	-0.0171
812.7191	0.0494
812.8882	-0.0467
813.0574	0.0934
813.2265	-0.0047
813.3956	-0.0036
813.5646	0.0666
813.7337	0.0301
813.9027	-0.0136
814.0718	0.0575
814.2407	0.0201
814.4097	0.0772
814.5787	0.0313
814.7476	0.0663
814.9165	0.0484
815.0854	0.0506
815.2543	0.0173
815.4232	0.0832
815.592	0.1389
815.7608	-0.1595
815.9296	-0.1247
816.0984	0.0653
816.2671	-0.2513
816.4359	0.0935
816.6046	0.0884
816.7733	-0.139
816.942	-0.0775
817.1106	0.1763
817.2793	-0.0686
817.4479	0.0478
817.6165	0.0605
817.785	0.019
817.9536	-0.0541
818.1221	-0.0216
818.2906	-0.1531
818.4591	0.0257
818.6276	0.0156
818.7961	-0.0299
818.9645	0.0058
819.1329	0.242
819.3013	-0.0777
819.4697	-0.1134
819.638	0.1137
819.8064	-0.0089
819.9747	0.1254
820.143	-0.1402
820.3113	0.076
820.4795	-0.0482
820.6477	0.0545
820.816	-0.0171
820.9842	0.1397
821.1523	-0.0131
821.3205	0.0521
821.4886	-0.0215
821.6567	-0.0429
821.8248	0.1212
821.9929	-0.171
822.1609	-0.1032
822.329	-0.028
822.497	0.0006
822.665	-0.0481
822.833	0.0529
823.0009	0.0532
823.1688	0.041
823.3367	-0.1018
823.5046	0.0436
823.6725	-0.0429
823.8404	-0.0222
824.0082	-0.0394
824.176	-0.1092
824.3438	0.2164
824.5116	-0.0563
824.6793	0.1226
824.847	0.1795
825.0147	0.2952
825.1824	-0.0288
825.3501	-0.0372
825.5177	-0.0845
825.6854	-0.1053
825.853	-0.0163
826.0206	0.2043
826.1881	0.1728
826.3557	0.3377
826.5232	0.2084
826.6907	0.0375
826.8582	-0.0699
827.0257	0.0457
827.1931	0.0119
827.3605	-0.0287
827.528	-0.1862
827.6953	-0.1587
827.8627	-0.0887
828.03	0.0399
828.1974	0.1714
828.3647	0.1217
828.532	-0.0782
828.6992	0.1516
828.8665	-0.2372
829.0337	-0.0935
829.2009	-0.1419
829.3681	-0.1207
829.5352	-0.3494
829.7024	0.1388
829.8695	-0.1459
830.0366	0.2379
830.2037	-0.01
830.3707	0.064
830.5378	-0.0041
830.7048	-0.0171
830.8718	0.0279
831.0388	0.1169
831.2057	-0.1241
831.3727	-0.1556
831.5396	0.1717
831.7065	-0.4283
831.8734	-0.1036
832.0402	0.2824
832.2071	-0.5197
832.3739	-0.1834
832.5407	-1.8905
832.7075	-0.3943
832.8742	0.6827
833.041	0.2286
833.2077	0.0583
833.3744	0.0394
833.541	-0.1019
833.7077	-0.208
833.8743	-0.0073
834.0409	0.067
834.2075	0.1253
834.3741	-0.0817
834.5407	-0.0585
834.7072	-0.0623
834.8737	0.0239
835.0402	0.0779
835.2067	-0.0425
835.3731	0.053
835.5395	0.0198
835.706	-0.1655
835.8723	-0.0986
836.0387	0.5134
836.2051	0.1808
836.3714	0.0604
836.5377	-0.1991
836.704	0.2071
836.8703	-0.3646
837.0365	-0.8552
837.2027	0.524
837.3689	0.3057
837.5351	-0.0629
837.7013	0.0446
837.8674	-0.29
838.0335	0.0338
838.1997	-0.1758
838.3657	-0
838.5318	-0.1634
838.6978	0.6202
838.8639	-0.546
839.0299	-0.1069
839.1958	0.0709
839.3618	0.4219
839.5277	-0.0291
839.6937	-0.0915
839.8596	-0.1933
840.0254	-0.1284
840.1913	-0.4627
840.3571	0.1574
840.523	-0
840.6888	0.0828
840.8545	-0.5113
841.0203	-0.1026
841.186	-0.0669
841.3517	-0.1051
841.5174	1.2801
841.6831	-0.0869
841.8488	-0.1869
842.0144	0.0544
842.18	0.2561
842.3456	-0.537
842.5112	-1.0437
842.6767	0.5967
842.8422	-0.1037
843.0077	-0
843.1732	-0.2468
843.3387	0.017
843.5042	-0
843.6696	-0.2947
843.835	-0.1454
844.0004	0.0345
844.1657	-0
844.3311	-0
844.4964	0.4108
844.6617	0.6502
844.827	-0
844.9923	0.2504
845.1575	-0.5718
845.3227	-0.2606
845.4879	-0.0913
845.6531	0.2738
845.8183	0.2252
845.9834	-0
846.1485	0.0812
846.3136	1.207
846.4787	-0
846.6438	-0
846.8088	0.353
846.9738	-0
847.1388	0.2317
847.3038	0.6331
847.4687	0.4205
847.6337	-0.1885
847.7986	-0.0105
847.9635	-0.165
848.1284	-0
848.2932	0.2092
848.458	-0
848.6228	0.0673
848.7876	-0
848.9524	-0.6254
849.1172	-1.3904
849.2819	-0
849.4466	0.5258
849.6113	-0.0515
849.7759	-0
849.9406	0.3311
850.1052	-1.1086
850.2698	-0
850.4344	-0
850.599	0.1912
850.7635	0.3003
850.928	0.4262
851.0925	-0
851.257	0.4988
851.4215	-0
851.5859	0.0946
851.7503	-0
851.9147	-0.075
852.0791	-0.1432
852.2434	0.1482
852.4078	-0
852.5721	-0
852.7364	-0.1241
852.9007	0.0687
853.0649	-0
853.2291	-0
853.3934	-0
853.5575	0.5206
853.7217	0.2239
853.8859	1.5017
854.05	-0.448
854.2141	0.3546
854.3782	-0.3653
854.5423	-0
854.7063	-0.0748
854.8703	0.2643
855.0343	-0.1787
855.1983	-0.1392
855.3623	0.2306
855.5262	0.0796
855.6901	-0.0164
855.854	-0.054
856.0179	-0.1962
856.1818	0.3859
856.3456	1.1596
856.5094	-0.6499
856.6732	-0
856.837	-1.263
857.0008	0.132
857.1645	-0.3029
857.3282	-0.5869
857.4919	0.1393
857.6556	-0.5766
857.8192	-0.2242
857.9828	-0.3447
858.1465	-0.167
858.31	0.6192
858.4736	0.4535
858.6372	-0
858.8007	0.0866
858.9642	0.3555
859.1277	0.8646
859.2911	-0.5005
859.4546	-0
859.618	0.2617
859.7814	-0
859.9448	-0
860.1081	-0
860.2715	-0
860.4348	-0.2755
860.5981	-0
860.7614	-0
860.9246	0.6608
861.0879	0.0767
861.2511	-0.626
861.4143	-0.725
861.5774	-0.1054
861.7406	0.2798
861.9037	-0
862.0668	-0
862.2299	-0.237
862.393	-0
862.556	0.3368
862.7191	-0.5092
862.8821	0.0248
863.0451	0.0931
863.208	-0.3369
863.371	-0.3954
863.5339	0.3233
863.6968	0.8067
863.8597	0.0363
864.0225	-0.5577
864.1854	-0.0743
864.3482	-1.3462
864.511	0.4186
864.6737	-0
864.8365	-0.0706
864.9992	0.0272
865.1619	1.0677
865.3246	-0
865.4873	-0
865.65	0.5833
865.8126	0.4219
865.9752	-0.2936
866.1378	0.2389
866.3004	-0.1386
866.4629	-1.3252
866.6254	-0
866.7879	-0.2586
866.9504	-0
867.1129	-0.4418
867.2753	0.1015
867.4377	-0
867.6001	-0.2698
867.7625	-0.0777
867.9249	0.8309
868.0872	0.4419
868.2495	0.7322
868.4118	-0
868.5741	-0
868.7363	-0.6327
868.8986	-0.4842
869.0608	-0
869.223	-0.3037
869.3851	-0
869.5473	-0.0693
869.7094	-0
869.8715	-0
870.0336	-0.2274
870.1957	-0
870.3577	0.0431
870.5197	-0.0795
870.6817	-1.1024
870.8437	1.0227
871.0057	1.0635
871.1676	0.2815
871.3295	-0
871.4914	-0
871.6533	-0
871.8151	0.308
871.977	-0.5733
872.1388	0.1063
872.3006	-0.2864
872.4623	-0.7297
872.6241	-0
872.7858	0.8487
872.9475	-0
873.1092	-0.1827
873.2709	0.279
873.4325	-1.9272
873.5941	-0
873.7557	0.2854
873.9173	0.4167
874.0789	0.1842
874.2404	-0
874.4019	0.0508
874.5634	0.7606
874.7249	-0
874.8863	0.3564
875.0478	-0.1238
875.2092	0.2776
875.3706	-0.0271
875.5319	0.2309
875.6933	0.1564
875.8546	0.1496
876.0159	0.0423
876.1772	-0.1096
876.3385	-0
876.4997	0.1315
876.6609	0.3584
876.8221	-0
876.9833	-0.2368
877.1445	0.0976
877.3056	-1.1481
877.4667	-0.9084
877.6278	-0
877.7889	0.5638
877.9499	-0.1238
878.111	-0.2398
878.272	-0
878.433	0.7358
878.5939	0.589
878.7549	0.053
878.9158	0.1358
879.0767	-0
879.2376	-0
879.3984	-0
879.5593	0.3402
879.7201	-1.359
879.8809	-0
880.0417	-0.251
880.2024	-0
880.3632	-0.3041
880.5239	1.9766
880.6846	-0.6266
880.8452	-0.145
881.0059	-0
881.1665	-0.0093
881.3271	0.3818
881.4877	-0.0317
881.6483	-1.4247
881.8088	-0
881.9693	-0
882.1298	-0
882.2903	-0
