Data from D4ACN5uM440nmA_Absorbance_13-50-25-027.txt Node
Date: Fri Feb 21 13:50:25 GMT 2025
User: LASERRRRR
Spectrometer: FLMT03099
Trigger mode: 0
Integration Time (sec): 1.500000E-2
Scans to average: 1
Electric dark correction enabled: true
Nonlinearity correction enabled: false
Boxcar width: 0
XAxis mode: Wavelengths
Number of Pixels in Spectrum: 3648
>>>>>Begin Spectral Data<<<<<
179.3399	-0.2396
179.5586	-0.2396
179.7771	-0.2396
179.9957	-0.1497
180.2143	-0
180.4329	-0
180.6514	-0
180.8699	-0
181.0885	-0.133
181.307	0.8397
181.5255	0.3583
181.744	0.5654
181.9625	0.1894
182.181	1.8779
182.3994	-0.6397
182.6179	-0.5424
182.8363	0.4788
183.0547	0.7882
183.2732	0.0886
183.4916	0.139
183.71	0.1202
183.9284	0.1387
184.1467	0.0991
184.3651	-0.0313
184.5835	0.2518
184.8018	0.041
185.0201	0.2865
185.2385	0.3605
185.4568	0.1804
185.6751	0.0487
185.8934	0.2477
186.1117	-0.0766
186.3299	0.3491
186.5482	0.1562
186.7664	0.3063
186.9847	0.0565
187.2029	0.4182
187.4211	0.0163
187.6393	0.1479
187.8575	0.1116
188.0757	0.3056
188.2939	0.7468
188.512	0.2366
188.7302	0.2206
188.9483	0.1666
189.1665	0.7711
189.3846	0.2504
189.6027	0.2209
189.8208	0.2795
190.0389	0.2117
190.257	0.1103
190.475	-0.0061
190.6931	0.2059
190.9111	-0.0992
191.1292	0.194
191.3472	0.1258
191.5652	0.2854
191.7832	0.2113
192.0012	0.1713
192.2192	0.237
192.4371	0.0265
192.6551	0.2663
192.873	0.1911
193.091	0.1511
193.3089	0.3425
193.5268	0.3279
193.7447	0.1994
193.9626	0.2505
194.1805	0.2525
194.3984	0.2821
194.6162	0.2329
194.8341	0.3432
195.0519	0.2139
195.2697	0.2484
195.4875	0.3377
195.7054	0.2703
195.9231	0.3296
196.1409	0.4046
196.3587	0.3217
196.5765	0.3148
196.7942	0.3087
197.012	0.3677
197.2297	0.3487
197.4474	0.2832
197.6651	0.315
197.8828	0.3617
198.1005	0.4203
198.3182	0.4393
198.5358	0.4069
198.7535	0.4395
198.9711	0.3871
199.1888	0.3328
199.4064	0.3718
199.624	0.3975
199.8416	0.3731
200.0592	0.4215
200.2767	0.3529
200.4943	0.4601
200.7119	0.3858
200.9294	0.4323
201.1469	0.4122
201.3645	0.4577
201.582	0.3955
201.7995	0.4428
202.017	0.4328
202.2344	0.4396
202.4519	0.3632
202.6694	0.4119
202.8868	0.3684
203.1042	0.4739
203.3217	0.3784
203.5391	0.4212
203.7565	0.387
203.9739	0.388
204.1913	0.3718
204.4086	0.3364
204.626	0.4042
204.8433	0.359
205.0607	0.342
205.278	0.3658
205.4953	0.3323
205.7126	0.3506
205.9299	0.298
206.1472	0.3498
206.3644	0.3398
206.5817	0.3601
206.7989	0.3637
207.0162	0.3196
207.2334	0.3213
207.4506	0.3112
207.6678	0.2855
207.885	0.321
208.1022	0.3112
208.3194	0.3031
208.5365	0.2934
208.7537	0.2871
208.9708	0.3085
209.1879	0.2869
209.405	0.3003
209.6222	0.2918
209.8392	0.2948
210.0563	0.2952
210.2734	0.2549
210.4905	0.3012
210.7075	0.285
210.9245	0.2521
211.1416	0.2572
211.3586	0.2548
211.5756	0.2727
211.7926	0.2677
212.0096	0.2597
212.2265	0.2859
212.4435	0.2424
212.6604	0.2575
212.8774	0.2447
213.0943	0.2811
213.3112	0.2575
213.5281	0.2619
213.745	0.2413
213.9619	0.2402
214.1788	0.2708
214.3956	0.2556
214.6125	0.2534
214.8293	0.2504
215.0461	0.2469
215.2629	0.2684
215.4798	0.2442
215.6965	0.2591
215.9133	0.2447
216.1301	0.241
216.3469	0.2532
216.5636	0.2456
216.7803	0.2703
216.9971	0.252
217.2138	0.235
217.4305	0.241
217.6472	0.2448
217.8639	0.2545
218.0805	0.2431
218.2972	0.2466
218.5138	0.2595
218.7305	0.2591
218.9471	0.2581
219.1637	0.2739
219.3803	0.2597
219.5969	0.2541
219.8135	0.2543
220.0301	0.2497
220.2466	0.2637
220.4632	0.2524
220.6797	0.2656
220.8962	0.2627
221.1127	0.2604
221.3292	0.2665
221.5457	0.2753
221.7622	0.2723
221.9787	0.2816
222.1951	0.2783
222.4116	0.2828
222.628	0.2778
222.8444	0.2811
223.0608	0.2783
223.2772	0.2842
223.4936	0.2824
223.71	0.2875
223.9264	0.292
224.1427	0.2762
224.3591	0.2873
224.5754	0.2967
224.7917	0.3067
225.008	0.3004
225.2243	0.3053
225.4406	0.2992
225.6569	0.3194
225.8732	0.3116
226.0894	0.3147
226.3057	0.3135
226.5219	0.3065
226.7381	0.3273
226.9543	0.3148
227.1705	0.3249
227.3867	0.326
227.6029	0.3281
227.8191	0.3318
228.0352	0.3392
228.2513	0.3633
228.4675	0.3332
228.6836	0.3467
228.8997	0.3421
229.1158	0.3547
229.3319	0.3548
229.548	0.3533
229.764	0.3548
229.9801	0.3711
230.1961	0.3773
230.4121	0.3715
230.6282	0.3822
230.8442	0.3845
231.0602	0.3802
231.2761	0.384
231.4921	0.3988
231.7081	0.3887
231.924	0.3994
232.14	0.3975
232.3559	0.4097
232.5718	0.4275
232.7877	0.4095
233.0036	0.4125
233.2195	0.401
233.4353	0.4233
233.6512	0.4083
233.867	0.4244
234.0829	0.417
234.2987	0.4306
234.5145	0.4276
234.7303	0.43
234.9461	0.4292
235.1619	0.4483
235.3776	0.4317
235.5934	0.4358
235.8091	0.4492
236.0249	0.4338
236.2406	0.4425
236.4563	0.4471
236.672	0.4368
236.8877	0.4523
237.1034	0.4433
237.319	0.442
237.5347	0.4539
237.7503	0.4577
237.966	0.4624
238.1816	0.4556
238.3972	0.4593
238.6128	0.4673
238.8284	0.4698
239.0439	0.4588
239.2595	0.4648
239.475	0.4656
239.6906	0.4633
239.9061	0.458
240.1216	0.4627
240.3371	0.4651
240.5526	0.459
240.7681	0.4497
240.9836	0.4563
241.199	0.4476
241.4145	0.4434
241.6299	0.4573
241.8453	0.4401
242.0607	0.4402
242.2761	0.4301
242.4915	0.4156
242.7069	0.4041
242.9223	0.4196
243.1376	0.4181
243.353	0.4063
243.5683	0.3862
243.7836	0.3909
243.9989	0.3773
244.2142	0.368
244.4295	0.366
244.6448	0.3653
244.86	0.351
245.0753	0.3436
245.2905	0.3364
245.5057	0.326
245.721	0.3321
245.9362	0.3272
246.1514	0.3225
246.3665	0.3108
246.5817	0.3027
246.7969	0.2977
247.012	0.2887
247.2271	0.2924
247.4423	0.2851
247.6574	0.2703
247.8725	0.2708
248.0876	0.2669
248.3026	0.2701
248.5177	0.2575
248.7328	0.2488
248.9478	0.2491
249.1628	0.2492
249.3779	0.2408
249.5929	0.2377
249.8079	0.2321
250.0228	0.231
250.2378	0.2329
250.4528	0.2277
250.6677	0.227
250.8827	0.2142
251.0976	0.2186
251.3125	0.2162
251.5274	0.2106
251.7423	0.2051
251.9572	0.2073
252.172	0.2086
252.3869	0.205
252.6017	0.2066
252.8166	0.2033
253.0314	0.1942
253.2462	0.2025
253.461	0.1948
253.6758	0.1976
253.8906	0.1984
254.1053	0.1973
254.3201	0.1946
254.5348	0.1844
254.7496	0.1865
254.9643	0.1853
255.179	0.1866
255.3937	0.1908
255.6083	0.1929
255.823	0.1833
256.0377	0.1877
256.2523	0.1802
256.467	0.1837
256.6816	0.18
256.8962	0.1797
257.1108	0.182
257.3254	0.1779
257.54	0.1761
257.7545	0.1762
257.9691	0.178
258.1836	0.1809
258.3981	0.1832
258.6127	0.1728
258.8272	0.1841
259.0417	0.1728
259.2561	0.1772
259.4706	0.1787
259.6851	0.179
259.8995	0.176
260.114	0.1759
260.3284	0.1731
260.5428	0.1784
260.7572	0.1713
260.9716	0.1862
261.186	0.1733
261.4003	0.1675
261.6147	0.1763
261.829	0.177
262.0433	0.176
262.2577	0.1758
262.472	0.1772
262.6863	0.1803
262.9005	0.1749
263.1148	0.1826
263.3291	0.175
263.5433	0.1782
263.7576	0.175
263.9718	0.1816
264.186	0.1763
264.4002	0.1764
264.6144	0.188
264.8286	0.1862
265.0427	0.1881
265.2569	0.1808
265.471	0.1819
265.6851	0.1834
265.8993	0.1787
266.1134	0.177
266.3275	0.1862
266.5415	0.1899
266.7556	0.1873
266.9697	0.1837
267.1837	0.183
267.3978	0.1785
267.6118	0.1723
267.8258	0.1821
268.0398	0.1818
268.2538	0.1792
268.4677	0.1816
268.6817	0.1745
268.8957	0.1741
269.1096	0.1706
269.3235	0.1749
269.5374	0.1792
269.7514	0.174
269.9652	0.1737
270.1791	0.1708
270.393	0.1692
270.6068	0.1746
270.8207	0.1709
271.0345	0.167
271.2483	0.1647
271.4622	0.1775
271.676	0.1632
271.8897	0.1695
272.1035	0.1729
272.3173	0.1714
272.531	0.1738
272.7448	0.1727
272.9585	0.171
273.1722	0.1742
273.3859	0.1722
273.5996	0.1723
273.8133	0.1711
274.0269	0.1666
274.2406	0.1705
274.4542	0.1756
274.6679	0.1749
274.8815	0.176
275.0951	0.1745
275.3087	0.1772
275.5223	0.1765
275.7358	0.1772
275.9494	0.1707
276.1629	0.1747
276.3765	0.1736
276.59	0.1705
276.8035	0.1762
277.017	0.1848
277.2305	0.1786
277.444	0.1824
277.6574	0.181
277.8709	0.1812
278.0843	0.1819
278.2978	0.1769
278.5112	0.1801
278.7246	0.1749
278.938	0.1784
279.1513	0.1791
279.3647	0.1801
279.5781	0.1744
279.7914	0.1766
280.0047	0.1776
280.2181	0.1793
280.4314	0.1842
280.6447	0.1859
280.8579	0.1774
281.0712	0.1805
281.2845	0.182
281.4977	0.1778
281.711	0.1801
281.9242	0.1799
282.1374	0.1848
282.3506	0.1779
282.5638	0.1786
282.7769	0.1782
282.9901	0.1845
283.2033	0.1838
283.4164	0.1807
283.6295	0.1849
283.8426	0.1766
284.0557	0.1826
284.2688	0.1877
284.4819	0.1784
284.695	0.1886
284.908	0.1831
285.1211	0.1853
285.3341	0.1858
285.5471	0.187
285.7601	0.1869
285.9731	0.1872
286.1861	0.191
286.3991	0.1909
286.612	0.1855
286.825	0.1878
287.0379	0.1864
287.2508	0.1822
287.4637	0.1878
287.6766	0.1891
287.8895	0.183
288.1024	0.1924
288.3152	0.1939
288.5281	0.188
288.7409	0.1968
288.9538	0.1871
289.1666	0.1958
289.3794	0.1896
289.5922	0.1857
289.8049	0.1902
290.0177	0.1933
290.2304	0.1891
290.4432	0.1949
290.6559	0.1895
290.8686	0.1891
291.0813	0.1909
291.294	0.1944
291.5067	0.1881
291.7194	0.1918
291.932	0.1825
292.1447	0.1981
292.3573	0.1909
292.5699	0.1906
292.7825	0.1888
292.9951	0.1964
293.2077	0.1886
293.4203	0.1944
293.6328	0.1876
293.8454	0.193
294.0579	0.1901
294.2704	0.1948
294.4829	0.1835
294.6954	0.1951
294.9079	0.1927
295.1204	0.1944
295.3328	0.1952
295.5453	0.1912
295.7577	0.1954
295.9701	0.1929
296.1825	0.1962
296.3949	0.188
296.6073	0.1852
296.8197	0.1898
297.0321	0.1932
297.2444	0.1962
297.4567	0.1956
297.6691	0.1887
297.8814	0.1873
298.0937	0.1889
298.306	0.1929
298.5182	0.1986
298.7305	0.1918
298.9428	0.1914
299.155	0.1888
299.3672	0.1912
299.5794	0.1893
299.7916	0.1937
300.0038	0.1931
300.216	0.1876
300.4282	0.1928
300.6403	0.1965
300.8525	0.1954
301.0646	0.1941
301.2767	0.1934
301.4888	0.1958
301.7009	0.1936
301.913	0.1916
302.125	0.1908
302.3371	0.1972
302.5491	0.1944
302.7612	0.1937
302.9732	0.1976
303.1852	0.1959
303.3972	0.1978
303.6092	0.191
303.8211	0.1904
304.0331	0.1873
304.245	0.1858
304.457	0.1842
304.6689	0.1906
304.8808	0.1862
305.0927	0.1897
305.3046	0.1857
305.5164	0.1788
305.7283	0.1858
305.9401	0.1768
306.152	0.1801
306.3638	0.1789
306.5756	0.1838
306.7874	0.1768
306.9992	0.1708
307.2109	0.1722
307.4227	0.1704
307.6344	0.1743
307.8462	0.1694
308.0579	0.1691
308.2696	0.168
308.4813	0.1654
308.693	0.1643
308.9046	0.1653
309.1163	0.1608
309.328	0.1542
309.5396	0.1583
309.7512	0.1506
309.9628	0.1559
310.1744	0.1502
310.386	0.1424
310.5976	0.1481
310.8091	0.1512
311.0207	0.1474
311.2322	0.1464
311.4437	0.1469
311.6552	0.1437
311.8667	0.1444
312.0782	0.1477
312.2897	0.1445
312.5012	0.1387
312.7126	0.1337
312.924	0.1379
313.1355	0.1331
313.3469	0.1319
313.5583	0.1323
313.7696	0.136
313.981	0.1356
314.1924	0.1357
314.4037	0.1321
314.6151	0.127
314.8264	0.1334
315.0377	0.1328
315.249	0.1337
315.4603	0.1223
315.6716	0.1295
315.8828	0.1284
316.0941	0.1304
316.3053	0.122
316.5165	0.1271
316.7277	0.1246
316.9389	0.1272
317.1501	0.127
317.3613	0.1269
317.5724	0.1213
317.7836	0.121
317.9947	0.1216
318.2058	0.1201
318.417	0.123
318.6281	0.1185
318.8391	0.1232
319.0502	0.1201
319.2613	0.1198
319.4723	0.1214
319.6834	0.125
319.8944	0.1239
320.1054	0.1221
320.3164	0.1196
320.5274	0.119
320.7383	0.1265
320.9493	0.1241
321.1602	0.1189
321.3712	0.1234
321.5821	0.1186
321.793	0.1271
322.0039	0.1213
322.2148	0.1263
322.4257	0.1217
322.6365	0.1232
322.8474	0.1239
323.0582	0.1265
323.269	0.1247
323.4798	0.1266
323.6906	0.1247
323.9014	0.121
324.1122	0.1196
324.3229	0.1269
324.5337	0.1217
324.7444	0.1228
324.9551	0.1232
325.1658	0.1228
325.3765	0.1305
325.5872	0.129
325.7979	0.1242
326.0085	0.1242
326.2192	0.123
326.4298	0.1295
326.6404	0.1314
326.851	0.1296
327.0616	0.1308
327.2722	0.1289
327.4828	0.1301
327.6933	0.1302
327.9039	0.1289
328.1144	0.1271
328.3249	0.1234
328.5354	0.1281
328.7459	0.1279
328.9564	0.1282
329.1669	0.1337
329.3773	0.1341
329.5878	0.1328
329.7982	0.1288
330.0086	0.1308
330.219	0.13
330.4294	0.1342
330.6398	0.1328
330.8502	0.1363
331.0605	0.1316
331.2708	0.1315
331.4812	0.1364
331.6915	0.1341
331.9018	0.1321
332.1121	0.1413
332.3224	0.1352
332.5326	0.1333
332.7429	0.1386
332.9531	0.1354
333.1633	0.1323
333.3735	0.1314
333.5837	0.1359
333.7939	0.1367
334.0041	0.146
334.2143	0.1306
334.4244	0.1364
334.6346	0.1346
334.8447	0.1321
335.0548	0.1392
335.2649	0.1423
335.475	0.1335
335.685	0.1402
335.8951	0.1299
336.1051	0.1371
336.3152	0.143
336.5252	0.1449
336.7352	0.1377
336.9452	0.1385
337.1552	0.1337
337.3652	0.1332
337.5751	0.1394
337.7851	0.1371
337.995	0.144
338.2049	0.1428
338.4148	0.1352
338.6247	0.1383
338.8346	0.1458
339.0445	0.1382
339.2543	0.1417
339.4642	0.1465
339.674	0.1419
339.8838	0.1471
340.0936	0.1393
340.3034	0.139
340.5132	0.1387
340.7229	0.1493
340.9327	0.1502
341.1424	0.1453
341.3522	0.1369
341.5619	0.1431
341.7716	0.1462
341.9813	0.1496
342.1909	0.1481
342.4006	0.1413
342.6102	0.1491
342.8199	0.1469
343.0295	0.1371
343.2391	0.1488
343.4487	0.1501
343.6583	0.1592
343.8679	0.1558
344.0774	0.1535
344.287	0.1489
344.4965	0.1529
344.706	0.1561
344.9155	0.1522
345.125	0.1477
345.3345	0.1646
345.544	0.1558
345.7534	0.1554
345.9629	0.1646
346.1723	0.162
346.3817	0.1598
346.5911	0.1611
346.8005	0.1671
347.0099	0.1638
347.2193	0.1704
347.4286	0.1674
347.638	0.1638
347.8473	0.1701
348.0566	0.162
348.2659	0.1635
348.4752	0.1684
348.6845	0.1671
348.8937	0.1695
349.103	0.1723
349.3122	0.1672
349.5214	0.1685
349.7306	0.1736
349.9398	0.1731
350.149	0.1643
350.3582	0.1698
350.5674	0.1775
350.7765	0.1757
350.9856	0.1644
351.1948	0.1791
351.4039	0.1774
351.613	0.175
351.822	0.1835
352.0311	0.1732
352.2402	0.1755
352.4492	0.1776
352.6582	0.1795
352.8672	0.187
353.0762	0.1785
353.2852	0.1815
353.4942	0.185
353.7032	0.1705
353.9121	0.1827
354.1211	0.1839
354.33	0.1807
354.5389	0.1763
354.7478	0.1809
354.9567	0.1844
355.1655	0.1839
355.3744	0.1792
355.5833	0.1818
355.7921	0.1891
356.0009	0.1904
356.2097	0.1871
356.4185	0.1925
356.6273	0.1896
356.8361	0.1887
357.0448	0.1915
357.2536	0.1887
357.4623	0.1928
357.671	0.186
357.8797	0.1945
358.0884	0.1862
358.2971	0.1921
358.5057	0.1925
358.7144	0.187
358.923	0.2017
359.1316	0.1963
359.3402	0.2024
359.5488	0.1929
359.7574	0.202
359.966	0.2093
360.1746	0.2
360.3831	0.2095
360.5916	0.2071
360.8002	0.209
361.0087	0.2062
361.2172	0.2064
361.4256	0.2069
361.6341	0.2092
361.8426	0.2055
362.051	0.2085
362.2594	0.2105
362.4678	0.2215
362.6762	0.2099
362.8846	0.2189
363.093	0.2215
363.3014	0.2112
363.5097	0.2181
363.718	0.217
363.9264	0.2223
364.1347	0.2263
364.343	0.2195
364.5513	0.2283
364.7595	0.2312
364.9678	0.2231
365.176	0.2271
365.3842	0.231
365.5925	0.223
365.8007	0.2262
366.0089	0.2278
366.217	0.2353
366.4252	0.226
366.6333	0.2314
366.8415	0.237
367.0496	0.2358
367.2577	0.2367
367.4658	0.244
367.6739	0.2361
367.882	0.2396
368.09	0.2383
368.2981	0.2423
368.5061	0.2475
368.7141	0.2427
368.9221	0.2512
369.1301	0.2433
369.3381	0.246
369.5461	0.2437
369.754	0.2448
369.962	0.2442
370.1699	0.2495
370.3778	0.2582
370.5857	0.2581
370.7936	0.2501
371.0015	0.2509
371.2093	0.2478
371.4172	0.2509
371.625	0.2492
371.8328	0.2491
372.0406	0.256
372.2484	0.2566
372.4562	0.2632
372.664	0.2497
372.8717	0.2542
373.0795	0.2733
373.2872	0.2587
373.4949	0.2662
373.7026	0.2596
373.9103	0.2566
374.118	0.2618
374.3256	0.2719
374.5333	0.2643
374.7409	0.273
374.9485	0.2674
375.1561	0.2767
375.3637	0.2682
375.5713	0.2731
375.7789	0.2789
375.9864	0.2677
376.194	0.2742
376.4015	0.2722
376.609	0.2772
376.8165	0.2792
377.024	0.2753
377.2315	0.2663
377.4389	0.2817
377.6464	0.29
377.8538	0.2816
378.0612	0.284
378.2686	0.281
378.476	0.2884
378.6834	0.283
378.8908	0.2855
379.0981	0.2836
379.3055	0.2824
379.5128	0.2755
379.7201	0.2872
379.9274	0.2912
380.1347	0.2886
380.342	0.2964
380.5492	0.2934
380.7565	0.2887
380.9637	0.2959
381.1709	0.2833
381.3781	0.2999
381.5853	0.2927
381.7925	0.2897
381.9997	0.2934
382.2068	0.2959
382.4139	0.2921
382.6211	0.2961
382.8282	0.303
383.0353	0.3021
383.2424	0.2997
383.4494	0.2942
383.6565	0.3045
383.8635	0.2919
384.0706	0.3001
384.2776	0.2989
384.4846	0.306
384.6916	0.3013
384.8986	0.3071
385.1055	0.3096
385.3125	0.3054
385.5194	0.3004
385.7263	0.3107
385.9333	0.3015
386.1402	0.3034
386.347	0.2955
386.5539	0.3091
386.7608	0.2958
386.9676	0.2948
387.1744	0.301
387.3813	0.3027
387.5881	0.3008
387.7948	0.3117
388.0016	0.3133
388.2084	0.3013
388.4151	0.3065
388.6219	0.2929
388.8286	0.2962
389.0353	0.303
389.242	0.3013
389.4487	0.2924
389.6553	0.2812
389.862	0.2849
390.0686	0.2887
390.2753	0.2862
390.4819	0.2982
390.6885	0.2898
390.8951	0.2988
391.1016	0.2938
391.3082	0.2974
391.5147	0.2824
391.7213	0.2882
391.9278	0.2891
392.1343	0.2856
392.3408	0.2846
392.5473	0.2861
392.7537	0.2851
392.9602	0.2789
393.1666	0.2753
393.373	0.2799
393.5794	0.2765
393.7858	0.2819
393.9922	0.2692
394.1986	0.2785
394.4049	0.2777
394.6113	0.2767
394.8176	0.2793
395.0239	0.2705
395.2302	0.2793
395.4365	0.2695
395.6428	0.2674
395.8491	0.268
396.0553	0.2564
396.2615	0.2701
396.4678	0.2681
396.674	0.2605
396.8802	0.266
397.0863	0.2664
397.2925	0.2692
397.4987	0.2651
397.7048	0.2598
397.9109	0.2597
398.117	0.2577
398.3231	0.2607
398.5292	0.2557
398.7353	0.2567
398.9413	0.2524
399.1474	0.2534
399.3534	0.2559
399.5594	0.2598
399.7654	0.2624
399.9714	0.2606
400.1774	0.2592
400.3833	0.2594
400.5893	0.2622
400.7952	0.2589
401.0011	0.2575
401.207	0.2563
401.4129	0.257
401.6188	0.2508
401.8247	0.2626
402.0305	0.2593
402.2364	0.2598
402.4422	0.2583
402.648	0.2622
402.8538	0.2602
403.0596	0.242
403.2654	0.2449
403.4711	0.2453
403.6768	0.2481
403.8826	0.2549
404.0883	0.2499
404.294	0.2535
404.4997	0.2562
404.7054	0.2691
404.911	0.2537
405.1167	0.2635
405.3223	0.2446
405.5279	0.2541
405.7335	0.2582
405.9391	0.2497
406.1447	0.2638
406.3502	0.2545
406.5558	0.2566
406.7613	0.2594
406.9668	0.2539
407.1724	0.2575
407.3778	0.2499
407.5833	0.2408
407.7888	0.2494
407.9942	0.2566
408.1997	0.2565
408.4051	0.2532
408.6105	0.2532
408.8159	0.2508
409.0213	0.2642
409.2267	0.257
409.432	0.2578
409.6374	0.2602
409.8427	0.2685
410.048	0.2545
410.2533	0.2462
410.4586	0.2492
410.6639	0.2537
410.8691	0.2413
411.0744	0.2483
411.2796	0.2524
411.4848	0.2582
411.69	0.254
411.8952	0.2474
412.1004	0.2608
412.3056	0.2558
412.5107	0.2471
412.7158	0.2611
412.921	0.2513
413.1261	0.2488
413.3312	0.2538
413.5362	0.254
413.7413	0.2605
413.9464	0.2411
414.1514	0.2546
414.3564	0.2453
414.5614	0.2532
414.7664	0.251
414.9714	0.2545
415.1764	0.2587
415.3813	0.2428
415.5863	0.25
415.7912	0.2465
415.9961	0.2501
416.201	0.2474
416.4059	0.2483
416.6108	0.2416
416.8156	0.2467
417.0205	0.2455
417.2253	0.248
417.4301	0.2593
417.6349	0.2536
417.8397	0.2479
418.0445	0.2393
418.2492	0.2403
418.454	0.2384
418.6587	0.238
418.8634	0.2436
419.0681	0.241
419.2728	0.2464
419.4775	0.2424
419.6822	0.2433
419.8868	0.2428
420.0915	0.2315
420.2961	0.234
420.5007	0.2443
420.7053	0.2307
420.9099	0.2344
421.1144	0.2363
421.319	0.23
421.5235	0.2235
421.728	0.2436
421.9325	0.2326
422.137	0.2327
422.3415	0.2236
422.546	0.2304
422.7504	0.2262
422.9549	0.239
423.1593	0.2304
423.3637	0.2345
423.5681	0.2255
423.7725	0.2245
423.9769	0.2281
424.1812	0.2205
424.3856	0.215
424.5899	0.2211
424.7942	0.2227
424.9985	0.2226
425.2028	0.2173
425.4071	0.2161
425.6113	0.2198
425.8156	0.2151
426.0198	0.2195
426.224	0.2144
426.4282	0.208
426.6324	0.202
426.8366	0.2088
427.0407	0.2133
427.2449	0.2028
427.449	0.2073
427.6531	0.2135
427.8572	0.2072
428.0613	0.21
428.2654	0.2013
428.4694	0.1942
428.6735	0.1964
428.8775	0.1955
429.0815	0.1937
429.2855	0.1951
429.4895	0.2024
429.6935	0.1934
429.8975	0.1847
430.1014	0.1995
430.3053	0.1957
430.5093	0.1796
430.7132	0.1845
430.9171	0.175
431.1209	0.1899
431.3248	0.1678
431.5286	0.18
431.7325	0.1897
431.9363	0.1778
432.1401	0.1744
432.3439	0.1798
432.5477	0.1657
432.7514	0.1735
432.9552	0.1682
433.1589	0.1607
433.3627	0.1722
433.5664	0.1591
433.7701	0.1625
433.9737	0.1651
434.1774	0.1571
434.3811	0.1615
434.5847	0.1595
434.7883	0.1577
434.9919	0.1467
435.1955	0.1535
435.3991	0.1425
435.6027	0.1421
435.8062	0.1559
436.0098	0.1407
436.2133	0.1411
436.4168	0.1453
436.6203	0.1281
436.8238	0.1332
437.0272	0.1391
437.2307	0.127
437.4341	0.1313
437.6375	0.1299
437.841	0.1232
438.0443	0.1265
438.2477	0.1258
438.4511	0.1215
438.6545	0.1187
438.8578	0.1212
439.0611	0.1271
439.2644	0.1218
439.4677	0.1181
439.671	0.1087
439.8743	0.1164
440.0775	0.1081
440.2808	0.1094
440.484	0.1098
440.6872	0.118
440.8904	0.097
441.0936	0.1053
441.2967	0.0958
441.4999	0.094
441.703	0.0945
441.9062	0.107
442.1093	0.1112
442.3124	0.0911
442.5155	0.0976
442.7185	0.0924
442.9216	0.0912
443.1246	0.0933
443.3276	0.0893
443.5307	0.0823
443.7337	0.0877
443.9366	0.0816
444.1396	0.074
444.3426	0.0852
444.5455	0.0778
444.7484	0.0782
444.9513	0.0721
445.1542	0.0792
445.3571	0.0782
445.56	0.0645
445.7628	0.0717
445.9657	0.0795
446.1685	0.0733
446.3713	0.0771
446.5741	0.071
446.7769	0.0779
446.9797	0.0656
447.1824	0.0627
447.3852	0.0525
447.5879	0.0663
447.7906	0.0652
447.9933	0.0614
448.196	0.0564
448.3986	0.0567
448.6013	0.0485
448.8039	0.065
449.0066	0.0639
449.2092	0.0542
449.4118	0.053
449.6143	0.059
449.8169	0.0492
450.0195	0.0493
450.222	0.059
450.4245	0.0454
450.627	0.0497
450.8295	0.043
451.032	0.0483
451.2345	0.0443
451.4369	0.0428
451.6394	0.0437
451.8418	0.0492
452.0442	0.0447
452.2466	0.0392
452.449	0.0462
452.6513	0.0335
452.8537	0.0311
453.056	0.0365
453.2583	0.0422
453.4607	0.0283
453.663	0.0414
453.8652	0.026
454.0675	0.0347
454.2697	0.0459
454.472	0.0254
454.6742	0.0353
454.8764	0.0427
455.0786	0.0245
455.2808	0.0232
455.4829	0.0267
455.6851	0.0281
455.8872	0.0172
456.0893	0.0291
456.2915	0.0276
456.4935	0.0302
456.6956	0.0305
456.8977	0.0165
457.0997	0.0354
457.3018	0.029
457.5038	0.0251
457.7058	0.0238
457.9078	0.0235
458.1098	0.0249
458.3117	0.0336
458.5137	0.014
458.7156	0.0306
458.9175	0.0341
459.1194	0.0155
459.3213	0.0125
459.5232	0.0278
459.725	0.0192
459.9269	0.0254
460.1287	0.0156
460.3305	0.0221
460.5323	0.0207
460.7341	0.0273
460.9359	0.018
461.1376	0.02
461.3394	0.018
461.5411	0.0237
461.7428	0.0183
461.9445	0.0186
462.1462	0.0095
462.3479	0.0135
462.5495	0.024
462.7512	0.0303
462.9528	0.02
463.1544	0.0229
463.356	0.0123
463.5576	0.0273
463.7592	0.016
463.9607	0.0144
464.1623	0.0131
464.3638	0.0059
464.5653	0.0141
464.7668	0.0184
464.9683	0.0143
465.1697	0.0088
465.3712	0.0096
465.5726	0.0094
465.7741	0.0188
465.9755	0.0159
466.1769	0.0052
466.3782	0.0137
466.5796	0.0143
466.7809	0.0167
466.9823	0.0054
467.1836	0.0137
467.3849	0.0109
467.5862	0.0049
467.7875	0.009
467.9887	0.019
468.19	-0.0051
468.3912	0.0113
468.5924	0.0017
468.7936	0.0067
468.9948	0.0046
469.196	0.0098
469.3972	0.0004
469.5983	0.0044
469.7994	0.0066
470.0006	0.0057
470.2017	0.0139
470.4027	0.0156
470.6038	0.0145
470.8049	0.0074
471.0059	0.0196
471.2069	0.0049
471.408	0.014
471.6089	0.0123
471.8099	0.0039
472.0109	0.0102
472.2119	0.0221
472.4128	0.0091
472.6137	0.0152
472.8146	0.0087
473.0155	0.0143
473.2164	0.004
473.4173	0.0005
473.6181	0.0022
473.819	0.0083
474.0198	0.0059
474.2206	-0.0005
474.4214	0.0199
474.6222	-0.0059
474.8229	0.0036
475.0237	0.0099
475.2244	0.0151
475.4251	0.0033
475.6258	-0.0026
475.8265	0.0065
476.0272	-0.0002
476.2278	0.0091
476.4285	0.0004
476.6291	0.0056
476.8297	0.0144
477.0303	0.0066
477.2309	0.0037
477.4315	0.01
477.632	-0.0042
477.8326	0.0026
478.0331	0.0066
478.2336	0.0117
478.4341	0.0158
478.6346	-0.0005
478.8351	0.0038
479.0355	0.012
479.236	0.0181
479.4364	0.0113
479.6368	0.0013
479.8372	0.0109
480.0376	-0.0012
480.2379	0.0085
480.4383	0.0154
480.6386	-0.0026
480.8389	0.0103
481.0392	0.0072
481.2395	0.0156
481.4398	0.0135
481.6401	0.0064
481.8403	-0.0003
482.0405	0.0146
482.2408	0.0003
482.441	0.0124
482.6411	0.0086
482.8413	0.0047
483.0415	0.0118
483.2416	0.0043
483.4417	0.0099
483.6419	-0
483.8419	0.0005
484.042	0.0021
484.2421	-0.0022
484.4422	0.0071
484.6422	0.0052
484.8422	0.0026
485.0422	0.0051
485.2422	-0.0002
485.4422	0.0032
485.6422	0.0027
485.8421	0.0016
486.042	0.0134
486.242	0.0008
486.4419	0.0072
486.6417	0.0064
486.8416	0.0048
487.0415	0.0013
487.2413	-0.0051
487.4411	0.0047
487.641	0.0047
487.8408	0.0102
488.0405	0.0146
488.2403	-0.0042
488.4401	0.0001
488.6398	0.0065
488.8395	0.0038
489.0392	0.004
489.2389	0.0123
489.4386	-0.0002
489.6383	0.0139
489.8379	-0.0005
490.0376	0.0116
490.2372	0.0105
490.4368	-0
490.6364	-0.0043
490.836	-0.0011
491.0355	0.0012
491.2351	-0.0067
491.4346	0.0072
491.6341	-0
491.8336	0.0074
492.0331	0.0033
492.2326	0.0122
492.432	0.0043
492.6315	0.0181
492.8309	0.0052
493.0303	0.0035
493.2297	0.0123
493.4291	0.0041
493.6284	0.0182
493.8278	-0.0001
494.0271	0.0021
494.2264	-0.001
494.4257	0.0122
494.625	0.0039
494.8243	-0.0014
495.0236	0.0113
495.2228	0.0116
495.422	0.0084
495.6213	0.0101
495.8205	0.0061
496.0196	0.0098
496.2188	0.005
496.418	0.0112
496.6171	-0.0005
496.8162	0.0052
497.0153	0.0047
497.2144	0.007
497.4135	0.0026
497.6126	0.0006
497.8116	-0.0012
498.0107	0.0098
498.2097	0.011
498.4087	0.0031
498.6077	-0.003
498.8067	0.0034
499.0056	0.0112
499.2046	0.0152
499.4035	0.0116
499.6024	-0.0006
499.8013	0.013
500.0002	0.008
500.199	0.0099
500.3979	0.0057
500.5967	0.0107
500.7956	0.0197
500.9944	0.0016
501.1932	0.0083
501.3919	0.0066
501.5907	0.0166
501.7895	0.0103
501.9882	0.0112
502.1869	0.0153
502.3856	0.0085
502.5843	0.0107
502.783	-0.0015
502.9816	0.0045
503.1803	0.0088
503.3789	0.0138
503.5775	-0.001
503.7761	0.0021
503.9747	0.0083
504.1732	0.0013
504.3718	0.0155
504.5703	0.0007
504.7689	-0.0032
504.9674	0.002
505.1658	0.0033
505.3643	0.0105
505.5628	0.0125
505.7612	0.003
505.9597	-0.0001
506.1581	-0.0029
506.3565	-0.0003
506.5549	-0.0022
506.7532	-0.0011
506.9516	0.0086
507.1499	0.0103
507.3482	0.0037
507.5465	0.0068
507.7448	0.0151
507.9431	-0.0003
508.1414	-0.0029
508.3396	0.0045
508.5379	0.0026
508.7361	0.0123
508.9343	0.0149
509.1325	0.0107
509.3306	0.0073
509.5288	-0.002
509.7269	0.0051
509.9251	0.0153
510.1232	0.0021
510.3213	-0.0003
510.5193	0.0014
510.7174	0.004
510.9154	0.001
511.1135	0.0036
511.3115	0.0092
511.5095	0.0095
511.7075	-0.0006
511.9055	0.0048
512.1034	0.0002
512.3014	0.0047
512.4993	0.0079
512.6972	-0.0012
512.8951	0.0062
513.093	0.0022
513.2908	0.0137
513.4887	0.0011
513.6865	0.0086
513.8844	0.0196
514.0822	0.0046
514.2799	0.0008
514.4777	0.0011
514.6755	0.0004
514.8732	0.0011
515.0709	0.0088
515.2687	-0.0031
515.4664	0.015
515.664	0.0127
515.8617	0.0053
516.0594	0.0141
516.257	0.0125
516.4546	0.0151
516.6522	0.0071
516.8498	-0.0004
517.0474	0.0103
517.2449	0.006
517.4425	0.0074
517.64	0.0083
517.8375	0.0092
518.035	0.0046
518.2325	-0.0007
518.43	0.0032
518.6274	0.0046
518.8249	-0.0021
519.0223	0.0118
519.2197	-0.0006
519.4171	-0.0037
519.6145	0.0123
519.8118	-0.0016
520.0092	-0.0015
520.2065	0.018
520.4038	0.0003
520.6011	0.0137
520.7984	0.0132
520.9956	0.0038
521.1929	0.0179
521.3901	0.0121
521.5874	0.0078
521.7846	0.0011
521.9818	-0.0012
522.1789	-0.0125
522.3761	0.0165
522.5732	-0.0029
522.7704	-0.0053
522.9675	-0.004
523.1646	-0.0018
523.3617	0.0126
523.5587	0.0068
523.7558	0.0076
523.9528	0.0022
524.1498	-0.0062
524.3468	0.0071
524.5438	0.0155
524.7408	0.0029
524.9378	0.0093
525.1347	0.0092
525.3316	0.0061
525.5285	-0.0024
525.7254	0.0119
525.9223	0.011
526.1192	0.0062
526.316	0.0103
526.5129	0.0112
526.7097	0.0027
526.9065	0.0191
527.1033	0.005
527.3	0.0103
527.4968	0.0084
527.6935	0.0021
527.8903	0.0035
528.087	0.0066
528.2837	0.0125
528.4804	0.0011
528.677	0.0032
528.8737	0.0095
529.0703	0.0102
529.2669	0.01
529.4635	-0.0027
529.6601	-0.0014
529.8567	-0.006
530.0532	0.0011
530.2498	0.0025
530.4463	-0.0072
530.6428	0.0067
530.8393	0.0173
531.0358	0.0017
531.2322	-0.0062
531.4287	0.0039
531.6251	-0.0032
531.8215	0.0079
532.0179	0.0108
532.2143	0.0069
532.4107	0.0078
532.607	0.004
532.8034	0
532.9997	-0.0027
533.196	-0.0041
533.3923	0.0086
533.5886	0.0105
533.7848	0.0051
533.9811	-0.0002
534.1773	0.0042
534.3735	0.0008
534.5697	0.0028
534.7659	0.0035
534.9621	0.0051
535.1582	0.0093
535.3544	0.0065
535.5505	0.0022
535.7466	-0.0005
535.9427	0.0017
536.1387	0.0051
536.3348	0.0037
536.5308	0.0026
536.7269	0.0034
536.9229	0.0102
537.1189	0.0146
537.3148	-0.0014
537.5108	0.0079
537.7068	0.0134
537.9027	-0.0021
538.0986	0.0003
538.2945	-0.0057
538.4904	-0.0012
538.6863	0.0008
538.8821	-0.0023
539.078	0.0068
539.2738	0.0071
539.4696	-0.0002
539.6654	0.0064
539.8611	0.005
540.0569	0.0005
540.2526	0.0106
540.4484	0.003
540.6441	0.0043
540.8398	0.0092
541.0355	0.0004
541.2311	0.0115
541.4268	0.0128
541.6224	0.009
541.818	-0.0012
542.0136	0.0072
542.2092	0.0158
542.4048	0.0087
542.6003	-0.0027
542.7959	0.0022
542.9914	0.0101
543.1869	0.0061
543.3824	0.0068
543.5779	0.0153
543.7734	0.0176
543.9688	0.0092
544.1642	0.0036
544.3596	0.0075
544.555	0.0043
544.7504	0.0084
544.9458	0.009
545.1411	0.0049
545.3365	0.0059
545.5318	-0.0047
545.7271	0.0065
545.9224	0.0006
546.1177	0.0104
546.3129	0.0146
546.5081	0.004
546.7034	0.0084
546.8986	0.0088
547.0938	0.01
547.289	0.0133
547.4841	0.0134
547.6793	0.0033
547.8744	0.0057
548.0695	0.0036
548.2646	0.005
548.4597	-0.0094
548.6548	0.0195
548.8498	0.012
549.0448	0.002
549.2399	0.0125
549.4349	0.0048
549.6298	0.0046
549.8248	-0.0002
550.0198	0.015
550.2147	0.006
550.4096	-0.0029
550.6045	0.0012
550.7994	0.0092
550.9943	0.0088
551.1892	-0.0111
551.384	0.0154
551.5788	0.0102
551.7737	0.0137
551.9685	0.0054
552.1632	0.0038
552.358	0.0075
552.5528	0.0055
552.7475	0.002
552.9422	0.0136
553.1369	0.0081
553.3316	0.0099
553.5263	0.0136
553.7209	0.0184
553.9156	0.0002
554.1102	-0.001
554.3048	-0.0021
554.4994	0.0099
554.694	0.0008
554.8885	0.0119
555.0831	0.0143
555.2776	0.0168
555.4721	0.0047
555.6666	0.0152
555.8611	0.0021
556.0555	-0.0084
556.25	0.0152
556.4444	-0.0028
556.6388	-0.0032
556.8332	0.0022
557.0276	0.0066
557.222	0.0035
557.4163	0.0049
557.6107	-0.0058
557.805	0.0087
557.9993	0.0118
558.1936	-0.0011
558.3879	0.0151
558.5821	-0.0073
558.7764	0.0048
558.9706	0.0057
559.1648	0.013
559.359	0.0019
559.5532	-0.0044
559.7473	0.0027
559.9415	0.0045
560.1356	0.0122
560.3297	-0.0003
560.5238	0.0112
560.7179	-0.0036
560.9119	0.0024
561.106	-0.0038
561.3	0.001
561.494	-0.0098
561.688	-0.0031
561.882	0.0057
562.076	0.006
562.2699	0.0133
562.4639	0.0199
562.6578	0.0148
562.8517	0.0054
563.0456	0.0047
563.2395	0.0026
563.4333	0.0048
563.6272	0.0069
563.821	-0.0034
564.0148	0.0006
564.2086	0.0042
564.4024	0.01
564.5961	0.0069
564.7899	0.0129
564.9836	-0.0064
565.1773	0.007
565.371	0.0009
565.5647	0.0116
565.7584	0.0156
565.952	0.0008
566.1456	0.01
566.3393	0.0029
566.5329	0.0007
566.7264	0.0084
566.92	0.0097
567.1136	0.0043
567.3071	-0.0017
567.5006	0.0115
567.6941	0.0079
567.8876	0.0042
568.0811	0.0181
568.2745	0.0038
568.468	0.0038
568.6614	0.0069
568.8548	0.0066
569.0482	0.0109
569.2416	0.0057
569.4349	0.0036
569.6283	0.0047
569.8216	0.0077
570.0149	0.0022
570.2082	0.011
570.4015	0.0055
570.5947	0.0058
570.788	0.0082
570.9812	0.0001
571.1744	0.0055
571.3676	0.0068
571.5608	0.0049
571.754	0.0134
571.9471	0.0036
572.1402	0.0054
572.3333	0.006
572.5264	0.0042
572.7195	0.0005
572.9126	0.0069
573.1057	0.0032
573.2987	0.0003
573.4917	0.0065
573.6847	0.0042
573.8777	0.0106
574.0707	0.0033
574.2636	0.0064
574.4566	-0.0006
574.6495	0.0045
574.8424	0.0064
575.0353	0.0107
575.2281	0.0085
575.421	0.0019
575.6138	0.0003
575.8067	0.0099
575.9995	0.0028
576.1923	0.0064
576.385	0.0051
576.5778	0.0086
576.7706	0.0051
576.9633	0.0042
577.156	-0.0032
577.3487	0.0051
577.5414	0.0045
577.734	0.0016
577.9267	0.0058
578.1193	0.0051
578.3119	0.0039
578.5045	0.0058
578.6971	-0.0008
578.8897	0.0045
579.0822	0.0071
579.2747	0.0054
579.4673	0.0032
579.6598	0.0078
579.8522	0.0026
580.0447	0.0068
580.2372	0.0088
580.4296	0.012
580.622	0.0001
580.8144	0.0058
581.0068	0.0042
581.1992	0.0029
581.3915	0.0001
581.5839	0.0052
581.7762	0.0027
581.9685	0.0025
582.1608	0.0036
582.353	0.001
582.5453	0.0049
582.7375	0.0112
582.9298	0.0046
583.122	0.0006
583.3142	0.0081
583.5063	0.0007
583.6985	-0.0008
583.8906	0.0015
584.0827	0.0029
584.2749	0.0048
584.4669	0.0033
584.659	0.0064
584.8511	0.0101
585.0431	0.0065
585.2352	0.0057
585.4272	0.0035
585.6192	0.004
585.8111	-0.0005
586.0031	0.0029
586.195	0.0036
586.387	0.0054
586.5789	0.0073
586.7708	0.0056
586.9627	0.0089
587.1545	0.0023
587.3464	0.0032
587.5382	0.0036
587.73	0.0101
587.9218	0.0048
588.1136	-0.0015
588.3053	0.0114
588.4971	0.0025
588.6888	0.0032
588.8805	0.0034
589.0722	0.0086
589.2639	0.01
589.4556	0.0063
589.6472	0.0049
589.8389	0.0036
590.0305	0.0044
590.2221	0.0099
590.4137	0.0079
590.6052	0.0033
590.7968	0.0062
590.9883	0.0027
591.1798	0.0053
591.3713	0.0048
591.5628	0.0099
591.7543	0.0087
591.9458	0.0002
592.1372	0.0113
592.3286	0
592.52	0.0055
592.7114	0.0031
592.9028	0.0087
593.0941	0.0061
593.2855	0.002
593.4768	0.0077
593.6681	0.0089
593.8594	0.0057
594.0506	0.0063
594.2419	0.001
594.4331	0.0037
594.6244	0.0008
594.8156	-0.0022
595.0067	0.0034
595.1979	-0.0014
595.3891	0.0045
595.5802	0.006
595.7713	0.0053
595.9624	0.0105
596.1535	0.0043
596.3446	0.0014
596.5357	0.0047
596.7267	0.0009
596.9177	-0.0003
597.1087	0.003
597.2997	0.0034
597.4907	0.0022
597.6817	0.0059
597.8726	0.0089
598.0635	0.0014
598.2544	0.0072
598.4453	0.0022
598.6362	0.0069
598.827	0.0035
599.0179	0.0068
599.2087	0.0076
599.3995	0.0043
599.5903	0.0051
599.7811	0.0093
599.9718	0.0007
600.1626	0.0048
600.3533	0.0005
600.544	0.0066
600.7347	0.0106
600.9254	0.0096
601.116	0.0045
601.3067	0.0007
601.4973	0.0056
601.6879	0.0078
601.8785	0.0067
602.0691	0.0075
602.2596	0.0117
602.4502	0.0094
602.6407	0.0046
602.8312	0.0049
603.0217	0.0079
603.2122	0.004
603.4027	0.0069
603.5931	0.0056
603.7835	0.0088
603.9739	0.0042
604.1643	0.0113
604.3547	0.0056
604.5451	0.0121
604.7354	-0.0015
604.9257	0.0011
605.116	0.0029
605.3063	0.0065
605.4966	0.0043
605.6869	0.0118
605.8771	0.0046
606.0673	0.0054
606.2575	0.004
606.4477	0.0099
606.6379	0.0032
606.8281	0.0101
607.0182	0.0045
607.2083	0.0048
607.3985	0.0027
607.5885	-0.001
607.7786	0.0088
607.9687	0.0058
608.1587	0.0072
608.3488	-0.0006
608.5388	-0.0015
608.7288	-0.0017
608.9187	0.008
609.1087	0.0066
609.2986	0.0027
609.4886	-0.0002
609.6785	-0.0002
609.8684	0.0036
610.0582	-0.0002
610.2481	-0.0017
610.4379	0.0106
610.6278	0.0004
610.8176	0.0105
611.0074	0.0068
611.1971	0.0002
611.3869	0.0036
611.5766	-0.0106
611.7664	0.0162
611.9561	0.0106
612.1458	0.0021
612.3354	0.0061
612.5251	0.0017
612.7147	0.0086
612.9044	0.0021
613.094	0.0038
613.2836	0.0074
613.4731	0.0029
613.6627	0.0084
613.8522	0.0018
614.0417	0.0149
614.2313	0.0031
614.4207	0.0054
614.6102	0.0082
614.7997	0.0132
614.9891	0.0022
615.1785	-0.0014
615.3679	0.0042
615.5573	0.0097
615.7467	0.0012
615.9361	0.0019
616.1254	0.0119
616.3147	0.0102
616.504	0.0027
616.6933	0.0051
616.8826	-0.0015
617.0718	0.0137
617.2611	-0.0011
617.4503	-0.0023
617.6395	0.0054
617.8287	0.0061
618.0179	0.0055
618.207	0.0142
618.3961	-0.0055
618.5853	0.0051
618.7744	0.0073
618.9634	0.0062
619.1525	0.0057
619.3416	-0.0007
619.5306	0.0096
619.7196	0.0144
619.9086	0.0027
620.0976	-0.0014
620.2866	0.0051
620.4755	-0.0024
620.6645	0.0135
620.8534	-0.0009
621.0423	-0.0058
621.2312	-0.0042
621.42	0.0029
621.6089	-0.0016
621.7977	0.0109
621.9865	0.0004
622.1753	0.003
622.3641	-0.0029
622.5529	0.0006
622.7416	-0.0008
622.9303	0.0025
623.1191	-0.0018
623.3078	0.0043
623.4964	0.0076
623.6851	0.0094
623.8737	0.0051
624.0624	-0.0058
624.251	0.0011
624.4396	0.0032
624.6282	0.0094
624.8167	0.0153
625.0053	0.0128
625.1938	-0.0012
625.3823	0.0051
625.5708	0
625.7593	0.002
625.9477	0.0109
626.1362	-0.0058
626.3246	0.009
626.513	0.0045
626.7014	0.0061
626.8898	0.0166
627.0781	0.0105
627.2665	0.0071
627.4548	0.0004
627.6431	0.0091
627.8314	0.0178
628.0197	0.0128
628.2079	0.0048
628.3962	0.004
628.5844	0.0064
628.7726	0.0098
628.9608	0.0091
629.1489	0.0093
629.3371	0.0137
629.5252	0.0061
629.7134	0.0072
629.9015	0.0185
630.0895	-0.0048
630.2776	0.0138
630.4657	0.0109
630.6537	0.0064
630.8417	-0.005
631.0297	-0.0014
631.2177	0.0048
631.4057	0.0064
631.5936	0.0046
631.7815	0.0169
631.9695	0.0143
632.1574	0.0061
632.3452	0.001
632.5331	0.0002
632.7209	0.0179
632.9088	-0.0064
633.0966	0.0341
633.2844	0.0131
633.4722	0.007
633.6599	0.0275
633.8477	0.0048
634.0354	0.0162
634.2231	0.0021
634.4108	0.0097
634.5985	-0.0036
634.7861	-0.0071
634.9738	-0.0169
635.1614	0.0093
635.349	0.0043
635.5366	0.0111
635.7242	0.0073
635.9117	0.0071
636.0993	0.0013
636.2868	0.0068
636.4743	0.0084
636.6618	-0.0032
636.8492	0.0141
637.0367	0.01
637.2241	-0.0017
637.4115	0.0252
637.5989	0.0213
637.7863	0.0273
637.9737	0.0103
638.161	0.0142
638.3484	-0.0138
638.5357	-0.0045
638.723	0.0219
638.9103	-0.0029
639.0975	0.0031
639.2848	0.0085
639.472	0.017
639.6592	-0.0128
639.8464	0.0093
640.0336	-0.0058
640.2208	-0.0073
640.4079	-0.0025
640.595	-0.0054
640.7821	0.0118
640.9692	-0.0104
641.1563	0.0211
641.3434	-0.0048
641.5304	0.016
641.7174	0.0113
641.9044	0.006
642.0914	0.0134
642.2784	-0.0039
642.4653	0.0058
642.6523	0.0127
642.8392	0.0014
643.0261	-0.0064
643.213	0.0144
643.3999	0.0227
643.5867	0.0045
643.7735	0.005
643.9604	0.022
644.1472	0.0031
644.3339	-0.0101
644.5207	-0.0018
644.7075	-0.0006
644.8942	0.0029
645.0809	0.0104
645.2676	-0.0048
645.4543	0.0054
645.6409	0.0091
645.8276	0.0018
646.0142	0.0127
646.2008	0.022
646.3874	-0.0054
646.574	0.0033
646.7605	-0.0099
646.9471	-0.0043
647.1336	-0.0183
647.3201	0.0171
647.5066	0.0036
647.6931	0.0091
647.8795	0.0147
648.0659	0.0193
648.2524	0.0239
648.4388	0.015
648.6252	0.0035
648.8115	0.0002
648.9979	0.0058
649.1842	0.0074
649.3705	0.0284
649.5568	-0.0199
649.7431	-0.0078
649.9294	-0.0026
650.1156	0.0003
650.3018	0.0154
650.488	0.0132
650.6742	0.0274
650.8604	0.0043
651.0466	-0.0031
651.2327	0.0048
651.4188	-0.0046
651.6049	0.0148
651.791	0.0065
651.9771	0.0042
652.1632	0.0075
652.3492	-0.0042
652.5352	0.0191
652.7212	0.014
652.9072	0.0023
653.0932	0.0074
653.2791	0.0149
653.465	0.006
653.651	0.0093
653.8369	0.0017
654.0227	0.0016
654.2086	0.0039
654.3944	0.0107
654.5803	-0.003
654.7661	0.0049
654.9519	-0.0005
655.1377	0.0001
655.3234	0.0001
655.5092	0.0001
655.6949	0.0001
655.8806	0.0001
656.0663	0.0001
656.2519	0.0001
656.4376	0.0001
656.6232	0.0001
656.8088	0.0001
656.9945	0.0001
657.18	0.0001
657.3656	0.0001
657.5511	0.0001
657.7367	0.0001
657.9222	0.0001
658.1077	0.0001
658.2932	0.0001
658.4786	0.0001
658.6641	0.0001
658.8495	0.0001
659.0349	0.0001
659.2203	0.0001
659.4057	0.0001
659.591	0.1449
659.7764	0.0293
659.9617	-0.0035
660.147	0.0071
660.3323	0.0134
660.5176	-0.0053
660.7028	-0.0128
660.888	0.0079
661.0733	0.019
661.2585	-0.0192
661.4436	-0.0028
661.6288	0.0249
661.8139	-0.0061
661.9991	-0.0088
662.1842	-0.0007
662.3693	0.011
662.5544	0.0152
662.7394	0.014
662.9245	0.0004
663.1095	-0.013
663.2945	0.0052
663.4795	0.0098
663.6644	-0.0004
663.8494	0.0004
664.0343	0.0091
664.2193	0.0004
664.4042	0.018
664.589	0.0151
664.7739	0.0083
664.9587	0.0086
665.1436	-0.0193
665.3284	0.0095
665.5132	-0.0039
665.698	0.007
665.8827	0.019
666.0675	0.002
666.2522	0.0117
666.4369	-0.0187
666.6216	0.0143
666.8063	-0.0112
666.9909	0.0012
667.1756	0.0045
667.3602	0.0024
667.5448	0.0252
667.7294	0.0111
667.9139	-0.0047
668.0985	0.0185
668.283	0.0008
668.4675	0.0232
668.652	0.0021
668.8365	-0.0009
669.0209	0.0291
669.2054	0.0014
669.3898	-0.0058
669.5742	0.0183
669.7586	0.0207
669.943	0.0112
670.1273	-0.0036
670.3117	0.0191
670.496	0.0152
670.6803	0.0072
670.8646	-0.0081
671.0488	0.0143
671.2331	-0.0134
671.4173	0.0016
671.6015	0.0058
671.7857	0.0098
671.9699	0.0106
672.1541	0.0006
672.3382	0.0016
672.5223	0.0246
672.7064	0.0005
672.8905	-0.0054
673.0746	0.0234
673.2587	0.0324
673.4427	0.0112
673.6267	0.0127
673.8107	0.0241
673.9947	0.003
674.1787	0.0159
674.3626	0.0204
674.5465	0.0293
674.7304	0.0005
674.9143	0.0034
675.0982	0.0139
675.2821	0.01
675.4659	-0.0063
675.6497	-0.0071
675.8335	-0.0105
676.0173	0.0085
676.2011	0.0181
676.3849	0.0084
676.5686	0.01
676.7523	0.0028
676.936	0.0043
677.1197	-0.0075
677.3034	0.0153
677.487	0.0029
677.6706	0.0097
677.8542	0.0069
678.0378	0.0068
678.2214	0.0006
678.405	-0.0072
678.5885	0.0046
678.772	0.0104
678.9555	0.0005
679.139	0.0028
679.3225	0.0269
679.5059	-0.0007
679.6894	-0.0018
679.8728	-0.0074
680.0562	-0.0005
680.2395	0.007
680.4229	0.0004
680.6062	0.0128
680.7896	-0.01
680.9729	0.0197
681.1562	0.0106
681.3394	0.0017
681.5227	0.006
681.7059	0.0225
681.8891	-0.0023
682.0723	0.0016
682.2555	0.0008
682.4387	-0.0015
682.6218	0.0094
682.805	0.0147
682.9881	0.0085
683.1712	0.0176
683.3542	0.0084
683.5373	-0.0161
683.7203	0.0061
683.9034	-0.0078
684.0864	0.003
684.2694	-0.0058
684.4523	0.0225
684.6353	0.0098
684.8182	-0.0088
685.0011	-0.0004
685.184	-0.0013
685.3669	0.0256
685.5498	-0.0139
685.7326	0.0035
685.9154	-0.0099
686.0982	0.0132
686.281	-0.0075
686.4638	0.0131
686.6465	0.0154
686.8293	-0.0072
687.012	0.0118
687.1947	0.0144
687.3774	0.0059
687.56	-0.003
687.7427	-0.0131
687.9253	-0.0234
688.1079	-0.0022
688.2905	-0.0088
688.4731	0.0212
688.6556	0.0095
688.8382	-0.0153
689.0207	-0.0041
689.2032	0.0226
689.3857	0.0009
689.5681	-0.0116
689.7506	0.0264
689.933	0.0051
690.1154	0.0237
690.2978	0.0012
690.4802	0.0239
690.6626	-0.0157
690.8449	0.027
691.0272	0.0062
691.2095	-0.0096
691.3918	0.0268
691.5741	0.0191
691.7563	0.0253
691.9386	0.0192
692.1208	0.0243
692.303	-0.0029
692.4852	-0.0051
692.6673	0.0072
692.8495	-0.0052
693.0316	0.0044
693.2137	0.0081
693.3958	0.0063
693.5778	-0.0002
693.7599	-0.0008
693.9419	-0.0108
694.1239	0.0259
694.3059	0.0151
694.4879	-0.0188
694.6699	0.0119
694.8518	0.0006
695.0337	0.0192
695.2157	0.0328
695.3975	-0.0015
695.5794	-0.0076
695.7613	-0.0196
695.9431	-0.0088
696.1249	0.0206
696.3067	0.0118
696.4885	0.0144
696.6703	-0.0017
696.852	-0.008
697.0337	0.0036
697.2154	0.0125
697.3971	0.0119
697.5788	0.0128
697.7605	0.0091
697.9421	0.01
698.1237	0.0201
698.3053	-0.0073
698.4869	0.0139
698.6685	-0.0079
698.85	0.0127
699.0315	-0.0122
699.213	0.0072
699.3945	-0.0079
699.576	0.0164
699.7575	0.0346
699.9389	-0.0064
700.1203	0.0164
700.3017	0.0025
700.4831	0.0571
700.6645	0.0162
700.8458	-0.0207
701.0271	0.0453
701.2084	0.0072
701.3897	0.0107
701.571	-0.0132
701.7523	-0.004
701.9335	0.0035
702.1147	0.0102
702.2959	-0.006
702.4771	0.0165
702.6583	0.0023
702.8394	-0.0105
703.0205	0.0088
703.2016	-0.0016
703.3827	-0.015
703.5638	0.0009
703.7449	0.0005
703.9259	0.0224
704.1069	-0.0023
704.2879	0.0033
704.4689	-0.0024
704.6499	0.0193
704.8308	0.0158
705.0117	0.038
705.1927	0.0377
705.3735	0.0163
705.5544	0.0162
705.7353	0.0048
705.9161	-0.0036
706.0969	0.0027
706.2777	0.0068
706.4585	-0.0028
706.6393	0.0323
706.82	0.013
707.0007	0.0021
707.1815	-0.0083
707.3621	0.0529
707.5428	0.0302
707.7235	0.017
707.9041	0.0156
708.0847	0.0179
708.2653	0.0361
708.4459	0.0162
708.6265	-0.0039
708.807	0.0001
708.9875	0.009
709.168	0.0091
709.3485	0.0116
709.529	-0.0023
709.7095	0.0053
709.8899	0.0134
710.0703	0.0137
710.2507	0.015
710.4311	-0.0177
710.6115	0.0243
710.7918	0.0031
710.9721	0.0057
711.1524	-0.0165
711.3327	-0.0247
711.513	0.007
711.6932	-0.0002
711.8735	0.0337
712.0537	-0.0162
712.2339	0.0133
712.4141	0.0308
712.5942	-0.0128
712.7744	0.0005
712.9545	0.034
713.1346	0.0069
713.3147	0.0144
713.4947	-0.007
713.6748	0.002
713.8548	0.0147
714.0348	0.0139
714.2148	-0.004
714.3948	0.0111
714.5748	0.0077
714.7547	0.0049
714.9346	0.0113
715.1145	-0.0061
715.2944	-0.0148
715.4743	0.0109
715.6541	-0.0092
715.834	0.0211
716.0138	0.0252
716.1936	0.0002
716.3733	-0.0043
716.5531	-0.0041
716.7328	0.0044
716.9126	0.0187
717.0923	-0.0172
717.2719	0.0254
717.4516	0.0037
717.6312	0.0025
717.8109	0.015
717.9905	0.0209
718.1701	0.0072
718.3496	0.0021
718.5292	-0.0095
718.7087	0.0243
718.8882	0.0327
719.0677	0.0227
719.2472	0.0107
719.4267	0.0281
719.6061	-0.0232
719.7856	0.0167
719.965	0.0087
720.1443	-0.0018
720.3237	0.0085
720.5031	0.0125
720.6824	0.0216
720.8617	-0.0167
721.041	0.03
721.2203	-0.0344
721.3995	-0.0119
721.5788	-0.0122
721.758	0.0043
721.9372	-0.0102
722.1164	0.0115
722.2956	-0.0149
722.4747	0.0203
722.6538	-0.0011
722.8329	0.0236
723.012	0.0101
723.1911	0.01
723.3702	0.037
723.5492	0.0058
723.7282	-0.0011
723.9072	0.0027
724.0862	0.0047
724.2652	0.0058
724.4441	0.0055
724.623	-0.001
724.8019	0.0103
724.9808	0.013
725.1597	0.0073
725.3385	0.0149
725.5174	0.0052
725.6962	0.0182
725.875	0.0139
726.0538	0.0033
726.2325	0.0184
726.4112	-0.0109
726.59	-0.006
726.7687	-0.0172
726.9474	0.0079
727.126	0.0378
727.3047	0.0232
727.4833	0.0104
727.6619	-0.0171
727.8405	-0.0053
728.0191	0.028
728.1976	0.0076
728.3762	-0.002
728.5547	-0.0253
728.7332	0.0206
728.9116	0.0087
729.0901	0.003
729.2686	-0.0042
729.447	0.0024
729.6254	-0.003
729.8038	0.0217
729.9821	-0.0187
730.1605	0.0148
730.3388	0.0075
730.5171	0.0106
730.6954	0.0026
730.8737	0.0196
731.0519	-0.0084
731.2302	0.0119
731.4084	-0.0073
731.5866	-0.0144
731.7648	0.008
731.9429	0.0203
732.1211	0.0022
732.2992	0.0062
732.4773	0.0061
732.6554	-0.0171
732.8335	0.0421
733.0115	0.0075
733.1896	-0.0118
733.3676	0.0249
733.5456	0.007
733.7235	-0.003
733.9015	0.0144
734.0794	-0.009
734.2574	-0.0156
734.4353	-0.0004
734.6131	0.0172
734.791	-0.0101
734.9689	-0.0058
735.1467	-0.0204
735.3245	0.011
735.5023	0.0252
735.68	0.0112
735.8578	-0.0052
736.0355	-0.0023
736.2132	0.0033
736.3909	0.0236
736.5686	-0.0074
736.7463	-0.0104
736.9239	0.0074
737.1015	0.0019
737.2791	-0.0018
737.4567	0.0106
737.6343	0.0037
737.8118	0.06
737.9894	-0.0002
738.1669	0.0058
738.3444	0.0292
738.5218	-0.0116
738.6993	0.0231
738.8767	0.0232
739.0541	0.0009
739.2315	0.0185
739.4089	0.012
739.5863	-0.0114
739.7636	-0.0104
739.9409	-0.0013
740.1182	0.0052
740.2955	0.0345
740.4728	-0.0193
740.65	-0.0086
740.8272	0.0037
741.0044	-0.024
741.1816	0.0167
741.3588	-0.0167
741.5359	-0.0431
741.7131	0.0146
741.8902	0.0158
742.0673	-0.0112
742.2444	0.0391
742.4214	0.0271
742.5985	-0.0073
742.7755	-0.0105
742.9525	-0.0107
743.1295	-0.0209
743.3064	0.0085
743.4834	0.0067
743.6603	0.0479
743.8372	-0.0612
744.0141	0.0353
744.191	-0.0159
744.3678	-0.0213
744.5446	0.0098
744.7215	0.0178
744.8982	0.0002
745.075	0.0499
745.2518	0.0149
745.4285	0.0235
745.6052	-0.0356
745.7819	-0.009
745.9586	-0.0016
746.1353	-0.0143
746.3119	0.0044
746.4885	0.0161
746.6651	0.0002
746.8417	0.0006
747.0183	0.0269
747.1948	0.005
747.3714	0.0082
747.5479	0.0209
747.7244	0.0146
747.9008	0.011
748.0773	0.0437
748.2537	0.0317
748.4301	0.0216
748.6065	0.0126
748.7829	-0.0297
748.9593	0.0059
749.1356	0.0106
749.3119	0.0203
749.4882	0.0031
749.6645	-0.0073
749.8408	0.0129
750.017	0.005
750.1933	-0.0204
750.3695	0.0074
750.5457	-0.0171
750.7218	-0.0134
750.898	-0.0144
751.0741	-0.0112
751.2502	0.0066
751.4263	-0.0071
751.6024	0.0011
751.7784	-0.0058
751.9545	0.0232
752.1305	0.0074
752.3065	-0.0026
752.4825	0.024
752.6584	-0.0022
752.8344	0.014
753.0103	-0.0049
753.1862	0.0139
753.3621	-0.0222
753.5379	-0.0058
753.7138	0.0025
753.8896	0.0119
754.0654	-0.0192
754.2412	0.0306
754.417	0.0289
754.5927	0.0133
754.7685	0.0056
754.9442	0.0041
755.1199	-0.0122
755.2956	0.014
755.4712	-0.0099
755.6469	-0.0002
755.8225	0.0038
755.9981	-0.0057
756.1736	-0.005
756.3492	0.0129
756.5248	0.0102
756.7003	-0.0006
756.8758	0.0033
757.0513	0.0062
757.2267	0.0175
757.4022	-0.0168
757.5776	0.0241
757.753	0.0122
757.9284	0.0032
758.1038	0.0305
758.2791	0.0214
758.4545	-0.0048
758.6298	0.0101
758.8051	0.0049
758.9803	0.002
759.1556	-0.0008
759.3308	-0.0119
759.506	-0.0054
759.6812	-0.002
759.8564	-0.002
760.0316	0.0011
760.2067	0.0279
760.3819	0.009
760.557	0.0041
760.732	0.0046
760.9071	0.0304
761.0821	-0.0134
761.2572	0.0284
761.4322	0.0043
761.6072	0.0032
761.7821	-0.0262
761.9571	0.0263
762.132	0.0055
762.3069	0.0143
762.4818	0.0059
762.6567	0.002
762.8316	0.0244
763.0064	0.0185
763.1812	-0.013
763.356	-0.0096
763.5308	0.0265
763.7055	-0.0082
763.8803	-0.0046
764.055	-0.0001
764.2297	-0.014
764.4044	0.0052
764.579	-0.0065
764.7537	0.0062
764.9283	0.0218
765.1029	0.0146
765.2775	0.028
765.4521	0.0115
765.6266	-0.0014
765.8011	0.0022
765.9756	-0.0049
766.1501	-0.0053
766.3246	-0.0048
766.4991	-0.0036
766.6735	0.0222
766.8479	0.0198
767.0223	-0.0063
767.1967	0.0461
767.371	0.0149
767.5454	0.0164
767.7197	0.0171
767.894	0.0046
768.0683	0.0219
768.2425	-0.0009
768.4168	-0.0022
768.591	-0.019
768.7652	-0.0132
768.9394	-0.0063
769.1135	0.0201
769.2877	0.0474
769.4618	0.0184
769.6359	0.0065
769.81	0.0199
769.984	0.0112
770.1581	0.0077
770.3321	0.0318
770.5061	-0.0139
770.6801	0.0144
770.8541	-0.0057
771.028	0.0352
771.202	0.0364
771.3759	-0.0102
771.5498	0.0261
771.7236	-0.0191
771.8975	0.0323
772.0713	0.0218
772.2451	-0.0003
772.4189	-0.0027
772.5927	-0.0267
772.7665	-0.0389
772.9402	0.0119
773.1139	-0.0074
773.2876	-0.0249
773.4613	0.0157
773.635	0.0246
773.8086	0.0306
773.9822	0.0186
774.1558	0.0306
774.3294	-0.0105
774.503	0.0122
774.6765	0.0365
774.8501	-0.0058
775.0236	0.0278
775.1971	0.0119
775.3705	0.0301
775.544	0.0362
775.7174	0.0361
775.8908	-0.0159
776.0642	0.0188
776.2376	-0.0038
776.4109	-0.014
776.5843	-0.0135
776.7576	-0.0393
776.9309	0.0235
777.1041	-0.0789
777.2774	0.0259
777.4506	0.0196
777.6238	0.0004
777.797	0.0401
777.9702	0.0436
778.1434	0.0084
778.3165	-0.0119
778.4896	-0.0227
778.6627	-0.0081
778.8358	-0.0332
779.0089	-0.011
779.1819	0.0308
779.3549	-0.0196
779.5279	-0.02
779.7009	0.006
779.8739	0.0036
780.0468	-0.0349
780.2197	-0.0161
780.3926	-0.0379
780.5655	0.0468
780.7384	-0.0074
780.9112	0.0054
781.0841	0.003
781.2569	0.0102
781.4297	-0.0066
781.6024	0.024
781.7752	0.0448
781.9479	0.0367
782.1206	0.0082
782.2933	0.0205
782.466	0.0132
782.6386	-0.0215
782.8113	0.0055
782.9839	0.0269
783.1565	0.0013
783.329	0.0049
783.5016	0.0066
783.6741	-0.0112
783.8466	0.0298
784.0191	-0.0004
784.1916	0.0027
784.3641	0.0104
784.5365	0.015
784.7089	0.0012
784.8813	0.069
785.0537	0.0271
785.2261	0.0085
785.3984	-0.0093
785.5707	0.004
785.743	0.0179
785.9153	0.0131
786.0876	-0.0348
786.2598	-0.0348
786.432	0.0086
786.6042	0.0574
786.7764	0.0125
786.9486	-0.0093
787.1207	0.0115
787.2928	0.0503
787.4649	0.0094
787.637	-0.0021
787.8091	0.0225
787.9811	0.0108
788.1532	-0.0144
788.3252	0.0055
788.4972	0.0436
788.6691	0.0163
788.8411	-0.0116
789.013	0.0149
789.1849	-0.0279
789.3568	0.0246
789.5287	0.0422
789.7005	-0.0034
789.8723	-0.0144
790.0442	0.0187
790.2159	0.0035
790.3877	0.0298
790.5595	0.0141
790.7312	-0.0267
790.9029	-0.0057
791.0746	-0.0018
791.2463	-0.0385
791.4179	0.0015
791.5896	-0.0112
791.7612	0.0446
791.9328	-0.0273
792.1044	0.0155
792.2759	-0.0797
792.4474	-0.0177
792.619	0.0028
792.7905	0.0203
792.9619	0.036
793.1334	0.054
793.3048	0.0711
793.4762	0.0598
793.6476	-0.0339
793.819	-0.0199
793.9904	0.0051
794.1617	-0.0102
794.333	0.0014
794.5043	0.0287
794.6756	-0.0117
794.8469	0.0189
795.0181	0.0028
795.1893	0.0103
795.3605	0.0569
795.5317	-0.0013
795.7029	-0.0186
795.874	-0.007
796.0452	0.0409
796.2163	0.007
796.3873	0.0356
796.5584	0.0955
796.7294	0.0066
796.9005	-0.0166
797.0715	0.0038
797.2425	0.1171
797.4134	0.036
797.5844	0.0792
797.7553	-0.0324
797.9262	0.0819
798.0971	0.051
798.2679	0.0042
798.4388	-0.029
798.6096	0.0102
798.7804	0.0676
798.9512	-0.011
799.122	-0.0292
799.2927	0.0414
799.4635	-0.1183
799.6342	-0.0752
799.8049	0.0118
799.9755	-0.0738
800.1462	0.0605
800.3168	0.0194
800.4874	-0.0508
800.658	-0.0082
800.8286	0.0229
800.9991	0.035
801.1696	-0.0276
801.3402	0.0542
801.5106	0.0643
801.6811	0.0171
801.8516	0.0757
802.022	-0.0085
802.1924	-0.0594
802.3628	0.0377
802.5332	0.0545
802.7035	0.0404
802.8739	-0.0641
803.0442	-0.0085
803.2145	0.1543
803.3847	0.0378
803.555	0.101
803.7252	-0.0384
803.8954	0.0073
804.0656	0.0287
804.2358	0.0469
804.4059	-0.0307
804.5761	-0.0086
804.7462	0.0095
804.9163	0.0649
805.0864	-0.0958
805.2564	-0.039
805.4264	-0.028
805.5965	0.0164
805.7665	-0.0084
805.9364	0.0085
806.1064	0.0422
806.2763	0.0557
806.4462	0.0041
806.6161	0.0083
806.786	-0.0163
806.9559	0.0183
807.1257	0.0276
807.2955	-0.0634
807.4653	-0.0283
807.6351	0.0958
807.8048	0.0652
807.9746	0.0506
808.1443	-0.0357
808.314	0.0123
808.4837	0.0949
808.6533	-0.0025
808.8229	-0.0131
808.9926	-0.0531
809.1622	0.0385
809.3317	-0.0227
809.5013	0.0138
809.6708	-0.0612
809.8403	0.0522
810.0098	0.0784
810.1793	0.0224
810.3488	-0.0362
810.5182	0.203
810.6876	-0.0011
810.857	-0.0164
811.0264	-0.0352
811.1958	0.172
811.3651	0.043
811.5344	0.0091
811.7037	0.1769
811.873	0.0755
812.0422	-0.0665
812.2115	0.0128
812.3807	-0.0147
812.5499	0.0419
812.7191	-0.0849
812.8882	-0.0406
813.0574	-0.0268
813.2265	0.0178
813.3956	0.0833
813.5646	0.1235
813.7337	-0.0337
813.9027	-0.125
814.0718	-0.0064
814.2407	0.1097
814.4097	0.0597
814.5787	0.1636
814.7476	0.045
814.9165	0.059
815.0854	0.0841
815.2543	0.0251
815.4232	0.1018
815.592	0.1465
815.7608	-0.0794
815.9296	0.0361
816.0984	0.1274
816.2671	-0.2399
816.4359	0.1068
816.6046	0.1621
816.7733	-0.0535
816.942	0.012
817.1106	0.0419
817.2793	-0.0454
817.4479	-0.006
817.6165	0.0121
817.785	0.0314
817.9536	0.0299
818.1221	0.0397
818.2906	-0.0754
818.4591	-0.0122
818.6276	-0.0158
818.7961	-0.0469
818.9645	0.0328
819.1329	0.1167
819.3013	-0.0412
819.4697	0.0935
819.638	-0.0492
819.8064	-0.0272
819.9747	0.1579
820.143	0.0179
820.3113	0.1867
820.4795	0.2384
820.6477	0.0819
820.816	0.2121
820.9842	0.0823
821.1523	0.0659
821.3205	-0.0379
821.4886	-0.0173
821.6567	0.0182
821.8248	0.1376
821.9929	-0.098
822.1609	-0.0183
822.329	0.045
822.497	0.0478
822.665	0.0989
822.833	0.0844
823.0009	-0.1685
823.1688	0.2175
823.3367	-0.1506
823.5046	-0.0405
823.6725	0.0285
823.8404	-0.0305
824.0082	0.0382
824.176	-0.0633
824.3438	0.2065
824.5116	0.0981
824.6793	0.109
824.847	-0.1811
825.0147	0.0191
825.1824	-0.0153
825.3501	-0.1201
825.5177	-0.0753
825.6854	-0.0501
825.853	0.0614
826.0206	-0.0197
826.1881	-0.0335
826.3557	-0.0881
826.5232	0.109
826.6907	0.1073
826.8582	0.1083
827.0257	0.1772
827.1931	0.1214
827.3605	-0.0316
827.528	-0.1277
827.6953	-0.0683
827.8627	-0.1383
828.03	0.0688
828.1974	-0.0372
828.3647	0.1117
828.532	0.0747
828.6992	0.1066
828.8665	-0.1936
829.0337	0.1986
829.2009	-0.103
829.3681	-0.0019
829.5352	-0.2795
829.7024	0.2335
829.8695	0.0672
830.0366	0.1771
830.2037	0.299
830.3707	0.0504
830.5378	-0.0246
830.7048	-0.2083
830.8718	0.4096
831.0388	0.0131
831.2057	-0.2092
831.3727	0.2364
831.5396	0.0592
831.7065	-0.6784
831.8734	-0
832.0402	0.2834
832.2071	-0
832.3739	0.2493
832.5407	-0.8539
832.7075	-0.1838
832.8742	0.825
833.041	0.3772
833.2077	0.5842
833.3744	0.3634
833.541	0.0618
833.7077	-0.0826
833.8743	0.2581
834.0409	0.1008
834.2075	0.2766
834.3741	-0.0312
834.5407	0.0225
834.7072	-0.0141
834.8737	0.4521
835.0402	0.4894
835.2067	-0.0231
835.3731	-0.0189
835.5395	0.0444
835.706	-0.1045
835.8723	-0.1425
836.0387	0.2386
836.2051	0.3458
836.3714	0.6839
836.5377	-0.0634
836.704	0.2714
836.8703	-0.2227
837.0365	0.0898
837.2027	0.0033
837.3689	-0.0274
837.5351	0.9411
837.7013	0.1598
837.8674	-0.015
838.0335	0.0461
838.1997	0.0289
838.3657	0.2027
838.5318	-0
838.6978	-0
838.8639	-0.4225
839.0299	-0.1842
839.1958	0.0828
839.3618	0.1481
839.5277	0.2112
839.6937	0.2012
839.8596	-0.3063
840.0254	0.0035
840.1913	-0.2642
840.3571	0.4046
840.523	-0
840.6888	-0.1477
840.8545	-0.5098
841.0203	0.0022
841.186	-0.0327
841.3517	0.1099
841.5174	0.5712
841.6831	-0.035
841.8488	-0.186
842.0144	-0.2092
842.18	0.4591
842.3456	-0.0811
842.5112	-1.403
842.6767	-0.0383
842.8422	0.0144
843.0077	-0.0669
843.1732	-0.665
843.3387	2.2911
843.5042	-0
843.6696	0.2214
843.835	-0.2476
844.0004	-0.321
844.1657	-0
844.3311	-0
844.4964	-0.3256
844.6617	0.6239
844.827	-0
844.9923	0.1517
845.1575	0.4138
845.3227	-0.301
845.4879	-0.1555
845.6531	0.2597
845.8183	0.0324
845.9834	1.0675
846.1485	0.277
846.3136	-0.3397
846.4787	-0
846.6438	1.1772
846.8088	-0.0524
846.9738	-0.8183
847.1388	-0.0908
847.3038	0.6382
847.4687	0.3071
847.6337	-0
847.7986	-0
847.9635	-0.0268
848.1284	-0
848.2932	0.0998
848.458	-1.1461
848.6228	0.2376
848.7876	-0
848.9524	0.2777
849.1172	-1.6173
849.2819	-0
849.4466	0.2619
849.6113	0.3642
849.7759	-0.812
849.9406	0.6321
850.1052	-1.1653
850.2698	0.9777
850.4344	-0.6663
850.599	0.1346
850.7635	-0.0681
850.928	0.2785
851.0925	0.3022
851.257	0.3321
851.4215	0.3046
851.5859	0.1321
851.7503	-0
851.9147	-0
852.0791	0.0895
852.2434	0.6147
852.4078	-0
852.5721	0.558
852.7364	0.0488
852.9007	0.0502
853.0649	-0
853.2291	-0.0734
853.3934	-0
853.5575	-0.0396
853.7217	0.5851
853.8859	-0
854.05	-0.2756
854.2141	-0
854.3782	0.1733
854.5423	-0.2046
854.7063	-0
854.8703	-0
855.0343	-0.2313
855.1983	-0
855.3623	-0.0049
855.5262	-0
855.6901	0.9995
855.854	0.0663
856.0179	0.8209
856.1818	0.0242
856.3456	0.6156
856.5094	-0.6125
856.6732	-0.4834
856.837	-1.1917
857.0008	-0
857.1645	-0
857.3282	-0.3823
857.4919	0.0033
857.6556	-0
857.8192	-0.3478
857.9828	0.0657
858.1465	-0.0884
858.31	-0
858.4736	-0.1535
858.6372	-0
858.8007	0.074
858.9642	0.7272
859.1277	1.348
859.2911	-0
859.4546	-0
859.618	0.7219
859.7814	-0
859.9448	-0.3386
860.1081	-0.3887
860.2715	-1.3536
860.4348	0.0054
860.5981	0.1502
860.7614	-0.0213
860.9246	0.1253
861.0879	-0
861.2511	-0
861.4143	-0
861.5774	-0.2737
861.7406	-0
861.9037	-0
862.0668	-0.346
862.2299	0.4939
862.393	-0.4734
862.556	0.0159
862.7191	-0.2869
862.8821	0.5109
863.0451	0.0289
863.208	-0.4819
863.371	-0
863.5339	0.2097
863.6968	-0
863.8597	-0
864.0225	-0
864.1854	-0
864.3482	-0.55
864.511	-0.1424
864.6737	-0
864.8365	0.0037
864.9992	-0
865.1619	-0.2869
865.3246	-1.7193
865.4873	-0.8118
865.65	0.0392
865.8126	0.2084
865.9752	0.2712
866.1378	0.0857
866.3004	-0.114
866.4629	-1.5798
866.6254	0.0567
866.7879	0.1049
866.9504	0.4342
867.1129	-0
867.2753	0.315
867.4377	0.2214
867.6001	-0.3723
867.7625	-0.0852
867.9249	-0
868.0872	-0
868.2495	-0
868.4118	-0
868.5741	-0
868.7363	-0
868.8986	-0.5639
869.0608	-0.3402
869.223	-0.3465
869.3851	-0
869.5473	0.0397
869.7094	-0.104
869.8715	-0.9106
870.0336	0.0248
870.1957	-0
870.3577	1.0317
870.5197	-0.1473
870.6817	-0.6313
870.8437	0.3427
871.0057	-0
871.1676	0.4137
871.3295	-0
871.4914	-0
871.6533	-0
871.8151	0.1674
871.977	-0.481
872.1388	0.244
872.3006	-0.6573
872.4623	0.1052
872.6241	-0
872.7858	0.1398
872.9475	-0
873.1092	0.1849
873.2709	0.2808
873.4325	-1.4688
873.5941	-0
873.7557	-0
873.9173	-0
874.0789	0.5869
874.2404	-0
874.4019	0.3349
874.5634	-0
874.7249	-0
874.8863	-0
875.0478	-0.3269
875.2092	0.597
875.3706	0.3254
875.5319	-0
875.6933	0.0357
875.8546	-0
876.0159	0.407
876.1772	0.3617
876.3385	-0
876.4997	0.7094
876.6609	-0
876.8221	-0
876.9833	0.5847
877.1445	0.4398
877.3056	-0.8704
877.4667	-0
877.6278	-0
877.7889	0.0689
877.9499	-0
878.111	-0.2859
878.272	0.4794
878.433	1.0368
878.5939	-0.1168
878.7549	-0
878.9158	-0
879.0767	0.6036
879.2376	-0
879.3984	-0
879.5593	0.2433
879.7201	-0
879.8809	-0
880.0417	0.1009
880.2024	0.5262
880.3632	-0.3194
880.5239	-0.0589
880.6846	0.5979
880.8452	-0.1906
881.0059	-0.8225
881.1665	0.2342
881.3271	0.3967
881.4877	0.3305
881.6483	-1.1461
881.8088	-0
881.9693	-0
882.1298	-0
882.2903	-0
