Data from D4ACN5uM440nmA_Absorbance_13-50-25-522.txt Node
Date: Fri Feb 21 13:50:25 GMT 2025
User: LASERRRRR
Spectrometer: FLMT03099
Trigger mode: 0
Integration Time (sec): 1.500000E-2
Scans to average: 1
Electric dark correction enabled: true
Nonlinearity correction enabled: false
Boxcar width: 0
XAxis mode: Wavelengths
Number of Pixels in Spectrum: 3648
>>>>>Begin Spectral Data<<<<<
179.3399	-0.5253
179.5586	-0.5253
179.7771	-0.5253
179.9957	0.2975
180.2143	-1.5441
180.4329	0.7768
180.6514	-0
180.8699	0.9706
181.0885	-0
181.307	0.0994
181.5255	0.0281
181.744	-0
181.9625	0.353
182.181	0.0423
182.3994	0.3795
182.6179	0.1555
182.8363	0.6004
183.0547	0.5377
183.2732	0.1549
183.4916	0.209
183.71	0.0971
183.9284	-0.0034
184.1467	-0.0826
184.3651	-0.081
184.5835	0.0948
184.8018	0.2091
185.0201	-0.011
185.2385	0.395
185.4568	0.1507
185.6751	0.1772
185.8934	0.2275
186.1117	-0.1646
186.3299	0.1527
186.5482	0.1827
186.7664	0.0837
186.9847	-0.0263
187.2029	0.3261
187.4211	-0.0849
187.6393	0.2696
187.8575	0.219
188.0757	0.1564
188.2939	0.1798
188.512	0.145
188.7302	0.1006
188.9483	0.5402
189.1665	0.2613
189.3846	0.1526
189.6027	0.0767
189.8208	0.1731
190.0389	0.2482
190.257	0.0103
190.475	-0.0605
190.6931	0.0928
190.9111	0.0639
191.1292	0.1117
191.3472	0.2192
191.5652	0.0775
191.7832	0.2476
192.0012	0.0893
192.2192	0.033
192.4371	0.1694
192.6551	0.1152
192.873	0.1412
193.091	0.1908
193.3089	0.2105
193.5268	0.2667
193.7447	0.2037
193.9626	0.1304
194.1805	0.2252
194.3984	0.1924
194.6162	0.2783
194.8341	0.1553
195.0519	0.1632
195.2697	0.3199
195.4875	0.2672
195.7054	0.2847
195.9231	0.2918
196.1409	0.3206
196.3587	0.3471
196.5765	0.2703
196.7942	0.3133
197.012	0.3015
197.2297	0.2878
197.4474	0.3088
197.6651	0.3323
197.8828	0.2781
198.1005	0.4443
198.3182	0.4004
198.5358	0.3474
198.7535	0.3846
198.9711	0.3591
199.1888	0.3515
199.4064	0.379
199.624	0.4178
199.8416	0.3888
200.0592	0.3959
200.2767	0.3963
200.4943	0.4598
200.7119	0.379
200.9294	0.4001
201.1469	0.4035
201.3645	0.4711
201.582	0.4063
201.7995	0.4164
202.017	0.4134
202.2344	0.3897
202.4519	0.3565
202.6694	0.3761
202.8868	0.3794
203.1042	0.4252
203.3217	0.3533
203.5391	0.3564
203.7565	0.3561
203.9739	0.361
204.1913	0.3332
204.4086	0.3664
204.626	0.3529
204.8433	0.3509
205.0607	0.3087
205.278	0.3608
205.4953	0.3148
205.7126	0.3348
205.9299	0.3007
206.1472	0.3169
206.3644	0.3326
206.5817	0.3045
206.7989	0.3324
207.0162	0.2837
207.2334	0.3276
207.4506	0.2811
207.6678	0.3158
207.885	0.276
208.1022	0.3066
208.3194	0.2723
208.5365	0.3041
208.7537	0.291
208.9708	0.2901
209.1879	0.2769
209.405	0.2584
209.6222	0.2671
209.8392	0.3114
210.0563	0.2794
210.2734	0.2808
210.4905	0.2532
210.7075	0.251
210.9245	0.2447
211.1416	0.2709
211.3586	0.2541
211.5756	0.2372
211.7926	0.2608
212.0096	0.2623
212.2265	0.2538
212.4435	0.2409
212.6604	0.2439
212.8774	0.2377
213.0943	0.2413
213.3112	0.2294
213.5281	0.2484
213.745	0.2212
213.9619	0.2321
214.1788	0.269
214.3956	0.2395
214.6125	0.2418
214.8293	0.2491
215.0461	0.2401
215.2629	0.2432
215.4798	0.2365
215.6965	0.2268
215.9133	0.2493
216.1301	0.258
216.3469	0.2395
216.5636	0.2467
216.7803	0.2576
216.9971	0.2627
217.2138	0.2496
217.4305	0.242
217.6472	0.2234
217.8639	0.2705
218.0805	0.247
218.2972	0.2474
218.5138	0.2549
218.7305	0.2627
218.9471	0.2487
219.1637	0.2699
219.3803	0.262
219.5969	0.2495
219.8135	0.2505
220.0301	0.2702
220.2466	0.2446
220.4632	0.2457
220.6797	0.2515
220.8962	0.2485
221.1127	0.2535
221.3292	0.2592
221.5457	0.2682
221.7622	0.2662
221.9787	0.2795
222.1951	0.2672
222.4116	0.2746
222.628	0.2749
222.8444	0.2625
223.0608	0.2693
223.2772	0.2864
223.4936	0.2802
223.71	0.2827
223.9264	0.2865
224.1427	0.2878
224.3591	0.2876
224.5754	0.2901
224.7917	0.2913
225.008	0.2879
225.2243	0.298
225.4406	0.292
225.6569	0.3194
225.8732	0.3098
226.0894	0.3019
226.3057	0.3104
226.5219	0.3109
226.7381	0.3193
226.9543	0.3178
227.1705	0.3106
227.3867	0.3173
227.6029	0.3222
227.8191	0.3342
228.0352	0.3429
228.2513	0.3378
228.4675	0.3379
228.6836	0.3439
228.8997	0.3401
229.1158	0.348
229.3319	0.3543
229.548	0.3514
229.764	0.3474
229.9801	0.3672
230.1961	0.3676
230.4121	0.356
230.6282	0.3788
230.8442	0.376
231.0602	0.3831
231.2761	0.3837
231.4921	0.3873
231.7081	0.3948
231.924	0.3986
232.14	0.4056
232.3559	0.397
232.5718	0.4107
232.7877	0.4087
233.0036	0.4089
233.2195	0.4102
233.4353	0.4173
233.6512	0.4224
233.867	0.4083
234.0829	0.4262
234.2987	0.4132
234.5145	0.4255
234.7303	0.4425
234.9461	0.4284
235.1619	0.433
235.3776	0.4325
235.5934	0.4293
235.8091	0.4438
236.0249	0.4389
236.2406	0.4418
236.4563	0.4453
236.672	0.4339
236.8877	0.4541
237.1034	0.4369
237.319	0.4479
237.5347	0.4504
237.7503	0.443
237.966	0.4635
238.1816	0.4475
238.3972	0.4597
238.6128	0.4613
238.8284	0.4544
239.0439	0.4495
239.2595	0.4523
239.475	0.4509
239.6906	0.4434
239.9061	0.4639
240.1216	0.4534
240.3371	0.4629
240.5526	0.4666
240.7681	0.4608
240.9836	0.4509
241.199	0.4489
241.4145	0.4457
241.6299	0.4524
241.8453	0.439
242.0607	0.435
242.2761	0.4374
242.4915	0.4265
242.7069	0.4126
242.9223	0.4194
243.1376	0.412
243.353	0.3981
243.5683	0.3942
243.7836	0.3895
243.9989	0.3793
244.2142	0.3687
244.4295	0.3709
244.6448	0.3705
244.86	0.3472
245.0753	0.348
245.2905	0.3409
245.5057	0.3332
245.721	0.3311
245.9362	0.3294
246.1514	0.3215
246.3665	0.3132
246.5817	0.3022
246.7969	0.2967
247.012	0.2948
247.2271	0.302
247.4423	0.2881
247.6574	0.2868
247.8725	0.2744
248.0876	0.2757
248.3026	0.2677
248.5177	0.2558
248.7328	0.2509
248.9478	0.2491
249.1628	0.2489
249.3779	0.2407
249.5929	0.2393
249.8079	0.236
250.0228	0.2254
250.2378	0.2269
250.4528	0.2326
250.6677	0.2243
250.8827	0.2189
251.0976	0.2164
251.3125	0.2168
251.5274	0.2087
251.7423	0.2058
251.9572	0.2057
252.172	0.2066
252.3869	0.2023
252.6017	0.196
252.8166	0.1961
253.0314	0.1952
253.2462	0.1946
253.461	0.1929
253.6758	0.1913
253.8906	0.1956
254.1053	0.1989
254.3201	0.1967
254.5348	0.1839
254.7496	0.1815
254.9643	0.194
255.179	0.1881
255.3937	0.1925
255.6083	0.191
255.823	0.1874
256.0377	0.1817
256.2523	0.1837
256.467	0.1813
256.6816	0.1824
256.8962	0.1793
257.1108	0.1791
257.3254	0.183
257.54	0.1755
257.7545	0.1858
257.9691	0.1809
258.1836	0.1735
258.3981	0.1832
258.6127	0.1785
258.8272	0.1828
259.0417	0.1771
259.2561	0.1767
259.4706	0.1753
259.6851	0.1775
259.8995	0.1781
260.114	0.1773
260.3284	0.1727
260.5428	0.1731
260.7572	0.1771
260.9716	0.183
261.186	0.1748
261.4003	0.1717
261.6147	0.1741
261.829	0.1677
262.0433	0.1753
262.2577	0.174
262.472	0.1761
262.6863	0.1821
262.9005	0.1732
263.1148	0.1724
263.3291	0.1789
263.5433	0.1805
263.7576	0.1756
263.9718	0.1791
264.186	0.1779
264.4002	0.1769
264.6144	0.187
264.8286	0.181
265.0427	0.1851
265.2569	0.1879
265.471	0.1805
265.6851	0.1834
265.8993	0.18
266.1134	0.1788
266.3275	0.1767
266.5415	0.1855
266.7556	0.1847
266.9697	0.184
267.1837	0.1792
267.3978	0.1835
267.6118	0.1773
267.8258	0.1826
268.0398	0.1801
268.2538	0.1872
268.4677	0.1783
268.6817	0.1771
268.8957	0.1758
269.1096	0.1706
269.3235	0.1797
269.5374	0.1825
269.7514	0.1746
269.9652	0.1791
270.1791	0.1686
270.393	0.1792
270.6068	0.1772
270.8207	0.176
271.0345	0.1711
271.2483	0.1689
271.4622	0.1729
271.676	0.1739
271.8897	0.1755
272.1035	0.1766
272.3173	0.1713
272.531	0.1724
272.7448	0.177
272.9585	0.1683
273.1722	0.1681
273.3859	0.1678
273.5996	0.1759
273.8133	0.1702
274.0269	0.1718
274.2406	0.1728
274.4542	0.1724
274.6679	0.1768
274.8815	0.1795
275.0951	0.1817
275.3087	0.1761
275.5223	0.1739
275.7358	0.1792
275.9494	0.1802
276.1629	0.1807
276.3765	0.1787
276.59	0.1773
276.8035	0.1811
277.017	0.1866
277.2305	0.1827
277.444	0.186
277.6574	0.1804
277.8709	0.1932
278.0843	0.1848
278.2978	0.1846
278.5112	0.1854
278.7246	0.1813
278.938	0.1816
279.1513	0.1882
279.3647	0.184
279.5781	0.1861
279.7914	0.1857
280.0047	0.1866
280.2181	0.1824
280.4314	0.1805
280.6447	0.1873
280.8579	0.1803
281.0712	0.1815
281.2845	0.1823
281.4977	0.1858
281.711	0.1772
281.9242	0.185
282.1374	0.1859
282.3506	0.1846
282.5638	0.1801
282.7769	0.1792
282.9901	0.1806
283.2033	0.1821
283.4164	0.1856
283.6295	0.1814
283.8426	0.1803
284.0557	0.1887
284.2688	0.1845
284.4819	0.1828
284.695	0.186
284.908	0.1801
285.1211	0.1838
285.3341	0.1795
285.5471	0.1905
285.7601	0.189
285.9731	0.1864
286.1861	0.1878
286.3991	0.1916
286.612	0.1855
286.825	0.189
287.0379	0.1888
287.2508	0.1889
287.4637	0.189
287.6766	0.1864
287.8895	0.1858
288.1024	0.1944
288.3152	0.1907
288.5281	0.1806
288.7409	0.1897
288.9538	0.1895
289.1666	0.1838
289.3794	0.1852
289.5922	0.1842
289.8049	0.1917
290.0177	0.1882
290.2304	0.1917
290.4432	0.1929
290.6559	0.1933
290.8686	0.1849
291.0813	0.1862
291.294	0.187
291.5067	0.1916
291.7194	0.1937
291.932	0.1891
292.1447	0.1868
292.3573	0.1883
292.5699	0.1908
292.7825	0.1862
292.9951	0.1898
293.2077	0.1851
293.4203	0.1919
293.6328	0.1856
293.8454	0.1922
294.0579	0.1828
294.2704	0.1926
294.4829	0.1867
294.6954	0.1902
294.9079	0.192
295.1204	0.1898
295.3328	0.1926
295.5453	0.1915
295.7577	0.1923
295.9701	0.1841
296.1825	0.1955
296.3949	0.1835
296.6073	0.1922
296.8197	0.1907
297.0321	0.1902
297.2444	0.1866
297.4567	0.19
297.6691	0.192
297.8814	0.1878
298.0937	0.185
298.306	0.1866
298.5182	0.1914
298.7305	0.1859
298.9428	0.1891
299.155	0.184
299.3672	0.1887
299.5794	0.1879
299.7916	0.1869
300.0038	0.187
300.216	0.19
300.4282	0.189
300.6403	0.1901
300.8525	0.1913
301.0646	0.1926
301.2767	0.1853
301.4888	0.19
301.7009	0.1909
301.913	0.1852
302.125	0.188
302.3371	0.1884
302.5491	0.1914
302.7612	0.1972
302.9732	0.1907
303.1852	0.1957
303.3972	0.1906
303.6092	0.1864
303.8211	0.185
304.0331	0.1881
304.245	0.1904
304.457	0.1872
304.6689	0.1846
304.8808	0.1879
305.0927	0.187
305.3046	0.1838
305.5164	0.1803
305.7283	0.1865
305.9401	0.1738
306.152	0.1803
306.3638	0.1813
306.5756	0.176
306.7874	0.1765
306.9992	0.1717
307.2109	0.175
307.4227	0.1737
307.6344	0.1748
307.8462	0.1721
308.0579	0.1771
308.2696	0.1662
308.4813	0.163
308.693	0.1632
308.9046	0.1684
309.1163	0.1608
309.328	0.1634
309.5396	0.1503
309.7512	0.1484
309.9628	0.1557
310.1744	0.1479
310.386	0.1505
310.5976	0.1494
310.8091	0.1504
311.0207	0.1499
311.2322	0.1421
311.4437	0.1421
311.6552	0.1454
311.8667	0.1412
312.0782	0.1404
312.2897	0.1401
312.5012	0.1368
312.7126	0.1336
312.924	0.1384
313.1355	0.1399
313.3469	0.1331
313.5583	0.1319
313.7696	0.131
313.981	0.1395
314.1924	0.1343
314.4037	0.133
314.6151	0.129
314.8264	0.1366
315.0377	0.1312
315.249	0.1377
315.4603	0.1306
315.6716	0.1308
315.8828	0.1245
316.0941	0.1287
316.3053	0.1215
316.5165	0.1312
316.7277	0.127
316.9389	0.1256
317.1501	0.131
317.3613	0.1224
317.5724	0.1228
317.7836	0.1201
317.9947	0.1268
318.2058	0.1239
318.417	0.1241
318.6281	0.1193
318.8391	0.1244
319.0502	0.1281
319.2613	0.1232
319.4723	0.1264
319.6834	0.1221
319.8944	0.1221
320.1054	0.1283
320.3164	0.1189
320.5274	0.1247
320.7383	0.1249
320.9493	0.1251
321.1602	0.126
321.3712	0.1198
321.5821	0.1199
321.793	0.1326
322.0039	0.127
322.2148	0.126
322.4257	0.12
322.6365	0.1241
322.8474	0.1293
323.0582	0.1294
323.269	0.1204
323.4798	0.1338
323.6906	0.1236
323.9014	0.1262
324.1122	0.122
324.3229	0.1314
324.5337	0.1298
324.7444	0.128
324.9551	0.1289
325.1658	0.1291
325.3765	0.1276
325.5872	0.1343
325.7979	0.127
326.0085	0.1258
326.2192	0.1243
326.4298	0.131
326.6404	0.1377
326.851	0.1243
327.0616	0.1305
327.2722	0.1303
327.4828	0.1338
327.6933	0.137
327.9039	0.1346
328.1144	0.1355
328.3249	0.1348
328.5354	0.1318
328.7459	0.134
328.9564	0.1293
329.1669	0.1363
329.3773	0.1389
329.5878	0.1344
329.7982	0.138
330.0086	0.1357
330.219	0.1333
330.4294	0.1312
330.6398	0.1341
330.8502	0.1364
331.0605	0.1341
331.2708	0.1339
331.4812	0.1359
331.6915	0.1391
331.9018	0.1386
332.1121	0.1363
332.3224	0.1382
332.5326	0.1329
332.7429	0.142
332.9531	0.1413
333.1633	0.1318
333.3735	0.1324
333.5837	0.1347
333.7939	0.1386
334.0041	0.14
334.2143	0.1366
334.4244	0.1433
334.6346	0.1344
334.8447	0.1331
335.0548	0.1452
335.2649	0.1398
335.475	0.1402
335.685	0.1378
335.8951	0.1413
336.1051	0.1383
336.3152	0.1464
336.5252	0.1407
336.7352	0.1388
336.9452	0.1361
337.1552	0.1414
337.3652	0.1387
337.5751	0.1422
337.7851	0.1435
337.995	0.1389
338.2049	0.1389
338.4148	0.1408
338.6247	0.144
338.8346	0.1393
339.0445	0.1438
339.2543	0.1448
339.4642	0.1414
339.674	0.136
339.8838	0.1426
340.0936	0.142
340.3034	0.1463
340.5132	0.1355
340.7229	0.1465
340.9327	0.1519
341.1424	0.1399
341.3522	0.14
341.5619	0.1505
341.7716	0.1464
341.9813	0.145
342.1909	0.1535
342.4006	0.1452
342.6102	0.1472
342.8199	0.1462
343.0295	0.1501
343.2391	0.151
343.4487	0.1564
343.6583	0.1591
343.8679	0.1507
344.0774	0.156
344.287	0.1527
344.4965	0.1568
344.706	0.1577
344.9155	0.152
345.125	0.1547
345.3345	0.1687
345.544	0.1551
345.7534	0.1612
345.9629	0.1608
346.1723	0.1615
346.3817	0.1607
346.5911	0.1606
346.8005	0.1721
347.0099	0.1641
347.2193	0.1739
347.4286	0.1732
347.638	0.1643
347.8473	0.1699
348.0566	0.1695
348.2659	0.1677
348.4752	0.1704
348.6845	0.1655
348.8937	0.1659
349.103	0.1674
349.3122	0.1642
349.5214	0.1782
349.7306	0.1793
349.9398	0.177
350.149	0.175
350.3582	0.1779
350.5674	0.1706
350.7765	0.1822
350.9856	0.1736
351.1948	0.172
351.4039	0.1834
351.613	0.1722
351.822	0.1814
352.0311	0.1805
352.2402	0.1764
352.4492	0.1765
352.6582	0.1789
352.8672	0.177
353.0762	0.1788
353.2852	0.1799
353.4942	0.1852
353.7032	0.1793
353.9121	0.1758
354.1211	0.1819
354.33	0.1786
354.5389	0.1795
354.7478	0.1799
354.9567	0.187
355.1655	0.1887
355.3744	0.1875
355.5833	0.1906
355.7921	0.1863
356.0009	0.1881
356.2097	0.1793
356.4185	0.1837
356.6273	0.1894
356.8361	0.1881
357.0448	0.1928
357.2536	0.1905
357.4623	0.189
357.671	0.1917
357.8797	0.1877
358.0884	0.1881
358.2971	0.185
358.5057	0.1881
358.7144	0.1856
358.923	0.1947
359.1316	0.1928
359.3402	0.2006
359.5488	0.1943
359.7574	0.2017
359.966	0.1937
360.1746	0.195
360.3831	0.1984
360.5916	0.2
360.8002	0.2073
361.0087	0.1969
361.2172	0.2079
361.4256	0.2143
361.6341	0.2058
361.8426	0.2026
362.051	0.2038
362.2594	0.2015
362.4678	0.2043
362.6762	0.2113
362.8846	0.2124
363.093	0.2169
363.3014	0.2158
363.5097	0.2151
363.718	0.2131
363.9264	0.2094
364.1347	0.2153
364.343	0.2136
364.5513	0.2125
364.7595	0.2236
364.9678	0.2123
365.176	0.2228
365.3842	0.2246
365.5925	0.2187
365.8007	0.2214
366.0089	0.2298
366.217	0.2259
366.4252	0.2181
366.6333	0.2235
366.8415	0.2386
367.0496	0.2306
367.2577	0.2258
367.4658	0.2325
367.6739	0.2258
367.882	0.2297
368.09	0.2256
368.2981	0.2402
368.5061	0.2285
368.7141	0.2283
368.9221	0.2445
369.1301	0.2446
369.3381	0.2434
369.5461	0.2441
369.754	0.2456
369.962	0.2334
370.1699	0.2441
370.3778	0.2476
370.5857	0.2377
370.7936	0.2411
371.0015	0.2387
371.2093	0.2437
371.4172	0.2378
371.625	0.2474
371.8328	0.2396
372.0406	0.2572
372.2484	0.2458
372.4562	0.2463
372.664	0.248
372.8717	0.2554
373.0795	0.2504
373.2872	0.2589
373.4949	0.2476
373.7026	0.2459
373.9103	0.2504
374.118	0.2528
374.3256	0.2649
374.5333	0.2494
374.7409	0.2671
374.9485	0.2582
375.1561	0.2701
375.3637	0.2532
375.5713	0.2629
375.7789	0.2544
375.9864	0.269
376.194	0.2637
376.4015	0.2592
376.609	0.2538
376.8165	0.2731
377.024	0.2661
377.2315	0.2701
377.4389	0.2627
377.6464	0.2801
377.8538	0.2672
378.0612	0.2682
378.2686	0.264
378.476	0.2804
378.6834	0.2741
378.8908	0.2743
379.0981	0.268
379.3055	0.28
379.5128	0.2672
379.7201	0.274
379.9274	0.2726
380.1347	0.28
380.342	0.2819
380.5492	0.2748
380.7565	0.2745
380.9637	0.2852
381.1709	0.2777
381.3781	0.2894
381.5853	0.2811
381.7925	0.28
381.9997	0.2853
382.2068	0.2854
382.4139	0.2926
382.6211	0.2862
382.8282	0.2877
383.0353	0.2951
383.2424	0.2789
383.4494	0.2889
383.6565	0.2826
383.8635	0.2806
384.0706	0.2981
384.2776	0.2864
384.4846	0.2889
384.6916	0.2887
384.8986	0.2922
385.1055	0.2953
385.3125	0.2967
385.5194	0.2931
385.7263	0.2936
385.9333	0.287
386.1402	0.2936
386.347	0.2931
386.5539	0.2926
386.7608	0.2872
386.9676	0.2858
387.1744	0.2952
387.3813	0.2986
387.5881	0.2847
387.7948	0.2935
388.0016	0.2998
388.2084	0.2892
388.4151	0.2849
388.6219	0.2875
388.8286	0.2834
389.0353	0.2941
389.242	0.2874
389.4487	0.284
389.6553	0.2808
389.862	0.2806
390.0686	0.2798
390.2753	0.2862
390.4819	0.2833
390.6885	0.2838
390.8951	0.2873
391.1016	0.2887
391.3082	0.2937
391.5147	0.2813
391.7213	0.2708
391.9278	0.2742
392.1343	0.2812
392.3408	0.2795
392.5473	0.2742
392.7537	0.2595
392.9602	0.2679
393.1666	0.2657
393.373	0.259
393.5794	0.2708
393.7858	0.2703
393.9922	0.2698
394.1986	0.2649
394.4049	0.2568
394.6113	0.2593
394.8176	0.2687
395.0239	0.2629
395.2302	0.2614
395.4365	0.2737
395.6428	0.2617
395.8491	0.2572
396.0553	0.2537
396.2615	0.2633
396.4678	0.2576
396.674	0.2594
396.8802	0.2484
397.0863	0.251
397.2925	0.2614
397.4987	0.2499
397.7048	0.2547
397.9109	0.2556
398.117	0.2522
398.3231	0.2479
398.5292	0.2479
398.7353	0.2477
398.9413	0.24
399.1474	0.242
399.3534	0.2436
399.5594	0.2461
399.7654	0.246
399.9714	0.246
400.1774	0.2355
400.3833	0.2572
400.5893	0.2489
400.7952	0.2552
401.0011	0.244
401.207	0.2416
401.4129	0.2431
401.6188	0.2408
401.8247	0.2575
402.0305	0.2455
402.2364	0.249
402.4422	0.2448
402.648	0.2509
402.8538	0.2489
403.0596	0.2425
403.2654	0.2448
403.4711	0.2451
403.6768	0.2487
403.8826	0.2425
404.0883	0.239
404.294	0.2492
404.4997	0.2461
404.7054	0.2489
404.911	0.2474
405.1167	0.2453
405.3223	0.2386
405.5279	0.2517
405.7335	0.2421
405.9391	0.2451
406.1447	0.255
406.3502	0.2451
406.5558	0.239
406.7613	0.2372
406.9668	0.2403
407.1724	0.2502
407.3778	0.2443
407.5833	0.2384
407.7888	0.2449
407.9942	0.2415
408.1997	0.2561
408.4051	0.2499
408.6105	0.2464
408.8159	0.2402
409.0213	0.2564
409.2267	0.2396
409.432	0.2491
409.6374	0.2432
409.8427	0.249
410.048	0.2419
410.2533	0.2378
410.4586	0.2366
410.6639	0.2569
410.8691	0.232
411.0744	0.2432
411.2796	0.2521
411.4848	0.2472
411.69	0.2414
411.8952	0.2454
412.1004	0.2417
412.3056	0.239
412.5107	0.2436
412.7158	0.2535
412.921	0.2453
413.1261	0.2437
413.3312	0.2411
413.5362	0.2465
413.7413	0.2392
413.9464	0.2291
414.1514	0.2427
414.3564	0.2335
414.5614	0.2268
414.7664	0.2379
414.9714	0.2367
415.1764	0.2413
415.3813	0.239
415.5863	0.2457
415.7912	0.2326
415.9961	0.2438
416.201	0.2358
416.4059	0.2357
416.6108	0.2303
416.8156	0.228
417.0205	0.2285
417.2253	0.2327
417.4301	0.2439
417.6349	0.2343
417.8397	0.2361
418.0445	0.2338
418.2492	0.2361
418.454	0.2249
418.6587	0.2428
418.8634	0.231
419.0681	0.2354
419.2728	0.2309
419.4775	0.2385
419.6822	0.2182
419.8868	0.2277
420.0915	0.2263
420.2961	0.2163
420.5007	0.2332
420.7053	0.2269
420.9099	0.2353
421.1144	0.2285
421.319	0.2221
421.5235	0.2223
421.728	0.226
421.9325	0.2263
422.137	0.2228
422.3415	0.221
422.546	0.2163
422.7504	0.2225
422.9549	0.2241
423.1593	0.2118
423.3637	0.2166
423.5681	0.2244
423.7725	0.2061
423.9769	0.2252
424.1812	0.2114
424.3856	0.2144
424.5899	0.213
424.7942	0.2134
424.9985	0.2145
425.2028	0.2129
425.4071	0.2105
425.6113	0.2071
425.8156	0.2001
426.0198	0.2135
426.224	0.1964
426.4282	0.1935
426.6324	0.1935
426.8366	0.2092
427.0407	0.1929
427.2449	0.2012
427.449	0.1973
427.6531	0.2024
427.8572	0.1942
428.0613	0.2051
428.2654	0.1987
428.4694	0.1859
428.6735	0.1936
428.8775	0.1923
429.0815	0.1892
429.2855	0.186
429.4895	0.1845
429.6935	0.1858
429.8975	0.1735
430.1014	0.1861
430.3053	0.1869
430.5093	0.1814
430.7132	0.1753
430.9171	0.1798
431.1209	0.1804
431.3248	0.1632
431.5286	0.1648
431.7325	0.1772
431.9363	0.162
432.1401	0.1588
432.3439	0.1693
432.5477	0.1552
432.7514	0.1658
432.9552	0.1632
433.1589	0.159
433.3627	0.1568
433.5664	0.1592
433.7701	0.1549
433.9737	0.1558
434.1774	0.1547
434.3811	0.1437
434.5847	0.1541
434.7883	0.1505
434.9919	0.1462
435.1955	0.1426
435.3991	0.1431
435.6027	0.1322
435.8062	0.1576
436.0098	0.1354
436.2133	0.1416
436.4168	0.1306
436.6203	0.1314
436.8238	0.1267
437.0272	0.1335
437.2307	0.1253
437.4341	0.1294
437.6375	0.131
437.841	0.1205
438.0443	0.1289
438.2477	0.1148
438.4511	0.1107
438.6545	0.1214
438.8578	0.1188
439.0611	0.1168
439.2644	0.1194
439.4677	0.1161
439.671	0.1056
439.8743	0.1143
440.0775	0.1076
440.2808	0.1086
440.484	0.0987
440.6872	0.1025
440.8904	0.094
441.0936	0.099
441.2967	0.0889
441.4999	0.0917
441.703	0.0942
441.9062	0.0943
442.1093	0.0982
442.3124	0.0922
442.5155	0.0878
442.7185	0.0828
442.9216	0.0876
443.1246	0.0885
443.3276	0.0835
443.5307	0.0735
443.7337	0.0789
443.9366	0.0822
444.1396	0.0712
444.3426	0.0824
444.5455	0.0768
444.7484	0.0759
444.9513	0.0726
445.1542	0.0776
445.3571	0.0709
445.56	0.0663
445.7628	0.0629
445.9657	0.0808
446.1685	0.064
446.3713	0.0725
446.5741	0.0676
446.7769	0.0629
446.9797	0.0641
447.1824	0.0583
447.3852	0.0547
447.5879	0.0582
447.7906	0.0527
447.9933	0.0585
448.196	0.047
448.3986	0.0481
448.6013	0.0488
448.8039	0.0553
449.0066	0.0574
449.2092	0.0573
449.4118	0.0458
449.6143	0.0518
449.8169	0.0498
450.0195	0.0439
450.222	0.0498
450.4245	0.0403
450.627	0.0397
450.8295	0.0391
451.032	0.0424
451.2345	0.0421
451.4369	0.0482
451.6394	0.0406
451.8418	0.0415
452.0442	0.0377
452.2466	0.0314
452.449	0.0351
452.6513	0.0368
452.8537	0.0222
453.056	0.0359
453.2583	0.0296
453.4607	0.0232
453.663	0.0375
453.8652	0.0364
454.0675	0.0317
454.2697	0.0264
454.472	0.0288
454.6742	0.0378
454.8764	0.0365
455.0786	0.0246
455.2808	0.022
455.4829	0.0322
455.6851	0.0282
455.8872	0.0128
456.0893	0.0313
456.2915	0.0191
456.4935	0.0312
456.6956	0.0139
456.8977	0.02
457.0997	0.0285
457.3018	0.0168
457.5038	0.0267
457.7058	0.0278
457.9078	0.0178
458.1098	0.0302
458.3117	0.0264
458.5137	0.0101
458.7156	0.0204
458.9175	0.0265
459.1194	0.0159
459.3213	0.0212
459.5232	0.0181
459.725	0.0175
459.9269	0.0206
460.1287	0.0099
460.3305	0.0151
460.5323	0.0175
460.7341	0.0223
460.9359	0.0035
461.1376	0.0199
461.3394	0.0163
461.5411	0.0229
461.7428	0.0126
461.9445	0.0147
462.1462	0.0109
462.3479	0.009
462.5495	0.0228
462.7512	0.0204
462.9528	0.0161
463.1544	0.0138
463.356	0.0049
463.5576	0.0117
463.7592	0.0148
463.9607	0.0128
464.1623	0.0118
464.3638	0.0103
464.5653	0.0143
464.7668	0.0155
464.9683	0.0153
465.1697	0.0134
465.3712	0.0067
465.5726	0.0129
465.7741	0.0175
465.9755	0.0148
466.1769	0.0078
466.3782	0.0167
466.5796	0.0174
466.7809	0.0191
466.9823	0.0054
467.1836	0.0098
467.3849	0.0136
467.5862	-0.0118
467.7875	0.0136
467.9887	0.0096
468.19	0.0135
468.3912	0.0219
468.5924	0.0096
468.7936	0.0118
468.9948	0.0077
469.196	0.0009
469.3972	0.0073
469.5983	0.0097
469.7994	0.0127
470.0006	0.0032
470.2017	0.0101
470.4027	0.0168
470.6038	0.0084
470.8049	0.0028
471.0059	0.0069
471.2069	0.0044
471.408	0.0132
471.6089	0.0092
471.8099	0.0102
472.0109	0.0009
472.2119	0.0178
472.4128	0.0124
472.6137	0.0094
472.8146	0.007
473.0155	0.009
473.2164	0.0116
473.4173	0.0025
473.6181	0.0066
473.819	0.0077
474.0198	0.0079
474.2206	-0.0052
474.4214	0.0104
474.6222	0.0004
474.8229	0.0046
475.0237	0.0112
475.2244	0.0077
475.4251	0.0091
475.6258	-0.0011
475.8265	0.0067
476.0272	0.0022
476.2278	0.0057
476.4285	0.0034
476.6291	0.0026
476.8297	0.007
477.0303	-0.0066
477.2309	0.0061
477.4315	0.0112
477.632	-0.0027
477.8326	0.0058
478.0331	0.0093
478.2336	0.0099
478.4341	0.0097
478.6346	0.0019
478.8351	0.0042
479.0355	0.0044
479.236	0.0065
479.4364	0.0024
479.6368	0.0051
479.8372	-0.0009
480.0376	0.0001
480.2379	0.0044
480.4383	0.0102
480.6386	0.0011
480.8389	0.0047
481.0392	0.0086
481.2395	0.0075
481.4398	0.0058
481.6401	0.0119
481.8403	0.0005
482.0405	0.0079
482.2408	0.0047
482.441	0.009
482.6411	0.0071
482.8413	-0.0035
483.0415	0.0135
483.2416	0.0006
483.4417	0.0062
483.6419	0.0044
483.8419	0.0002
484.042	0.0041
484.2421	0.0067
484.4422	0.0086
484.6422	0.0067
484.8422	0.0084
485.0422	0.0061
485.2422	0.0012
485.4422	0.0032
485.6422	0.002
485.8421	0.006
486.042	0.0132
486.242	0.0022
486.4419	0.0017
486.6417	-0.0013
486.8416	0.0006
487.0415	0.0052
487.2413	0.0008
487.4411	0.0027
487.641	-0.0008
487.8408	0.0066
488.0405	0.0101
488.2403	0.0034
488.4401	0.0017
488.6398	0.0069
488.8395	0.0072
489.0392	0.0097
489.2389	0.0087
489.4386	-0.0087
489.6383	0.0065
489.8379	-0.0001
490.0376	0.0014
490.2372	-0.0002
490.4368	0.0011
490.6364	0.0081
490.836	-0.003
491.0355	-0.002
491.2351	0.0069
491.4346	0.0073
491.6341	-0.0035
491.8336	0.015
492.0331	0.0056
492.2326	0.0114
492.432	0.01
492.6315	0.0122
492.8309	0.0008
493.0303	0.003
493.2297	0.0071
493.4291	0.0021
493.6284	0.008
493.8278	0.0037
494.0271	0.0096
494.2264	0.0027
494.4257	0.0075
494.625	0.0033
494.8243	0.0003
495.0236	0.0072
495.2228	-0
495.422	0.0024
495.6213	0.0008
495.8205	0.0109
496.0196	0.0054
496.2188	0.0058
496.418	0.0004
496.6171	0.0051
496.8162	0.0013
497.0153	0.0102
497.2144	0.0103
497.4135	0.0004
497.6126	0.0013
497.8116	-0.0039
498.0107	0.0057
498.2097	0.0049
498.4087	0.0001
498.6077	-0.0025
498.8067	0.0034
499.0056	0.0017
499.2046	0.0076
499.4035	-0.0008
499.6024	0.0036
499.8013	0.0107
500.0002	0.009
500.199	0.0175
500.3979	-0.0046
500.5967	0.0006
500.7956	0.0034
500.9944	0.0041
501.1932	0.0106
501.3919	0.0102
501.5907	0.0066
501.7895	0.0031
501.9882	0.0098
502.1869	0.0095
502.3856	0.0006
502.5843	0.0059
502.783	0.0029
502.9816	0.0067
503.1803	0.0076
503.3789	0.018
503.5775	-0.0011
503.7761	-0.0005
503.9747	0.0029
504.1732	-0.0065
504.3718	0.0107
504.5703	0.0082
504.7689	-0.0025
504.9674	0.0027
505.1658	0.0005
505.3643	0.013
505.5628	0.0072
505.7612	0.0077
505.9597	-0.0115
506.1581	0.0023
506.3565	0.0044
506.5549	0.0061
506.7532	0.0009
506.9516	0.0149
507.1499	0.0029
507.3482	0.0069
507.5465	0.0095
507.7448	0.003
507.9431	0.0068
508.1414	-0.001
508.3396	0.0053
508.5379	0.0017
508.7361	0.0051
508.9343	0.0162
509.1325	0.0173
509.3306	0.0059
509.5288	-0.0055
509.7269	0.0098
509.9251	0.0011
510.1232	0.007
510.3213	0.0097
510.5193	-0.0001
510.7174	0.002
510.9154	0.0037
511.1135	0.0012
511.3115	0.0019
511.5095	0.0056
511.7075	0.004
511.9055	0.009
512.1034	0.0049
512.3014	-0.0017
512.4993	0.0117
512.6972	0.0004
512.8951	0.0107
513.093	0.0058
513.2908	0.0145
513.4887	0.0101
513.6865	0.0031
513.8844	0.0114
514.0822	0.0079
514.2799	-0.0062
514.4777	-0.0029
514.6755	-0.0001
514.8732	0.0037
515.0709	-0.0014
515.2687	-0.0009
515.4664	0.016
515.664	0.0115
515.8617	0.0037
516.0594	0.0005
516.257	0.0054
516.4546	0.0168
516.6522	0.0137
516.8498	0.0093
517.0474	-0.003
517.2449	0.0108
517.4425	0.0022
517.64	0.0054
517.8375	0.0148
518.035	-0.0007
518.2325	-0.0057
518.43	0.0066
518.6274	0.003
518.8249	-0.0013
519.0223	0.0078
519.2197	0.0056
519.4171	-0.0029
519.6145	0.0091
519.8118	-0.0085
520.0092	0.0046
520.2065	0.0177
520.4038	-0.0037
520.6011	0.0116
520.7984	0.0047
520.9956	0.0089
521.1929	0.0099
521.3901	0.0004
521.5874	0.0138
521.7846	-0.0103
521.9818	0.012
522.1789	0.0012
522.3761	0.0095
522.5732	-0.0013
522.7704	-0.0071
522.9675	-0.0078
523.1646	-0.003
523.3617	0.019
523.5587	0.0029
523.7558	0.0002
523.9528	-0.0006
524.1498	0.0033
524.3468	0.0068
524.5438	-0.0007
524.7408	-0.0041
524.9378	0.0073
525.1347	0.0085
525.3316	0.005
525.5285	0.0052
525.7254	0.004
525.9223	0.0079
526.1192	0.005
526.316	-0.0039
526.5129	-0.0003
526.7097	-0.0013
526.9065	0.0093
527.1033	0.0064
527.3	0.0046
527.4968	0.002
527.6935	-0.0106
527.8903	-0.0011
528.087	0.0002
528.2837	0.012
528.4804	-0.0002
528.677	0.0068
528.8737	0.0079
529.0703	0.0026
529.2669	0.0166
529.4635	-0.0076
529.6601	0.0006
529.8567	-0.0026
530.0532	0.0018
530.2498	-0.0015
530.4463	0.0048
530.6428	0.0049
530.8393	0.0074
531.0358	0.0044
531.2322	-0.0008
531.4287	0.0044
531.6251	-0.0108
531.8215	-0.0031
532.0179	0.0147
532.2143	0.0084
532.4107	0.0077
532.607	0
532.8034	0.0067
532.9997	-0.0031
533.196	0.0006
533.3923	0.0129
533.5886	0.0082
533.7848	-0.0007
533.9811	0.0099
534.1773	0.005
534.3735	0.0029
534.5697	-0.0061
534.7659	0.001
534.9621	0.0066
535.1582	0.0118
535.3544	0.0072
535.5505	-0.0033
535.7466	-0.0036
535.9427	0.0091
536.1387	0.0017
536.3348	0.0115
536.5308	-0.0035
536.7269	-0.0059
536.9229	0.0042
537.1189	0.0062
537.3148	0.0086
537.5108	0.0011
537.7068	0.0092
537.9027	-0.0027
538.0986	0.0013
538.2945	0.0047
538.4904	-0.0048
538.6863	0.0028
538.8821	0.0068
539.078	0.0007
539.2738	0.0029
539.4696	-0.0025
539.6654	0.0027
539.8611	0.0066
540.0569	-0.0017
540.2526	0.0004
540.4484	-0.0084
540.6441	0.0045
540.8398	0.014
541.0355	0.0007
541.2311	0.0034
541.4268	0.0125
541.6224	0.0118
541.818	0.0065
542.0136	0.0055
542.2092	0.0103
542.4048	0.0047
542.6003	0.0006
542.7959	0.0096
542.9914	0.0045
543.1869	0.0039
543.3824	0.0017
543.5779	0.0052
543.7734	0.0176
543.9688	0.0068
544.1642	0.0028
544.3596	0.007
544.555	-0.006
544.7504	0.0151
544.9458	0.0051
545.1411	0.0034
545.3365	-0.0045
545.5318	0.0065
545.7271	0.0081
545.9224	-0.0088
546.1177	0.0014
546.3129	-0.0014
546.5081	-0.0043
546.7034	0.001
546.8986	-0.0005
547.0938	0.0107
547.289	0.0113
547.4841	0.0105
547.6793	-0.0003
547.8744	0.0087
548.0695	-0.0013
548.2646	0.0086
548.4597	0.0026
548.6548	0.015
548.8498	0.0054
549.0448	-0.001
549.2399	0.0169
549.4349	0.0047
549.6298	-0.0004
549.8248	0.0005
550.0198	0.0039
550.2147	0.006
550.4096	-0.0007
550.6045	0.0096
550.7994	0.0067
550.9943	0.0119
551.1892	-0.0115
551.384	0.0096
551.5788	0.0069
551.7737	0.0042
551.9685	0.0114
552.1632	-0.003
552.358	0.0006
552.5528	0.0061
552.7475	0.0053
552.9422	0.014
553.1369	0.012
553.3316	0.0058
553.5263	0.0129
553.7209	0.0074
553.9156	0.0071
554.1102	0.0019
554.3048	0.0028
554.4994	0.0009
554.694	0.0027
554.8885	0.0118
555.0831	0.0096
555.2776	0.0127
555.4721	0.0076
555.6666	-0.0005
555.8611	0.0022
556.0555	-0.0002
556.25	0.0059
556.4444	-0.0018
556.6388	-0.0121
556.8332	0.0032
557.0276	0.0137
557.222	0.007
557.4163	-0.0069
557.6107	-0.0026
557.805	0.0068
557.9993	0.0015
558.1936	-0.0128
558.3879	0.0036
558.5821	-0.0026
558.7764	-0.0084
558.9706	0.0028
559.1648	0.0048
559.359	-0.0062
559.5532	0.0017
559.7473	-0.007
559.9415	0.0008
560.1356	0.0213
560.3297	-0.0014
560.5238	0.0128
560.7179	0.0004
560.9119	0.0036
561.106	0.0004
561.3	0.0018
561.494	-0.007
561.688	-0.0032
561.882	-0.0042
562.076	0.0022
562.2699	0.0168
562.4639	0.0152
562.6578	-0.0002
562.8517	0.0084
563.0456	0.0005
563.2395	0.0039
563.4333	0.0009
563.6272	0.0055
563.821	0.0075
564.0148	-0.0056
564.2086	0.0057
564.4024	0.0056
564.5961	0.0024
564.7899	0.012
564.9836	-0.0012
565.1773	0.0151
565.371	-0.0018
565.5647	0.0067
565.7584	0.019
565.952	0.0072
566.1456	0.0055
566.3393	0.0127
566.5329	-0.0107
566.7264	0.0051
566.92	0.0022
567.1136	-0.0078
567.3071	-0.0033
567.5006	0.0026
567.6941	0.0069
567.8876	0.0015
568.0811	0.0163
568.2745	0.0003
568.468	0.0047
568.6614	0.0058
568.8548	0.0093
569.0482	0.0053
569.2416	0.002
569.4349	0.0025
569.6283	0.0045
569.8216	0.0078
570.0149	0.005
570.2082	0.0131
570.4015	0.0057
570.5947	0.0066
570.788	0.0072
570.9812	0.002
571.1744	0.005
571.3676	0.003
571.5608	0.0038
571.754	0.0065
571.9471	0.0079
572.1402	0.0048
572.3333	0.0126
572.5264	0.007
572.7195	0.0028
572.9126	0.0049
573.1057	0.004
573.2987	0.0019
573.4917	0.0088
573.6847	0.0023
573.8777	0.0075
574.0707	0.0038
574.2636	0.0065
574.4566	0.0016
574.6495	0.0016
574.8424	0.0053
575.0353	0.0021
575.2281	0.0061
575.421	0.003
575.6138	0.0022
575.8067	0.005
575.9995	0.0016
576.1923	0.0031
576.385	0.0072
576.5778	0.009
576.7706	0.0057
576.9633	0.0031
577.156	-0.0011
577.3487	0.0039
577.5414	0.0013
577.734	0.0025
577.9267	0.0077
578.1193	0.0055
578.3119	0.0021
578.5045	0.0062
578.6971	0.0003
578.8897	0.0039
579.0822	0.0067
579.2747	0.0032
579.4673	0.0052
579.6598	0.0016
579.8522	0.0023
580.0447	0.0047
580.2372	0.0069
580.4296	0.009
580.622	-0.0008
580.8144	0.006
581.0068	0.0024
581.1992	0.0053
581.3915	-0
581.5839	0.0049
581.7762	0.0029
581.9685	0.0018
582.1608	0.0009
582.353	0.0034
582.5453	0.0053
582.7375	0.0088
582.9298	0.0018
583.122	-0.0014
583.3142	0.0058
583.5063	0.0073
583.6985	-0.001
583.8906	-0.0004
584.0827	0.008
584.2749	-0.0003
584.4669	-0.0002
584.659	0.0063
584.8511	0.0115
585.0431	0.0062
585.2352	0.0039
585.4272	0.0053
585.6192	0.0026
585.8111	0.0029
586.0031	-0.0013
586.195	0.0034
586.387	0.0096
586.5789	0.0081
586.7708	0.0099
586.9627	0.0044
587.1545	0.0041
587.3464	0.0062
587.5382	0.0053
587.73	0.0078
587.9218	0.0008
588.1136	0.0024
588.3053	0.0019
588.4971	-0.0031
588.6888	0.0035
588.8805	0.0017
589.0722	0.0075
589.2639	-0.0019
589.4556	0.0096
589.6472	0.008
589.8389	0.0089
590.0305	-0.0015
590.2221	0.0073
590.4137	0.0063
590.6052	0.0017
590.7968	0.0055
590.9883	0.0042
591.1798	0.0075
591.3713	-0.0014
591.5628	0.0018
591.7543	0.0022
591.9458	0.0023
592.1372	0.0082
592.3286	0.0054
592.52	0.0027
592.7114	0.0065
592.9028	0.0009
593.0941	0.0032
593.2855	0.0028
593.4768	0.0102
593.6681	0.0055
593.8594	0.0072
594.0506	0.0033
594.2419	0.0007
594.4331	0.006
594.6244	0.002
594.8156	0.0058
595.0067	-0.0012
595.1979	0.0021
595.3891	0.0066
595.5802	0.0087
595.7713	0.007
595.9624	0.0076
596.1535	0.0099
596.3446	0.0008
596.5357	0.0107
596.7267	0.0036
596.9177	0.0036
597.1087	0.0025
597.2997	-0.001
597.4907	-0.0039
597.6817	0.0021
597.8726	0.0064
598.0635	0.0031
598.2544	0.011
598.4453	0.0055
598.6362	-0.0015
598.827	0.0047
599.0179	0.0049
599.2087	0.007
599.3995	0.0078
599.5903	0.0116
599.7811	0.0097
599.9718	0.0012
600.1626	0.0039
600.3533	0.0037
600.544	-0.0002
600.7347	0.0053
600.9254	0.0125
601.116	-0.0029
601.3067	-0.0005
601.4973	0.0011
601.6879	-0.001
601.8785	0.0059
602.0691	0.0006
602.2596	0.0008
602.4502	0.0021
602.6407	0.0061
602.8312	0.0015
603.0217	0.0029
603.2122	0.0042
603.4027	0.0056
603.5931	-0.0015
603.7835	0.0086
603.9739	0.0015
604.1643	0.0059
604.3547	0.0084
604.5451	0.0081
604.7354	0.0025
604.9257	0.0016
605.116	-0.0027
605.3063	0.0064
605.4966	0.0108
605.6869	0.0093
605.8771	0.0039
606.0673	0.0023
606.2575	-0.0004
606.4477	0.0074
606.6379	0.0018
606.8281	0.0012
607.0182	0.0041
607.2083	0.0067
607.3985	0.0027
607.5885	0.0056
607.7786	0.0027
607.9687	0.0034
608.1587	-0.0004
608.3488	0.0056
608.5388	0.0001
608.7288	0.0025
608.9187	0.0011
609.1087	0.0058
609.2986	0.0111
609.4886	-0.0009
609.6785	0.0043
609.8684	-0
610.0582	0.0022
610.2481	-0.0013
610.4379	0.0064
610.6278	-0.0039
610.8176	0.0078
611.0074	0.0046
611.1971	-0.0048
611.3869	0.0085
611.5766	-0.0037
611.7664	0.0136
611.9561	0.0013
612.1458	0.0084
612.3354	0.003
612.5251	0.0051
612.7147	0.0061
612.9044	-0.0022
613.094	0.007
613.2836	0.0048
613.4731	0.0069
613.6627	0.0147
613.8522	0.0054
614.0417	0.008
614.2313	0.0073
614.4207	0.0025
614.6102	0.0087
614.7997	0.0089
614.9891	0.0023
615.1785	-0.0023
615.3679	0.0088
615.5573	0.0024
615.7467	-0.0032
615.9361	0.0103
616.1254	0.0127
616.3147	-0.0031
616.504	0.0001
616.6933	0.0051
616.8826	0.0024
617.0718	-0.0005
617.2611	0.0063
617.4503	-0.0018
617.6395	0.0024
617.8287	0.0088
618.0179	-0.0017
618.207	0.005
618.3961	-0.0018
618.5853	0.0009
618.7744	0.0053
618.9634	0.0121
619.1525	0.0073
619.3416	-0.0037
619.5306	0.0076
619.7196	0.007
619.9086	0.0077
620.0976	0.0033
620.2866	0.0096
620.4755	-0.012
620.6645	0.0024
620.8534	-0.0016
621.0423	0.0032
621.2312	0.01
621.42	0.0038
621.6089	0.0039
621.7977	0.0147
621.9865	0.0056
622.1753	-0.0065
622.3641	0.0022
622.5529	-0.0001
622.7416	-0.001
622.9303	-0.0008
623.1191	0.0069
623.3078	0.0127
623.4964	-0.0016
623.6851	0.0071
623.8737	-0.0054
624.0624	-0.0091
624.251	-0.0033
624.4396	0.0082
624.6282	0.0151
624.8167	0.0019
625.0053	0.0082
625.1938	0.0196
625.3823	0.0075
625.5708	-0.0049
625.7593	-0.0036
625.9477	0.0036
626.1362	-0.0054
626.3246	0.0001
626.513	0.0017
626.7014	0.0039
626.8898	0.0089
627.0781	0.0003
627.2665	0.0083
627.4548	-0.0146
627.6431	0.0018
627.8314	0.0153
628.0197	0.0133
628.2079	-0.003
628.3962	0.0067
628.5844	0.0003
628.7726	0.0034
628.9608	0.005
629.1489	0.0036
629.3371	-0.0109
629.5252	0.0026
629.7134	-0.0023
629.9015	0.0059
630.0895	-0.0071
630.2776	0.0074
630.4657	0.0047
630.6537	0.0111
630.8417	-0.0002
631.0297	0.0027
631.2177	0.0067
631.4057	0.0187
631.5936	-0.0027
631.7815	0.0034
631.9695	0.0173
632.1574	0.0175
632.3452	0.0033
632.5331	-0.0097
632.7209	0.0063
632.9088	-0.0034
633.0966	0.0311
633.2844	0.0102
633.4722	0.016
633.6599	0.0159
633.8477	0.0022
634.0354	0.0098
634.2231	-0.009
634.4108	0.0056
634.5985	0.007
634.7861	0.0018
634.9738	-0.0244
635.1614	0.0126
635.349	-0.0021
635.5366	0.0031
635.7242	-0.0084
635.9117	0.0137
636.0993	0.0141
636.2868	-0.0075
636.4743	0.0019
636.6618	-0.0197
636.8492	0.0193
637.0367	-0.0039
637.2241	0.0178
637.4115	0.0145
637.5989	0.0018
637.7863	0.029
637.9737	0.0101
638.161	0.0041
638.3484	-0.0089
638.5357	0
638.723	0.0027
638.9103	-0.0064
639.0975	-0.0076
639.2848	0.0058
639.472	0.0151
639.6592	0.0029
639.8464	0.0023
640.0336	-0.0043
640.2208	0.0085
640.4079	0.002
640.595	-0.0256
640.7821	0.0061
640.9692	-0.0006
641.1563	0.0031
641.3434	0.0074
641.5304	0.0092
641.7174	0.0058
641.9044	0.0097
642.0914	0.0135
642.2784	0.0187
642.4653	-0.0031
642.6523	0.0051
642.8392	-0.0154
643.0261	0.0136
643.213	0.0182
643.3999	0.0201
643.5867	0.0166
643.7735	-0.0071
643.9604	0.0277
644.1472	0.012
644.3339	-0.0004
644.5207	-0.0119
644.7075	0.0053
644.8942	0.0067
645.0809	-0.0067
645.2676	-0.0158
645.4543	-0.0069
645.6409	0.0103
645.8276	0.0081
646.0142	-0.0122
646.2008	0.0011
646.3874	-0.0079
646.574	-0.0034
646.7605	-0.0011
646.9471	-0.0022
647.1336	-0.0142
647.3201	-0.0004
647.5066	-0.0011
647.6931	-0.003
647.8795	-0.0031
648.0659	-0.0104
648.2524	0.0133
648.4388	0.0031
648.6252	-0.0006
648.8115	-0.0026
648.9979	0.0096
649.1842	-0.0067
649.3705	0.0056
649.5568	0.0015
649.7431	-0.007
649.9294	-0.0016
650.1156	-0.0141
650.3018	-0.0038
650.488	0.0096
650.6742	0.019
650.8604	0.0055
651.0466	0.0008
651.2327	-0.014
651.4188	0.0046
651.6049	0.0081
651.791	0.0029
651.9771	0.0069
652.1632	-0.0111
652.3492	-0.0048
652.5352	0.0134
652.7212	0.0071
652.9072	0.0013
653.0932	0.0047
653.2791	0.0019
653.465	-0.0074
653.651	-0.0043
653.8369	0.0025
654.0227	-0.0044
654.2086	0.009
654.3944	0.0062
654.5803	0.001
654.7661	0.0024
654.9519	-0.0032
655.1377	-0
655.3234	-0
655.5092	-0
655.6949	-0
655.8806	-0
656.0663	-0
656.2519	-0
656.4376	-0
656.6232	-0
656.8088	-0
656.9945	-0
657.18	-0
657.3656	-0
657.5511	-0
657.7367	-0
657.9222	-0
658.1077	-0
658.2932	-0
658.4786	-0
658.6641	-0
658.8495	-0
659.0349	-0
659.2203	-0
659.4057	-0
659.591	0.1614
659.7764	0.0313
659.9617	0.0065
660.147	0.0124
660.3323	0.0111
660.5176	0.0022
660.7028	-0.0051
660.888	-0.0002
661.0733	0.006
661.2585	-0.0041
661.4436	0.0044
661.6288	0.0022
661.8139	-0.005
661.9991	-0.0234
662.1842	-0.0049
662.3693	0.0159
662.5544	0.0138
662.7394	0.0285
662.9245	-0.0076
663.1095	-0.0204
663.2945	-0.01
663.4795	0.008
663.6644	0.0254
663.8494	0.0254
664.0343	0.0031
664.2193	0.0202
664.4042	0.015
664.589	0.011
664.7739	0
664.9587	-0.0071
665.1436	-0.0034
665.3284	-0.0152
665.5132	-0.028
665.698	0.0009
665.8827	0.0117
666.0675	-0.0179
666.2522	0.0094
666.4369	0.0093
666.6216	0.0001
666.8063	-0.008
666.9909	-0.0223
667.1756	-0.0104
667.3602	-0.0081
667.5448	-0.0016
667.7294	0.0017
667.9139	0.0004
668.0985	-0.0123
668.283	-0.0166
668.4675	0.0252
668.652	0.0072
668.8365	0.0017
669.0209	-0.0076
669.2054	-0.0012
669.3898	0.0001
669.5742	0.0012
669.7586	0.0187
669.943	-0.0039
670.1273	-0.0121
670.3117	0.0084
670.496	-0.0166
670.6803	-0.0023
670.8646	-0.0287
671.0488	0.0131
671.2331	-0.0183
671.4173	0.0044
671.6015	0.0113
671.7857	0.0086
671.9699	0.0119
672.1541	-0.0017
672.3382	-0.0084
672.5223	0.0153
672.7064	-0.0127
672.8905	-0.0121
673.0746	-0.001
673.2587	0.0136
673.4427	0.0101
673.6267	0.0093
673.8107	0.0121
673.9947	0.0149
674.1787	-0.0027
674.3626	0.0109
674.5465	-0.0075
674.7304	-0.0074
674.9143	0.001
675.0982	0.006
675.2821	0.0153
675.4659	-0.0184
675.6497	-0.0008
675.8335	-0.0138
676.0173	0.0065
676.2011	0.0076
676.3849	-0.0124
676.5686	-0.0061
676.7523	0.0004
676.936	-0.0139
677.1197	-0.0068
677.3034	0.0312
677.487	0.0085
677.6706	0.0027
677.8542	-0.0047
678.0378	0.0048
678.2214	0.0101
678.405	-0.0061
678.5885	0.0052
678.772	0.0048
678.9555	-0.0023
679.139	0.0108
679.3225	0.0006
679.5059	-0.012
679.6894	0.0066
679.8728	-0.0115
680.0562	0.0005
680.2395	-0.0225
680.4229	0.0134
680.6062	0.0024
680.7896	-0.0134
680.9729	0.0143
681.1562	0.0175
681.3394	-0.0036
681.5227	0.0158
681.7059	-0.0061
681.8891	0.0174
682.0723	0.0187
682.2555	0.0035
682.4387	-0.0126
682.6218	0.0029
682.805	0.0131
682.9881	0.0093
683.1712	0.0016
683.3542	0.0062
683.5373	-0.0126
683.7203	-0.0033
683.9034	-0.0057
684.0864	-0.0033
684.2694	-0.0059
684.4523	0.0065
684.6353	0.0034
684.8182	-0.0127
685.0011	0.0108
685.184	0.0024
685.3669	0.0249
685.5498	-0.0158
685.7326	-0.0211
685.9154	0.0109
686.0982	0.0052
686.281	-0.0017
686.4638	-0.0029
686.6465	-0.0014
686.8293	-0.0139
687.012	0.0033
687.1947	-0.0089
687.3774	0.0052
687.56	-0.0093
687.7427	-0.0018
687.9253	-0.0112
688.1079	-0.0276
688.2905	-0.0145
688.4731	0.0205
688.6556	0.0012
688.8382	-0.033
689.0207	0.013
689.2032	0.0135
689.3857	-0.001
689.5681	-0.0122
689.7506	0.0188
689.933	0.0044
690.1154	0.011
690.2978	-0.003
690.4802	0.0171
690.6626	0.0099
690.8449	-0.0012
691.0272	-0.0187
691.2095	-0.0225
691.3918	0.0174
691.5741	0.0116
691.7563	0.0083
691.9386	0.0085
692.1208	0.002
692.303	-0.0133
692.4852	-0.0068
692.6673	0.0073
692.8495	-0.0026
693.0316	0.008
693.2137	0.0307
693.3958	0.0049
693.5778	-0.0132
693.7599	-0.0029
693.9419	-0.019
694.1239	0.0179
694.3059	0.0091
694.4879	-0.0189
694.6699	-0.0169
694.8518	0.0073
695.0337	-0.0053
695.2157	0.002
695.3975	-0.0031
695.5794	-0.0407
695.7613	0.0017
695.9431	-0.0394
696.1249	0.0004
696.3067	-0.0164
696.4885	0.0153
696.6703	-0.0038
696.852	-0.0092
697.0337	-0.004
697.2154	0.0031
697.3971	0.005
697.5788	0.0242
697.7605	-0.0245
697.9421	0.011
698.1237	-0.0148
698.3053	-0.0018
698.4869	-0.0094
698.6685	-0.0175
698.85	0.0138
699.0315	-0.0147
699.213	-0.003
699.3945	-0.0123
699.576	0.0156
699.7575	0.0026
699.9389	-0.0304
700.1203	0.0089
700.3017	-0.0221
700.4831	0.0019
700.6645	0.0527
700.8458	-0.0074
701.0271	0.0318
701.2084	0.0008
701.3897	0.0023
701.571	-0.0295
701.7523	-0.0081
701.9335	-0.0015
702.1147	0.0113
702.2959	0.0044
702.4771	0.003
702.6583	-0.0102
702.8394	-0.021
703.0205	0.0141
703.2016	0.0059
703.3827	-0.0165
703.5638	0.0112
703.7449	0.0089
703.9259	0.0118
704.1069	-0.0327
704.2879	0.018
704.4689	-0.0086
704.6499	0.0381
704.8308	0.0128
705.0117	0.0215
705.1927	-0.0019
705.3735	-0.0183
705.5544	0.0087
705.7353	-0.0228
705.9161	-0.0292
706.0969	0.0097
706.2777	-0.0042
706.4585	-0.0063
706.6393	0.0106
706.82	0.0205
707.0007	0.0075
707.1815	-0.0054
707.3621	0.0357
707.5428	-0.0002
707.7235	-0.0022
707.9041	-0.0035
708.0847	-0.002
708.2653	0.016
708.4459	-0.0099
708.6265	-0.0141
708.807	0.0134
708.9875	0.0071
709.168	-0.009
709.3485	0.0104
709.529	-0.0118
709.7095	-0.0194
709.8899	-0.0084
710.0703	0.0139
710.2507	0.0044
710.4311	-0.0385
710.6115	0.0177
710.7918	-0.0032
710.9721	-0.0133
711.1524	-0.0029
711.3327	-0.0062
711.513	0.0259
711.6932	-0.0066
711.8735	0.0205
712.0537	0.0013
712.2339	-0.0043
712.4141	0.0271
712.5942	-0.0251
712.7744	0.0101
712.9545	0.0094
713.1346	0.0084
713.3147	0.0179
713.4947	-0.0159
713.6748	0.0006
713.8548	0.0336
714.0348	0.0043
714.2148	0.0006
714.3948	0.029
714.5748	0.016
714.7547	-0.0031
714.9346	0.0115
715.1145	-0.0226
715.2944	-0.03
715.4743	0.0131
715.6541	-0.0126
715.834	0.0018
716.0138	-0.0075
716.1936	-0.038
716.3733	-0.0166
716.5531	0.0033
716.7328	0.024
716.9126	-0.0074
717.0923	-0.0085
717.2719	-0.0008
717.4516	0.0024
717.6312	-0.0227
717.8109	0.0303
717.9905	0.0074
718.1701	0.0052
718.3496	0.0024
718.5292	-0.0014
718.7087	0.0114
718.8882	0.012
719.0677	0.0052
719.2472	0.0073
719.4267	0.0034
719.6061	-0.0175
719.7856	0.0389
719.965	-0.0099
720.1443	-0.0096
720.3237	-0.023
720.5031	0.0016
720.6824	-0.0119
720.8617	-0.0128
721.041	0.0043
721.2203	-0.0292
721.3995	-0.019
721.5788	-0.0019
721.758	-0.0106
721.9372	-0.0027
722.1164	0.0048
722.2956	0.001
722.4747	0.0014
722.6538	-0.0078
722.8329	0.0101
723.012	-0.0067
723.1911	0.0104
723.3702	0.0057
723.5492	-0.0059
723.7282	-0.0282
723.9072	0.0117
724.0862	-0.0178
724.2652	0.0105
724.4441	0.0009
724.623	0.0012
724.8019	0.0149
724.9808	0.0021
725.1597	-0.0117
725.3385	0.0048
725.5174	0.0024
725.6962	-0.0023
725.875	0.004
726.0538	0.0056
726.2325	0.0074
726.4112	-0.026
726.59	-0.0011
726.7687	-0.0181
726.9474	0.0086
727.126	0.0315
727.3047	-0.0089
727.4833	0.0031
727.6619	-0.0257
727.8405	-0.0077
728.0191	0.018
728.1976	-0.009
728.3762	-0.013
728.5547	-0.0295
728.7332	0.0144
728.9116	-0.0033
729.0901	0.0013
729.2686	-0.0059
729.447	-0.017
729.6254	-0.022
729.8038	-0.0037
729.9821	-0.0259
730.1605	0.0164
730.3388	-0.0077
730.5171	0.0288
730.6954	-0.0129
730.8737	0.0036
731.0519	-0.0171
731.2302	0.0174
731.4084	0.0042
731.5866	-0.008
731.7648	-0.0059
731.9429	0.0074
732.1211	-0.0179
732.2992	-0.0028
732.4773	-0.0059
732.6554	-0.0366
732.8335	0.0208
733.0115	-0.0026
733.1896	-0.0084
733.3676	0.018
733.5456	-0.0182
733.7235	-0.0146
733.9015	0.0132
734.0794	-0.0115
734.2574	-0.0089
734.4353	0.0015
734.6131	-0.0164
734.791	-0.0194
734.9689	-0.005
735.1467	0.0037
735.3245	0.0192
735.5023	0.0124
735.68	0.0089
735.8578	0.0098
736.0355	0.0108
736.2132	0.014
736.3909	-0.0005
736.5686	-0.0083
736.7463	-0.0315
736.9239	0.0138
737.1015	0.0051
737.2791	-0.0112
737.4567	0.0074
737.6343	-0.0123
737.8118	0.0047
737.9894	-0.0154
738.1669	-0.0274
738.3444	0.0081
738.5218	-0.0185
738.6993	0.0218
738.8767	0.0025
739.0541	-0.0101
739.2315	-0.0102
739.4089	0.0065
739.5863	0.0165
739.7636	0.0056
739.9409	0.007
740.1182	-0.0038
740.2955	0.0143
740.4728	-0.024
740.65	-0.0248
740.8272	0.0016
741.0044	-0.0286
741.1816	0.0027
741.3588	-0.0347
741.5359	-0.0185
741.7131	0.0032
741.8902	0.0046
742.0673	-0.052
742.2444	0.0141
742.4214	0.0092
742.5985	-0.0234
742.7755	0.0231
742.9525	-0.0215
743.1295	-0.0272
743.3064	-0.0023
743.4834	0.0031
743.6603	0.0453
743.8372	-0.0339
744.0141	0.0332
744.191	0.0124
744.3678	-0.04
744.5446	-0.0119
744.7215	-0.0021
744.8982	0.0203
745.075	0.0218
745.2518	0.0065
745.4285	0.007
745.6052	-0.042
745.7819	-0.0018
745.9586	0.0064
746.1353	-0.0304
746.3119	-0.0133
746.4885	0.0164
746.6651	0.0057
746.8417	-0.0066
747.0183	0.0259
747.1948	-0.0055
747.3714	0.0048
747.5479	-0.0114
747.7244	-0.005
747.9008	-0.0093
748.0773	0.0179
748.2537	0.0023
748.4301	-0.0038
748.6065	-0.0207
748.7829	-0.0135
748.9593	0.0004
749.1356	0.0018
749.3119	0.0074
749.4882	0.0138
749.6645	-0.0142
749.8408	0.011
750.017	0.0031
750.1933	-0.0103
750.3695	0.01
750.5457	-0.0016
750.7218	-0.0041
750.898	-0.0092
751.0741	0.015
751.2502	0.0293
751.4263	-0.0127
751.6024	-0.007
751.7784	-0.0086
751.9545	-0.0101
752.1305	-0.0224
752.3065	-0.0088
752.4825	-0.0063
752.6584	-0.0201
752.8344	-0.0232
753.0103	-0.0244
753.1862	0.0234
753.3621	-0.0029
753.5379	0.0085
753.7138	0.0018
753.8896	0.018
754.0654	-0.014
754.2412	0.0199
754.417	0.0065
754.5927	0.0118
754.7685	0.0103
754.9442	-0.0045
755.1199	0.0224
755.2956	0.0009
755.4712	-0.01
755.6469	-0.0048
755.8225	0.0042
755.9981	0.0091
756.1736	-0.0009
756.3492	-0.0053
756.5248	0.0195
756.7003	-0.0163
756.8758	-0.0025
757.0513	0.0063
757.2267	0.011
757.4022	0.0018
757.5776	-0.0014
757.753	0.0089
757.9284	0.0015
758.1038	-0.0002
758.2791	0.0081
758.4545	-0.0281
758.6298	-0.0121
758.8051	0.0107
758.9803	0.0041
759.1556	-0.0011
759.3308	0.0089
759.506	-0.0043
759.6812	0.017
759.8564	-0.0064
760.0316	-0.0095
760.2067	0.0195
760.3819	0.0055
760.557	-0.0104
760.732	0.0082
760.9071	0.0229
761.0821	-0.0231
761.2572	0.0081
761.4322	0.0194
761.6072	-0.005
761.7821	-0.029
761.9571	-0.0049
762.132	-0.003
762.3069	0.0156
762.4818	-0.0026
762.6567	0.013
762.8316	0.012
763.0064	0.0098
763.1812	-0.0175
763.356	-0.0321
763.5308	0.0046
763.7055	0.0025
763.8803	-0.0041
764.055	0.0018
764.2297	-0.0111
764.4044	-0.0024
764.579	-0.0029
764.7537	-0.0051
764.9283	0.0081
765.1029	0.0013
765.2775	0.0227
765.4521	-0.0025
765.6266	-0.0086
765.8011	0.0041
765.9756	-0.011
766.1501	-0.0041
766.3246	-0.0129
766.4991	0.0093
766.6735	0.0144
766.8479	-0.0073
767.0223	0.0236
767.1967	0.0018
767.371	-0.003
767.5454	0.0129
767.7197	0.0026
767.894	-0.0158
768.0683	0.0154
768.2425	0.0086
768.4168	-0.0052
768.591	-0.0205
768.7652	-0.0209
768.9394	-0.0443
769.1135	-0.0064
769.2877	-0.0028
769.4618	0.0104
769.6359	-0.0094
769.81	0.0134
769.984	0.0031
770.1581	-0.0077
770.3321	0.0133
770.5061	-0.0031
770.6801	-0.0043
770.8541	0.006
771.028	0.0309
771.202	0.0313
771.3759	0.013
771.5498	0.0098
771.7236	-0.0053
771.8975	-0.0058
772.0713	0.0075
772.2451	-0.0143
772.4189	-0.0038
772.5927	-0.0359
772.7665	-0.0156
772.9402	0.0059
773.1139	-0.0097
773.2876	0.0062
773.4613	0.0232
773.635	0.0323
773.8086	0.0041
773.9822	-0.0047
774.1558	0.0189
774.3294	-0.0019
774.503	-0.0026
774.6765	-0.0113
774.8501	-0.0153
775.0236	-0.0048
775.1971	-0.0393
775.3705	0.0009
775.544	-0.0329
775.7174	0.0151
775.8908	-0.031
776.0642	0.0308
776.2376	-0.0154
776.4109	-0.0208
776.5843	-0.0103
776.7576	-0.0024
776.9309	0.0111
777.1041	-0.0429
777.2774	-0.0201
777.4506	-0.0158
777.6238	-0.04
777.797	-0.0041
777.9702	0.0292
778.1434	-0.0263
778.3165	-0.0036
778.4896	-0.0286
778.6627	0.0054
778.8358	-0.0153
779.0089	-0.0306
779.1819	0.0154
779.3549	-0.0016
779.5279	-0.0384
779.7009	0.0249
779.8739	0.0263
780.0468	-0.0117
780.2197	-0.0091
780.3926	-0.0387
780.5655	-0.0112
780.7384	0.0001
780.9112	0.0347
781.0841	-0.0008
781.2569	0.0213
781.4297	-0.0013
781.6024	-0.0225
781.7752	0.0194
781.9479	0.044
782.1206	-0.0215
782.2933	0.0081
782.466	0.0044
782.6386	-0.0313
782.8113	-0.0181
782.9839	-0.0205
783.1565	-0.0054
783.329	0.0294
783.5016	0.0093
783.6741	-0.0467
783.8466	0.0347
784.0191	0.0042
784.1916	-0.0318
784.3641	-0.0493
784.5365	0.0252
784.7089	-0.0106
784.8813	0.0274
785.0537	0.014
785.2261	-0.0299
785.3984	0.0078
785.5707	-0.0367
785.743	0.0129
785.9153	-0.0278
786.0876	-0.0178
786.2598	-0.0398
786.432	-0.0006
786.6042	0.024
786.7764	-0.0929
786.9486	-0.0169
787.1207	0.0236
787.2928	0.0404
787.4649	-0.0158
787.637	-0.0339
787.8091	0.0048
787.9811	0.0256
788.1532	0.0212
788.3252	0.0024
788.4972	0.0051
788.6691	-0.0244
788.8411	0.0136
789.013	0.0266
789.1849	-0.002
789.3568	0.0049
789.5287	0.0098
789.7005	-0.0413
789.8723	-0.02
790.0442	-0.0352
790.2159	0.0064
790.3877	-0.0324
790.5595	-0.0161
790.7312	-0.0175
790.9029	0.0012
791.0746	0.0025
791.2463	0.012
791.4179	0.0098
791.5896	0.0002
791.7612	0.0399
791.9328	-0.0357
792.1044	-0.0327
792.2759	0.0027
792.4474	0.0229
792.619	-0.0552
792.7905	-0.0198
792.9619	0.06
793.1334	-0.0057
793.3048	-0.0081
793.4762	0.027
793.6476	-0.0289
793.819	-0.0181
793.9904	-0.0246
794.1617	-0.0036
794.333	0.0172
794.5043	0.0176
794.6756	0.0018
794.8469	0.0201
795.0181	-0.0208
795.1893	0.0271
795.3605	-0.0048
795.5317	0.0017
795.7029	0.0027
795.874	0.0002
796.0452	0.0318
796.2163	0.052
796.3873	0.028
796.5584	0.0442
796.7294	-0.0071
796.9005	-0.0226
797.0715	-0.0272
797.2425	-0.0009
797.4134	0.0414
797.5844	0.0102
797.7553	-0.0256
797.9262	0.0384
798.0971	0.0247
798.2679	-0.0164
798.4388	0.0293
798.6096	-0.0275
798.7804	0.0176
798.9512	-0.0102
799.122	-0.0271
799.2927	0.0669
799.4635	-0.0771
799.6342	-0.0806
799.8049	0.0613
799.9755	-0.0631
800.1462	-0.0079
800.3168	-0.0076
800.4874	-0.0972
800.658	0.0342
800.8286	0.0034
800.9991	-0.0242
801.1696	-0.0224
801.3402	-0.0733
801.5106	-0.0586
801.6811	0.0111
801.8516	0.0493
802.022	-0.0341
802.1924	-0.0846
802.3628	-0.0036
802.5332	0.0471
802.7035	0.0164
802.8739	-0.0093
803.0442	-0.0718
803.2145	0.0308
803.3847	-0.0089
803.555	-0.0126
803.7252	-0.0388
803.8954	-0.0283
804.0656	-0.0028
804.2358	0.004
804.4059	0.0494
804.5761	0.07
804.7462	-0.0456
804.9163	-0.0529
805.0864	0.0003
805.2564	-0.0146
805.4264	0.0205
805.5965	0.0855
805.7665	-0.0334
805.9364	-0.0565
806.1064	-0.017
806.2763	0.0204
806.4462	0.0086
806.6161	0.0245
806.786	0.0185
806.9559	-0.0095
807.1257	-0.0469
807.2955	-0.0488
807.4653	-0.0567
807.6351	0.0548
807.8048	-0.0339
807.9746	0.0271
808.1443	-0.0183
808.314	0.0471
808.4837	-0.0287
808.6533	-0.0358
808.8229	0.0289
808.9926	-0.0025
809.1622	0.0369
809.3317	-0.0116
809.5013	-0.0465
809.6708	-0.0208
809.8403	0.0068
810.0098	0.0039
810.1793	0.0585
810.3488	0.0081
810.5182	0.1026
810.6876	0.0062
810.857	0.0048
811.0264	-0.0777
811.1958	0.1519
811.3651	-0.0158
811.5344	0.0665
811.7037	0.0766
811.873	0.0691
812.0422	-0.0985
812.2115	-0.0111
812.3807	-0.1032
812.5499	-0.109
812.7191	-0.0156
812.8882	-0.0999
813.0574	0.0358
813.2265	-0.0336
813.3956	0.0195
813.5646	0.056
813.7337	-0.0645
813.9027	-0.0332
814.0718	-0.0026
814.2407	0.0495
814.4097	0.0973
814.5787	0.0154
814.7476	-0.0238
814.9165	-0.0147
815.0854	-0.0412
815.2543	0.0345
815.4232	0.145
815.592	-0.0021
815.7608	-0.0229
815.9296	-0.0344
816.0984	-0.0133
816.2671	-0.2445
816.4359	0.0749
816.6046	-0.0825
816.7733	-0.072
816.942	-0.0524
817.1106	0.0948
817.2793	-0.0588
817.4479	-0.0135
817.6165	-0.0655
817.785	0.0165
817.9536	-0.1519
818.1221	-0.0821
818.2906	-0.0954
818.4591	-0.0379
818.6276	-0.0393
818.7961	-0.0272
818.9645	-0.0021
819.1329	0.1555
819.3013	-0.0752
819.4697	0.035
819.638	0.0192
819.8064	0.0678
819.9747	-0.0371
820.143	-0.1573
820.3113	0.0133
820.4795	0.1012
820.6477	0.0491
820.816	0.066
820.9842	0.1096
821.1523	-0.0155
821.3205	0.0682
821.4886	-0.0935
821.6567	-0.0538
821.8248	0.0141
821.9929	-0.2117
822.1609	-0.0618
822.329	-0.068
822.497	-0.0259
822.665	-0.1101
822.833	-0.1661
823.0009	-0.0853
823.1688	0.1222
823.3367	-0.0657
823.5046	-0.0182
823.6725	-0.1433
823.8404	-0.1778
824.0082	-0.0967
824.176	-0.0772
824.3438	0.1501
824.5116	-0.1475
824.6793	0.0228
824.847	0.6317
825.0147	-0.0307
825.1824	-0.1075
825.3501	0.0836
825.5177	-0.0611
825.6854	-0.1211
825.853	-0.033
826.0206	0.0042
826.1881	0.1564
826.3557	-0.1031
826.5232	0.1571
826.6907	0.0004
826.8582	0.0272
827.0257	0.0834
827.1931	0.0173
827.3605	-0.1277
827.528	-0.0043
827.6953	-0.2302
827.8627	-0.1961
828.03	0.0593
828.1974	-0.0789
828.3647	0.0255
828.532	-0.0214
828.6992	0.1355
828.8665	-0.1902
829.0337	0.0238
829.2009	-0.0683
829.3681	-0.1062
829.5352	-0.4471
829.7024	0.2243
829.8695	0.075
830.0366	0.1503
830.2037	0.0704
830.3707	-0.0627
830.5378	-0.0259
830.7048	-0.1605
830.8718	0.0972
831.0388	-0.0541
831.2057	-0.1461
831.3727	-0.1862
831.5396	-0.0869
831.7065	-1.0255
831.8734	0.0268
832.0402	0.1952
832.2071	-0.358
832.3739	0.481
832.5407	-1.6721
832.7075	-0.3766
832.8742	0.3494
833.041	0.0108
833.2077	0.1818
833.3744	0.212
833.541	-0.0084
833.7077	-0.0574
833.8743	0.0267
834.0409	0.3175
834.2075	0.0856
834.3741	-0.162
834.5407	-0.0476
834.7072	-0.0227
834.8737	0.2444
835.0402	0.7786
835.2067	-0.1936
835.3731	-0.2318
835.5395	-0.074
835.706	0.2074
835.8723	0.1729
836.0387	0.0911
836.2051	0.1923
836.3714	-0.0381
836.5377	-0.1737
836.704	0.0338
836.8703	-0.1172
837.0365	-0.8227
837.2027	-0.1683
837.3689	0.027
837.5351	0.2473
837.7013	-0.1197
837.8674	-0.3171
838.0335	-0.1549
838.1997	0.1699
838.3657	0.7429
838.5318	-0.1155
838.6978	-0
838.8639	-0.5723
839.0299	-0.0318
839.1958	0.0705
839.3618	-0.011
839.5277	-0.1784
839.6937	-0.2162
839.8596	-0.2574
840.0254	-0.1163
840.1913	-0.1707
840.3571	0.0221
840.523	-0
840.6888	-0.0673
840.8545	-0.5798
841.0203	-0.025
841.186	-0.2673
841.3517	-0.1408
841.5174	0.3929
841.6831	-0.0054
841.8488	0.0366
842.0144	-0.0534
842.18	0.1189
842.3456	-0.7946
842.5112	-0
842.6767	0.4128
842.8422	-0.3023
843.0077	-0.0505
843.1732	-0.1401
843.3387	-0.1247
843.5042	-0
843.6696	0.0181
843.835	-0.2202
844.0004	-0.2246
844.1657	-0.7743
844.3311	-0
844.4964	0.1999
844.6617	0.1686
844.827	-0
844.9923	0.4415
845.1575	-0.3374
845.3227	0.1188
845.4879	-0.2159
845.6531	-0.1037
845.8183	0.0108
845.9834	1.1312
846.1485	0.2554
846.3136	-0.0917
846.4787	-0
846.6438	0.075
846.8088	0.7142
846.9738	0.1276
847.1388	0.4404
847.3038	0.2527
847.4687	-0
847.6337	-0.5711
847.7986	-0.4461
847.9635	-0.2455
848.1284	1.6382
848.2932	-0.0902
848.458	-0
848.6228	0.0265
848.7876	-0
848.9524	0.3257
849.1172	-2.0363
849.2819	-0.7083
849.4466	0.0665
849.6113	0.0914
849.7759	0.8302
849.9406	0.0901
850.1052	-1.3496
850.2698	-0
850.4344	-0.1777
850.599	-0.4371
850.7635	-0.0071
850.928	0.1633
851.0925	0.2632
851.257	0.1435
851.4215	0.5603
851.5859	-0.174
851.7503	-0
851.9147	-0.3729
852.0791	0.0281
852.2434	-0.0483
852.4078	-0
852.5721	0.0108
852.7364	0.0344
852.9007	-0.2046
853.0649	-0
853.2291	-0.134
853.3934	-0
853.5575	-0.0822
853.7217	0.1461
853.8859	-0.429
854.05	-0.6324
854.2141	-0.0339
854.3782	0.0574
854.5423	-0.1929
854.7063	-0.215
854.8703	-0.1172
855.0343	0.2209
855.1983	0.0167
855.3623	-0.0758
855.5262	-0
855.6901	0.4497
855.854	0.2602
856.0179	0.1997
856.1818	-0
856.3456	0.2234
856.5094	-0.1603
856.6732	-0.1461
856.837	-1.1944
857.0008	-0.0402
857.1645	-0.13
857.3282	-0.5472
857.4919	0.0783
857.6556	-0.4121
857.8192	-0.122
857.9828	-0.1413
858.1465	0.029
858.31	-0
858.4736	-0.2742
858.6372	-0.3154
858.8007	0.0281
858.9642	0.6375
859.1277	-0
859.2911	-0.4245
859.4546	-0
859.618	0.2051
859.7814	0.2243
859.9448	-0.168
860.1081	-0
860.2715	-1.656
860.4348	-0.309
860.5981	0.5099
860.7614	-0.1515
860.9246	0.1756
861.0879	0.1987
861.2511	-0
861.4143	-0
861.5774	-0.4184
861.7406	-0
861.9037	-0
862.0668	-0.604
862.2299	0.2408
862.393	-0
862.556	-0
862.7191	-0.5812
862.8821	0.0293
863.0451	-0.0095
863.208	-0.4615
863.371	-0.454
863.5339	0.2453
863.6968	0.4495
863.8597	0.0047
864.0225	-0
864.1854	-0
864.3482	-0
864.511	-0.0422
864.6737	0.4665
864.8365	-0.1069
864.9992	-0
865.1619	-0.5184
865.3246	-0
865.4873	-0.094
865.65	-0.0784
865.8126	-0.1145
865.9752	-0.2666
866.1378	0.1252
866.3004	-0.2465
866.4629	-1.9452
866.6254	-0.4601
866.7879	-0.0371
866.9504	-0
867.1129	-0.3729
867.2753	-0.3441
867.4377	0.0342
867.6001	-0
867.7625	0.1144
867.9249	0.4836
868.0872	0.4822
868.2495	0.228
868.4118	0.3545
868.5741	-0.1239
868.7363	-0
868.8986	-0.601
869.0608	0.1544
869.223	-0.8086
869.3851	-0
869.5473	-0.1498
869.7094	1.6721
869.8715	-0.4196
870.0336	-0.0878
870.1957	-0
870.3577	0.0511
870.5197	-0.2019
870.6817	-1.0038
870.8437	1.7709
871.0057	0.4275
871.1676	0.0313
871.3295	-0
871.4914	-1.7882
871.6533	-0.3578
871.8151	0.2495
871.977	-0.445
872.1388	-0
872.3006	-0.6113
872.4623	-0.7661
872.6241	-0
872.7858	0.2975
872.9475	0.2759
873.1092	0.3307
873.2709	0.3982
873.4325	-1.758
873.5941	-0
873.7557	-0
873.9173	0.2831
874.0789	0.1301
874.2404	-0
874.4019	-0.1737
874.5634	-0
874.7249	0.1403
874.8863	1.475
875.0478	-0.3027
875.2092	0.6518
875.3706	0.6028
875.5319	0.2274
875.6933	0.4279
875.8546	-0.3974
876.0159	0.1682
876.1772	-0
876.3385	0.3633
876.4997	0.0614
876.6609	-0.4562
876.8221	-0
876.9833	-0
877.1445	0.3498
877.3056	-0
877.4667	-0.2848
877.6278	-0
877.7889	-0
877.9499	0.8679
878.111	-0.7727
878.272	-0
878.433	-0
878.5939	-0.276
878.7549	0.6468
878.9158	-0
879.0767	-0
879.2376	-0
879.3984	0.0828
879.5593	-0
879.7201	-1.475
879.8809	-0.2339
880.0417	-0.2007
880.2024	-0.0502
880.3632	-0.7649
880.5239	0.8544
880.6846	-0.9979
880.8452	-0.0624
881.0059	-1.0986
881.1665	-0.361
881.3271	-0
881.4877	0.0287
881.6483	-0
881.8088	-0
881.9693	-0
882.1298	-0
882.2903	-0
