Data from D4ACN5uM440nmA_Absorbance_13-50-24-847.txt Node
Date: Fri Feb 21 13:50:24 GMT 2025
User: LASERRRRR
Spectrometer: FLMT03099
Trigger mode: 0
Integration Time (sec): 1.500000E-2
Scans to average: 1
Electric dark correction enabled: true
Nonlinearity correction enabled: false
Boxcar width: 0
XAxis mode: Wavelengths
Number of Pixels in Spectrum: 3648
>>>>>Begin Spectral Data<<<<<
179.3399	-0
179.5586	-0
179.7771	-0
179.9957	-0.0082
180.2143	-0
180.4329	-0
180.6514	-0
180.8699	-0
181.0885	-0
181.307	-0.1178
181.5255	0.1833
181.744	1.0969
181.9625	-0
182.181	0.3097
182.3994	0.2346
182.6179	0.2897
182.8363	0.1255
183.0547	0.6947
183.2732	0.0218
183.4916	0.0449
183.71	0.4283
183.9284	-0.0023
184.1467	0.0082
184.3651	0.1995
184.5835	0.1502
184.8018	0.1927
185.0201	0.3433
185.2385	0.0043
185.4568	0.0917
185.6751	0.1561
185.8934	0.2948
186.1117	0.0779
186.3299	0.2484
186.5482	0.213
186.7664	0.0602
186.9847	-0.14
187.2029	0.1017
187.4211	-0.0057
187.6393	0.2001
187.8575	0.0207
188.0757	0.6945
188.2939	-0.0663
188.512	0.3715
188.7302	0.041
188.9483	0.2682
189.1665	0.4546
189.3846	0.0046
189.6027	0.1286
189.8208	0.6018
190.0389	0.2445
190.257	0.5505
190.475	-0.0729
190.6931	0.0729
190.9111	-0.0148
191.1292	0.2455
191.3472	0.1353
191.5652	0.2032
191.7832	0.0816
192.0012	0.1713
192.2192	0.2107
192.4371	0.1816
192.6551	0.2149
192.873	0.1776
193.091	0.1668
193.3089	0.1284
193.5268	0.2826
193.7447	0.325
193.9626	0.2505
194.1805	0.2787
194.3984	0.2309
194.6162	0.2742
194.8341	0.3232
195.0519	0.2472
195.2697	0.1882
195.4875	0.3224
195.7054	0.2671
195.9231	0.2289
196.1409	0.3244
196.3587	0.3167
196.5765	0.3371
196.7942	0.3491
197.012	0.3416
197.2297	0.3285
197.4474	0.4097
197.6651	0.2891
197.8828	0.3713
198.1005	0.4308
198.3182	0.3591
198.5358	0.4056
198.7535	0.3861
198.9711	0.365
199.1888	0.3838
199.4064	0.4518
199.624	0.3768
199.8416	0.3934
200.0592	0.3477
200.2767	0.3622
200.4943	0.4647
200.7119	0.4001
200.9294	0.3616
201.1469	0.4019
201.3645	0.4608
201.582	0.4269
201.7995	0.431
202.017	0.3689
202.2344	0.4414
202.4519	0.3524
202.6694	0.3419
202.8868	0.3669
203.1042	0.391
203.3217	0.4063
203.5391	0.391
203.7565	0.3562
203.9739	0.3764
204.1913	0.3531
204.4086	0.3382
204.626	0.3676
204.8433	0.3306
205.0607	0.342
205.278	0.3424
205.4953	0.3359
205.7126	0.3657
205.9299	0.331
206.1472	0.3176
206.3644	0.3347
206.5817	0.3553
206.7989	0.3264
207.0162	0.3482
207.2334	0.3312
207.4506	0.3073
207.6678	0.2807
207.885	0.3023
208.1022	0.3108
208.3194	0.3035
208.5365	0.303
208.7537	0.3042
208.9708	0.3251
209.1879	0.2939
209.405	0.284
209.6222	0.2859
209.8392	0.3023
210.0563	0.2767
210.2734	0.2575
210.4905	0.2753
210.7075	0.2795
210.9245	0.2722
211.1416	0.2566
211.3586	0.2782
211.5756	0.2484
211.7926	0.2456
212.0096	0.2772
212.2265	0.2793
212.4435	0.2622
212.6604	0.2474
212.8774	0.2492
213.0943	0.2554
213.3112	0.2632
213.5281	0.2605
213.745	0.2318
213.9619	0.2514
214.1788	0.2561
214.3956	0.2556
214.6125	0.2529
214.8293	0.2591
215.0461	0.2459
215.2629	0.2441
215.4798	0.2582
215.6965	0.252
215.9133	0.2389
216.1301	0.2526
216.3469	0.2503
216.5636	0.2342
216.7803	0.2466
216.9971	0.256
217.2138	0.242
217.4305	0.2579
217.6472	0.2606
217.8639	0.2496
218.0805	0.2562
218.2972	0.2397
218.5138	0.2454
218.7305	0.257
218.9471	0.2493
219.1637	0.2646
219.3803	0.2608
219.5969	0.2612
219.8135	0.2683
220.0301	0.2616
220.2466	0.2566
220.4632	0.2553
220.6797	0.2628
220.8962	0.2542
221.1127	0.2528
221.3292	0.2747
221.5457	0.2822
221.7622	0.2533
221.9787	0.2803
222.1951	0.2723
222.4116	0.2739
222.628	0.2853
222.8444	0.2806
223.0608	0.2685
223.2772	0.2756
223.4936	0.2748
223.71	0.2902
223.9264	0.2869
224.1427	0.2953
224.3591	0.2847
224.5754	0.2863
224.7917	0.292
225.008	0.2898
225.2243	0.3059
225.4406	0.308
225.6569	0.3005
225.8732	0.3204
226.0894	0.3116
226.3057	0.3048
226.5219	0.3241
226.7381	0.3156
226.9543	0.3052
227.1705	0.3143
227.3867	0.3221
227.6029	0.3241
227.8191	0.3337
228.0352	0.3356
228.2513	0.3573
228.4675	0.3502
228.6836	0.3483
228.8997	0.335
229.1158	0.3544
229.3319	0.3487
229.548	0.3524
229.764	0.3544
229.9801	0.3688
230.1961	0.3638
230.4121	0.3775
230.6282	0.3777
230.8442	0.388
231.0602	0.3864
231.2761	0.3729
231.4921	0.3828
231.7081	0.3931
231.924	0.3921
232.14	0.4028
232.3559	0.4092
232.5718	0.4163
232.7877	0.41
233.0036	0.3995
233.2195	0.4136
233.4353	0.409
233.6512	0.4172
233.867	0.4181
234.0829	0.4258
234.2987	0.4263
234.5145	0.4298
234.7303	0.436
234.9461	0.4373
235.1619	0.4375
235.3776	0.4353
235.5934	0.4278
235.8091	0.4414
236.0249	0.4467
236.2406	0.4413
236.4563	0.4441
236.672	0.4396
236.8877	0.4502
237.1034	0.4493
237.319	0.4546
237.5347	0.4484
237.7503	0.4464
237.966	0.4636
238.1816	0.4462
238.3972	0.4597
238.6128	0.465
238.8284	0.4684
239.0439	0.4515
239.2595	0.4576
239.475	0.465
239.6906	0.4613
239.9061	0.462
240.1216	0.4583
240.3371	0.4581
240.5526	0.4652
240.7681	0.4598
240.9836	0.4407
241.199	0.4497
241.4145	0.4532
241.6299	0.4479
241.8453	0.4397
242.0607	0.4375
242.2761	0.4299
242.4915	0.4251
242.7069	0.4135
242.9223	0.4128
243.1376	0.4088
243.353	0.4032
243.5683	0.3968
243.7836	0.3972
243.9989	0.3724
244.2142	0.3686
244.4295	0.3763
244.6448	0.3641
244.86	0.3505
245.0753	0.3386
245.2905	0.3394
245.5057	0.3306
245.721	0.3288
245.9362	0.3272
246.1514	0.3192
246.3665	0.3091
246.5817	0.2949
246.7969	0.2962
247.012	0.2882
247.2271	0.2957
247.4423	0.2813
247.6574	0.2804
247.8725	0.2653
248.0876	0.262
248.3026	0.2725
248.5177	0.2531
248.7328	0.2442
248.9478	0.2452
249.1628	0.2424
249.3779	0.2386
249.5929	0.2358
249.8079	0.2335
250.0228	0.2294
250.2378	0.2282
250.4528	0.2322
250.6677	0.2219
250.8827	0.2124
251.0976	0.21
251.3125	0.2174
251.5274	0.2124
251.7423	0.208
251.9572	0.2094
252.172	0.2068
252.3869	0.2075
252.6017	0.2049
252.8166	0.1991
253.0314	0.2013
253.2462	0.194
253.461	0.1956
253.6758	0.1987
253.8906	0.1948
254.1053	0.1945
254.3201	0.1946
254.5348	0.1875
254.7496	0.1818
254.9643	0.1938
255.179	0.1884
255.3937	0.19
255.6083	0.1929
255.823	0.1871
256.0377	0.181
256.2523	0.1858
256.467	0.1859
256.6816	0.1752
256.8962	0.1832
257.1108	0.1871
257.3254	0.1849
257.54	0.1776
257.7545	0.1831
257.9691	0.1768
258.1836	0.1692
258.3981	0.1827
258.6127	0.1733
258.8272	0.18
259.0417	0.1706
259.2561	0.1746
259.4706	0.1753
259.6851	0.1737
259.8995	0.1719
260.114	0.1737
260.3284	0.1685
260.5428	0.1725
260.7572	0.1762
260.9716	0.1815
261.186	0.1732
261.4003	0.1705
261.6147	0.172
261.829	0.1739
262.0433	0.175
262.2577	0.1818
262.472	0.1746
262.6863	0.1809
262.9005	0.1696
263.1148	0.1779
263.3291	0.1778
263.5433	0.1833
263.7576	0.1816
263.9718	0.1806
264.186	0.1739
264.4002	0.1805
264.6144	0.185
264.8286	0.1841
265.0427	0.1774
265.2569	0.1817
265.471	0.1772
265.6851	0.1821
265.8993	0.1816
266.1134	0.183
266.3275	0.1806
266.5415	0.1788
266.7556	0.1801
266.9697	0.1824
267.1837	0.1811
267.3978	0.1831
267.6118	0.1756
267.8258	0.1782
268.0398	0.178
268.2538	0.1742
268.4677	0.1833
268.6817	0.1758
268.8957	0.1666
269.1096	0.1665
269.3235	0.1726
269.5374	0.1773
269.7514	0.1753
269.9652	0.1732
270.1791	0.1662
270.393	0.1733
270.6068	0.1727
270.8207	0.1686
271.0345	0.1738
271.2483	0.1698
271.4622	0.1718
271.676	0.1697
271.8897	0.167
272.1035	0.1777
272.3173	0.1659
272.531	0.1741
272.7448	0.1711
272.9585	0.1585
273.1722	0.1627
273.3859	0.1729
273.5996	0.1697
273.8133	0.1724
274.0269	0.1702
274.2406	0.1734
274.4542	0.1649
274.6679	0.1743
274.8815	0.1765
275.0951	0.177
275.3087	0.1799
275.5223	0.1683
275.7358	0.1802
275.9494	0.171
276.1629	0.1728
276.3765	0.1646
276.59	0.1701
276.8035	0.1733
277.017	0.179
277.2305	0.1792
277.444	0.1774
277.6574	0.1721
277.8709	0.187
278.0843	0.1738
278.2978	0.1786
278.5112	0.1784
278.7246	0.1742
278.938	0.1723
279.1513	0.1743
279.3647	0.1834
279.5781	0.1749
279.7914	0.1776
280.0047	0.1762
280.2181	0.1788
280.4314	0.1782
280.6447	0.1842
280.8579	0.1733
281.0712	0.1824
281.2845	0.1779
281.4977	0.1845
281.711	0.1802
281.9242	0.1815
282.1374	0.1786
282.3506	0.1835
282.5638	0.1788
282.7769	0.175
282.9901	0.1827
283.2033	0.1813
283.4164	0.1818
283.6295	0.1831
283.8426	0.175
284.0557	0.1901
284.2688	0.1801
284.4819	0.1827
284.695	0.18
284.908	0.1859
285.1211	0.1831
285.3341	0.184
285.5471	0.184
285.7601	0.1832
285.9731	0.1816
286.1861	0.1913
286.3991	0.1976
286.612	0.1867
286.825	0.1883
287.0379	0.1898
287.2508	0.187
287.4637	0.1903
287.6766	0.1864
287.8895	0.1863
288.1024	0.1941
288.3152	0.1894
288.5281	0.1864
288.7409	0.1939
288.9538	0.1934
289.1666	0.1884
289.3794	0.1927
289.5922	0.1847
289.8049	0.1924
290.0177	0.1955
290.2304	0.1898
290.4432	0.1958
290.6559	0.1914
290.8686	0.1937
291.0813	0.1923
291.294	0.19
291.5067	0.1949
291.7194	0.194
291.932	0.196
292.1447	0.1903
292.3573	0.1953
292.5699	0.1926
292.7825	0.1941
292.9951	0.1873
293.2077	0.1879
293.4203	0.1947
293.6328	0.1934
293.8454	0.1889
294.0579	0.1922
294.2704	0.1952
294.4829	0.1946
294.6954	0.1932
294.9079	0.1947
295.1204	0.1918
295.3328	0.1974
295.5453	0.1965
295.7577	0.1962
295.9701	0.1945
296.1825	0.2024
296.3949	0.1927
296.6073	0.1903
296.8197	0.1908
297.0321	0.1997
297.2444	0.1868
297.4567	0.1964
297.6691	0.1909
297.8814	0.1967
298.0937	0.1898
298.306	0.1944
298.5182	0.1911
298.7305	0.1935
298.9428	0.1908
299.155	0.1876
299.3672	0.1937
299.5794	0.1924
299.7916	0.1968
300.0038	0.1912
300.216	0.1884
300.4282	0.1883
300.6403	0.2001
300.8525	0.1879
301.0646	0.1953
301.2767	0.1937
301.4888	0.1953
301.7009	0.1933
301.913	0.1946
302.125	0.1916
302.3371	0.1901
302.5491	0.1924
302.7612	0.1973
302.9732	0.197
303.1852	0.1935
303.3972	0.1943
303.6092	0.1943
303.8211	0.1904
304.0331	0.1923
304.245	0.1908
304.457	0.1898
304.6689	0.1872
304.8808	0.1879
305.0927	0.1918
305.3046	0.1882
305.5164	0.1864
305.7283	0.1778
305.9401	0.1766
306.152	0.1823
306.3638	0.1775
306.5756	0.1807
306.7874	0.1759
306.9992	0.17
307.2109	0.1757
307.4227	0.1709
307.6344	0.1737
307.8462	0.171
308.0579	0.1752
308.2696	0.1703
308.4813	0.1657
308.693	0.1626
308.9046	0.1632
309.1163	0.16
309.328	0.1586
309.5396	0.1568
309.7512	0.1557
309.9628	0.1546
310.1744	0.1485
310.386	0.1492
310.5976	0.15
310.8091	0.1507
311.0207	0.1523
311.2322	0.1439
311.4437	0.1485
311.6552	0.1418
311.8667	0.1444
312.0782	0.144
312.2897	0.1407
312.5012	0.1418
312.7126	0.1321
312.924	0.1362
313.1355	0.1352
313.3469	0.137
313.5583	0.1302
313.7696	0.1304
313.981	0.1385
314.1924	0.128
314.4037	0.1322
314.6151	0.1268
314.8264	0.1347
315.0377	0.1306
315.249	0.1293
315.4603	0.1214
315.6716	0.133
315.8828	0.125
316.0941	0.1294
316.3053	0.1259
316.5165	0.1275
316.7277	0.119
316.9389	0.1281
317.1501	0.1232
317.3613	0.1238
317.5724	0.1272
317.7836	0.1207
317.9947	0.1207
318.2058	0.1214
318.417	0.1232
318.6281	0.1226
318.8391	0.1271
319.0502	0.1204
319.2613	0.1261
319.4723	0.1202
319.6834	0.1242
319.8944	0.1189
320.1054	0.1216
320.3164	0.115
320.5274	0.1213
320.7383	0.1247
320.9493	0.1139
321.1602	0.1211
321.3712	0.1209
321.5821	0.1197
321.793	0.1292
322.0039	0.1245
322.2148	0.12
322.4257	0.1185
322.6365	0.116
322.8474	0.1253
323.0582	0.1267
323.269	0.1174
323.4798	0.128
323.6906	0.121
323.9014	0.1179
324.1122	0.1205
324.3229	0.1309
324.5337	0.1287
324.7444	0.1263
324.9551	0.1265
325.1658	0.122
325.3765	0.1262
325.5872	0.1263
325.7979	0.1313
326.0085	0.1248
326.2192	0.1216
326.4298	0.1316
326.6404	0.1268
326.851	0.1235
327.0616	0.1279
327.2722	0.1307
327.4828	0.1299
327.6933	0.141
327.9039	0.1269
328.1144	0.1266
328.3249	0.1304
328.5354	0.1285
328.7459	0.125
328.9564	0.133
329.1669	0.1256
329.3773	0.128
329.5878	0.1302
329.7982	0.1344
330.0086	0.1308
330.219	0.1267
330.4294	0.1316
330.6398	0.1381
330.8502	0.1359
331.0605	0.1281
331.2708	0.1243
331.4812	0.1282
331.6915	0.1266
331.9018	0.1286
332.1121	0.14
332.3224	0.1297
332.5326	0.128
332.7429	0.1293
332.9531	0.1353
333.1633	0.1292
333.3735	0.1288
333.5837	0.1365
333.7939	0.1337
334.0041	0.1378
334.2143	0.1316
334.4244	0.141
334.6346	0.1305
334.8447	0.1295
335.0548	0.1397
335.2649	0.1335
335.475	0.1341
335.685	0.1328
335.8951	0.1244
336.1051	0.1378
336.3152	0.1377
336.5252	0.1371
336.7352	0.136
336.9452	0.1382
337.1552	0.1436
337.3652	0.1364
337.5751	0.1386
337.7851	0.1319
337.995	0.1378
338.2049	0.1394
338.4148	0.1435
338.6247	0.1427
338.8346	0.1408
339.0445	0.1416
339.2543	0.1405
339.4642	0.1371
339.674	0.1355
339.8838	0.1428
340.0936	0.1413
340.3034	0.1347
340.5132	0.136
340.7229	0.1404
340.9327	0.146
341.1424	0.1435
341.3522	0.1383
341.5619	0.1426
341.7716	0.1414
341.9813	0.151
342.1909	0.1481
342.4006	0.1495
342.6102	0.1435
342.8199	0.1491
343.0295	0.1425
343.2391	0.1463
343.4487	0.1425
343.6583	0.1553
343.8679	0.1459
344.0774	0.1524
344.287	0.1513
344.4965	0.1604
344.706	0.1532
344.9155	0.1492
345.125	0.1513
345.3345	0.1598
345.544	0.152
345.7534	0.1559
345.9629	0.1629
346.1723	0.1681
346.3817	0.1618
346.5911	0.1598
346.8005	0.1615
347.0099	0.1604
347.2193	0.1697
347.4286	0.1691
347.638	0.1618
347.8473	0.1639
348.0566	0.161
348.2659	0.1631
348.4752	0.1688
348.6845	0.1617
348.8937	0.1621
349.103	0.1688
349.3122	0.1691
349.5214	0.169
349.7306	0.1814
349.9398	0.1714
350.149	0.1729
350.3582	0.1709
350.5674	0.1656
350.7765	0.1769
350.9856	0.1691
351.1948	0.1688
351.4039	0.1736
351.613	0.1735
351.822	0.1813
352.0311	0.1769
352.2402	0.1819
352.4492	0.1794
352.6582	0.1757
352.8672	0.181
353.0762	0.1819
353.2852	0.1761
353.4942	0.1828
353.7032	0.1791
353.9121	0.1789
354.1211	0.1833
354.33	0.1852
354.5389	0.1843
354.7478	0.1775
354.9567	0.1862
355.1655	0.185
355.3744	0.1788
355.5833	0.1858
355.7921	0.1858
356.0009	0.1858
356.2097	0.1758
356.4185	0.1833
356.6273	0.1862
356.8361	0.1921
357.0448	0.1902
357.2536	0.193
357.4623	0.1916
357.671	0.1949
357.8797	0.202
358.0884	0.1866
358.2971	0.1904
358.5057	0.2025
358.7144	0.1956
358.923	0.1994
359.1316	0.1986
359.3402	0.1989
359.5488	0.1969
359.7574	0.1991
359.966	0.2025
360.1746	0.2034
360.3831	0.213
360.5916	0.2059
360.8002	0.2089
361.0087	0.2084
361.2172	0.2088
361.4256	0.201
361.6341	0.2103
361.8426	0.2099
362.051	0.2163
362.2594	0.209
362.4678	0.21
362.6762	0.2121
362.8846	0.2164
363.093	0.2217
363.3014	0.2213
363.5097	0.2143
363.718	0.2245
363.9264	0.2225
364.1347	0.2217
364.343	0.2299
364.5513	0.2186
364.7595	0.2353
364.9678	0.2221
365.176	0.2263
365.3842	0.2264
365.5925	0.2222
365.8007	0.2232
366.0089	0.2353
366.217	0.23
366.4252	0.233
366.6333	0.2418
366.8415	0.2401
367.0496	0.2258
367.2577	0.2376
367.4658	0.2329
367.6739	0.234
367.882	0.2414
368.09	0.24
368.2981	0.2519
368.5061	0.2391
368.7141	0.2428
368.9221	0.2515
369.1301	0.2496
369.3381	0.2496
369.5461	0.2459
369.754	0.2458
369.962	0.2538
370.1699	0.2607
370.3778	0.2596
370.5857	0.2448
370.7936	0.2501
371.0015	0.2527
371.2093	0.2519
371.4172	0.2591
371.625	0.2562
371.8328	0.2607
372.0406	0.2675
372.2484	0.2569
372.4562	0.2647
372.664	0.2568
372.8717	0.2646
373.0795	0.2559
373.2872	0.2667
373.4949	0.2606
373.7026	0.2628
373.9103	0.2565
374.118	0.2683
374.3256	0.2688
374.5333	0.27
374.7409	0.2798
374.9485	0.2645
375.1561	0.2733
375.3637	0.275
375.5713	0.2742
375.7789	0.2677
375.9864	0.2721
376.194	0.2878
376.4015	0.278
376.609	0.2684
376.8165	0.2718
377.024	0.2694
377.2315	0.2787
377.4389	0.2759
377.6464	0.2801
377.8538	0.2741
378.0612	0.2841
378.2686	0.2812
378.476	0.2913
378.6834	0.284
378.8908	0.2845
379.0981	0.2871
379.3055	0.2883
379.5128	0.2894
379.7201	0.2907
379.9274	0.2864
380.1347	0.2906
380.342	0.2979
380.5492	0.2906
380.7565	0.2893
380.9637	0.2904
381.1709	0.294
381.3781	0.3029
381.5853	0.2883
381.7925	0.2949
381.9997	0.3022
382.2068	0.2971
382.4139	0.2901
382.6211	0.2964
382.8282	0.306
383.0353	0.3055
383.2424	0.2965
383.4494	0.3004
383.6565	0.3042
383.8635	0.3027
384.0706	0.2995
384.2776	0.2975
384.4846	0.2995
384.6916	0.3045
384.8986	0.3062
385.1055	0.3107
385.3125	0.3121
385.5194	0.3091
385.7263	0.2922
385.9333	0.2988
386.1402	0.3136
386.347	0.3041
386.5539	0.3046
386.7608	0.3087
386.9676	0.3106
387.1744	0.3061
387.3813	0.3074
387.5881	0.2949
387.7948	0.3073
388.0016	0.3078
388.2084	0.2977
388.4151	0.3079
388.6219	0.2922
388.8286	0.3037
389.0353	0.3027
389.242	0.3025
389.4487	0.3065
389.6553	0.2947
389.862	0.2929
390.0686	0.307
390.2753	0.3039
390.4819	0.3019
390.6885	0.2994
390.8951	0.29
391.1016	0.2903
391.3082	0.2945
391.5147	0.2897
391.7213	0.2852
391.9278	0.2913
392.1343	0.2937
392.3408	0.2884
392.5473	0.2848
392.7537	0.2842
392.9602	0.2759
393.1666	0.2876
393.373	0.2807
393.5794	0.2755
393.7858	0.2909
393.9922	0.2844
394.1986	0.269
394.4049	0.2824
394.6113	0.2805
394.8176	0.2841
395.0239	0.2718
395.2302	0.2706
395.4365	0.2807
395.6428	0.2752
395.8491	0.2674
396.0553	0.2705
396.2615	0.2671
396.4678	0.2733
396.674	0.2654
396.8802	0.2706
397.0863	0.2615
397.2925	0.2684
397.4987	0.2632
397.7048	0.269
397.9109	0.2565
398.117	0.2616
398.3231	0.2631
398.5292	0.2539
398.7353	0.2572
398.9413	0.2579
399.1474	0.2596
399.3534	0.2585
399.5594	0.2671
399.7654	0.2527
399.9714	0.2598
400.1774	0.2639
400.3833	0.2571
400.5893	0.2627
400.7952	0.2728
401.0011	0.2599
401.207	0.2612
401.4129	0.2582
401.6188	0.2588
401.8247	0.2699
402.0305	0.2595
402.2364	0.2683
402.4422	0.2622
402.648	0.2542
402.8538	0.253
403.0596	0.2523
403.2654	0.2566
403.4711	0.2573
403.6768	0.2483
403.8826	0.2638
404.0883	0.2563
404.294	0.2648
404.4997	0.2602
404.7054	0.2587
404.911	0.2576
405.1167	0.2592
405.3223	0.2546
405.5279	0.2546
405.7335	0.2556
405.9391	0.2549
406.1447	0.264
406.3502	0.2542
406.5558	0.2573
406.7613	0.258
406.9668	0.2594
407.1724	0.2553
407.3778	0.266
407.5833	0.2552
407.7888	0.2604
407.9942	0.257
408.1997	0.2574
408.4051	0.2593
408.6105	0.2642
408.8159	0.258
409.0213	0.2649
409.2267	0.2666
409.432	0.2505
409.6374	0.2533
409.8427	0.268
410.048	0.256
410.2533	0.2643
410.4586	0.2546
410.6639	0.2586
410.8691	0.2482
411.0744	0.2527
411.2796	0.2568
411.4848	0.2623
411.69	0.2514
411.8952	0.266
412.1004	0.2603
412.3056	0.2617
412.5107	0.2592
412.7158	0.2716
412.921	0.2576
413.1261	0.2494
413.3312	0.2567
413.5362	0.2626
413.7413	0.2498
413.9464	0.2556
414.1514	0.2493
414.3564	0.2535
414.5614	0.2563
414.7664	0.2487
414.9714	0.255
415.1764	0.2484
415.3813	0.2487
415.5863	0.2553
415.7912	0.2425
415.9961	0.2366
416.201	0.2635
416.4059	0.249
416.6108	0.2513
416.8156	0.2459
417.0205	0.2514
417.2253	0.2465
417.4301	0.2511
417.6349	0.2455
417.8397	0.25
418.0445	0.2451
418.2492	0.2488
418.454	0.2519
418.6587	0.2567
418.8634	0.2574
419.0681	0.2487
419.2728	0.248
419.4775	0.2448
419.6822	0.2406
419.8868	0.2406
420.0915	0.2383
420.2961	0.2332
420.5007	0.2446
420.7053	0.2374
420.9099	0.2403
421.1144	0.2432
421.319	0.236
421.5235	0.227
421.728	0.2439
421.9325	0.2442
422.137	0.2381
422.3415	0.2378
422.546	0.2312
422.7504	0.2359
422.9549	0.2332
423.1593	0.2314
423.3637	0.2291
423.5681	0.2373
423.7725	0.2248
423.9769	0.2225
424.1812	0.2177
424.3856	0.216
424.5899	0.2206
424.7942	0.2227
424.9985	0.2217
425.2028	0.2237
425.4071	0.2335
425.6113	0.2202
425.8156	0.2119
426.0198	0.2216
426.224	0.2249
426.4282	0.2088
426.6324	0.204
426.8366	0.2069
427.0407	0.2104
427.2449	0.212
427.449	0.2054
427.6531	0.2133
427.8572	0.2109
428.0613	0.2069
428.2654	0.2096
428.4694	0.1903
428.6735	0.2054
428.8775	0.1957
429.0815	0.2091
429.2855	0.1918
429.4895	0.1967
429.6935	0.2001
429.8975	0.1994
430.1014	0.1941
430.3053	0.2
430.5093	0.1831
430.7132	0.1855
430.9171	0.1851
431.1209	0.1939
431.3248	0.1747
431.5286	0.1828
431.7325	0.1894
431.9363	0.1859
432.1401	0.1785
432.3439	0.1775
432.5477	0.1804
432.7514	0.1743
432.9552	0.1691
433.1589	0.1724
433.3627	0.1704
433.5664	0.166
433.7701	0.1604
433.9737	0.1684
434.1774	0.1657
434.3811	0.1512
434.5847	0.1636
434.7883	0.1586
434.9919	0.1439
435.1955	0.1543
435.3991	0.1544
435.6027	0.1422
435.8062	0.1653
436.0098	0.1431
436.2133	0.143
436.4168	0.1449
436.6203	0.1402
436.8238	0.1346
437.0272	0.1395
437.2307	0.1303
437.4341	0.1435
437.6375	0.1385
437.841	0.1248
438.0443	0.1377
438.2477	0.1208
438.4511	0.1245
438.6545	0.1246
438.8578	0.1229
439.0611	0.131
439.2644	0.1244
439.4677	0.1205
439.671	0.1042
439.8743	0.1172
440.0775	0.1156
440.2808	0.1111
440.484	0.1065
440.6872	0.1123
440.8904	0.098
441.0936	0.0964
441.2967	0.0948
441.4999	0.0997
441.703	0.0999
441.9062	0.1036
442.1093	0.1046
442.3124	0.089
442.5155	0.0997
442.7185	0.094
442.9216	0.088
443.1246	0.0932
443.3276	0.0949
443.5307	0.0803
443.7337	0.0903
443.9366	0.085
444.1396	0.0845
444.3426	0.0765
444.5455	0.0824
444.7484	0.0728
444.9513	0.0642
445.1542	0.0731
445.3571	0.0824
445.56	0.0618
445.7628	0.0641
445.9657	0.0737
446.1685	0.0703
446.3713	0.0729
446.5741	0.0747
446.7769	0.0754
446.9797	0.0644
447.1824	0.0688
447.3852	0.0617
447.5879	0.0669
447.7906	0.06
447.9933	0.0674
448.196	0.0514
448.3986	0.0609
448.6013	0.0484
448.8039	0.0579
449.0066	0.0646
449.2092	0.0664
449.4118	0.0549
449.6143	0.0625
449.8169	0.054
450.0195	0.0406
450.222	0.0526
450.4245	0.0556
450.627	0.0423
450.8295	0.0425
451.032	0.0497
451.2345	0.0418
451.4369	0.0418
451.6394	0.0403
451.8418	0.0448
452.0442	0.038
452.2466	0.0379
452.449	0.0402
452.6513	0.0331
452.8537	0.036
453.056	0.0384
453.2583	0.0299
453.4607	0.0336
453.663	0.0417
453.8652	0.0295
454.0675	0.0438
454.2697	0.0301
454.472	0.0302
454.6742	0.0326
454.8764	0.037
455.0786	0.0301
455.2808	0.0296
455.4829	0.0364
455.6851	0.0241
455.8872	0.0234
456.0893	0.0282
456.2915	0.0256
456.4935	0.0229
456.6956	0.0191
456.8977	0.0234
457.0997	0.037
457.3018	0.0208
457.5038	0.0238
457.7058	0.0266
457.9078	0.034
458.1098	0.0228
458.3117	0.0349
458.5137	0.0167
458.7156	0.0279
458.9175	0.0206
459.1194	0.0299
459.3213	0.0228
459.5232	0.0212
459.725	0.0234
459.9269	0.0271
460.1287	0.015
460.3305	0.0244
460.5323	0.0135
460.7341	0.0296
460.9359	0.0139
461.1376	0.0179
461.3394	0.0189
461.5411	0.0258
461.7428	0.0191
461.9445	0.0162
462.1462	0.0194
462.3479	0.0088
462.5495	0.0142
462.7512	0.0218
462.9528	0.0244
463.1544	0.0147
463.356	0.0128
463.5576	0.0266
463.7592	0.0136
463.9607	0.019
464.1623	0.0091
464.3638	0.0045
464.5653	0.0192
464.7668	0.0117
464.9683	0.0144
465.1697	0.0136
465.3712	0.0099
465.5726	0.0139
465.7741	0.0187
465.9755	0.0143
466.1769	0.0036
466.3782	0.0098
466.5796	0.0204
466.7809	0.0113
466.9823	0.0182
467.1836	0.0053
467.3849	0.0088
467.5862	0.0033
467.7875	0.0069
467.9887	0.0173
468.19	0.0094
468.3912	0.0175
468.5924	0.0096
468.7936	0.0148
468.9948	0.0062
469.196	0.0075
469.3972	0
469.5983	0.008
469.7994	0.0197
470.0006	0.0162
470.2017	0.0122
470.4027	0.0254
470.6038	0.0162
470.8049	0.0102
471.0059	0.0174
471.2069	0.0165
471.408	0.0165
471.6089	0.0123
471.8099	0.0127
472.0109	0.0192
472.2119	0.0166
472.4128	0.0013
472.6137	0.0164
472.8146	0.0097
473.0155	0.0166
473.2164	0.0049
473.4173	0.0016
473.6181	0.001
473.819	0.0093
474.0198	0.0054
474.2206	0.0057
474.4214	0.0089
474.6222	0.0004
474.8229	0.005
475.0237	0.008
475.2244	0.0099
475.4251	0.0045
475.6258	0.0067
475.8265	0.0093
476.0272	-0.0066
476.2278	0.0106
476.4285	0.0054
476.6291	0.0121
476.8297	0.0083
477.0303	0.0083
477.2309	0.0155
477.4315	0.0115
477.632	-0.0037
477.8326	0.0062
478.0331	0.0172
478.2336	0.0072
478.4341	0.0127
478.6346	0.0006
478.8351	0.0025
479.0355	0.0194
479.236	0.0169
479.4364	0.0042
479.6368	0.0128
479.8372	0.0047
480.0376	0.0127
480.2379	0.0081
480.4383	0.0207
480.6386	-0.0013
480.8389	0.0066
481.0392	0.0022
481.2395	0.0148
481.4398	0.0134
481.6401	0.0077
481.8403	0.0037
482.0405	0.0089
482.2408	0.0071
482.441	0.0023
482.6411	0.0062
482.8413	0.0099
483.0415	0.0135
483.2416	0.0082
483.4417	0.0115
483.6419	-0.0037
483.8419	0.0088
484.042	0.011
484.2421	0.0054
484.4422	-0.0008
484.6422	0.004
484.8422	0.0062
485.0422	0.0016
485.2422	0.0035
485.4422	0.0033
485.6422	0.0038
485.8421	0.0046
486.042	0.0097
486.242	0.0063
486.4419	0.0063
486.6417	0.0033
486.8416	0.0075
487.0415	0.0003
487.2413	-0.0014
487.4411	0.0064
487.641	0.0058
487.8408	0.0124
488.0405	0.0093
488.2403	0.0012
488.4401	0.0073
488.6398	0.0088
488.8395	0.0047
489.0392	0.0078
489.2389	0.0145
489.4386	-0.0043
489.6383	0.0095
489.8379	-0.0008
490.0376	0.0109
490.2372	0.0031
490.4368	-0.0041
490.6364	0.0018
490.836	0.0073
491.0355	-0.0008
491.2351	0.0045
491.4346	0.0108
491.6341	-0.0021
491.8336	0.0084
492.0331	0.0081
492.2326	0.0038
492.432	0.0098
492.6315	0.0171
492.8309	0.0116
493.0303	0.0022
493.2297	0.0036
493.4291	0.0022
493.6284	0.0182
493.8278	0.0033
494.0271	0.004
494.2264	0
494.4257	0.0073
494.625	0.0037
494.8243	0.0023
495.0236	0.0085
495.2228	0.0095
495.422	0.0101
495.6213	0.0006
495.8205	0.0089
496.0196	0.0091
496.2188	0.0063
496.418	0.0053
496.6171	-0.0042
496.8162	0.0053
497.0153	0.0068
497.2144	0.0115
497.4135	0.0025
497.6126	0.0045
497.8116	0.0059
498.0107	0.0082
498.2097	0.0124
498.4087	0.0027
498.6077	-0.0102
498.8067	-0.0019
499.0056	-0.0043
499.2046	0.0144
499.4035	0.0088
499.6024	-0.0035
499.8013	0.0059
500.0002	0.0098
500.199	0.0084
500.3979	-0.0018
500.5967	0.0052
500.7956	0.0116
500.9944	0.0005
501.1932	0.0067
501.3919	0.013
501.5907	0.0083
501.7895	0.0047
501.9882	0.0085
502.1869	0.0119
502.3856	0.0013
502.5843	0.0066
502.783	0.007
502.9816	0.0176
503.1803	0.0124
503.3789	0.0102
503.5775	-0.0006
503.7761	0.0019
503.9747	0.0086
504.1732	-0.0054
504.3718	0.0157
504.5703	0.0014
504.7689	-0.002
504.9674	-0.0042
505.1658	0.0058
505.3643	0.019
505.5628	0.0121
505.7612	0.0044
505.9597	-0.0018
506.1581	0.0007
506.3565	0.0088
506.5549	0.0016
506.7532	0.003
506.9516	0.0084
507.1499	0.0062
507.3482	0.0044
507.5465	0.0051
507.7448	0.0038
507.9431	0.0071
508.1414	-0.0009
508.3396	0.0064
508.5379	0.0049
508.7361	0.0104
508.9343	0.01
509.1325	0.0097
509.3306	0.0098
509.5288	0.0001
509.7269	0.0034
509.9251	0.0025
510.1232	0.0084
510.3213	0.0021
510.5193	0.0043
510.7174	0.0076
510.9154	0.0036
511.1135	-0.0003
511.3115	0.0077
511.5095	0.0049
511.7075	0.0028
511.9055	0.0062
512.1034	0.0054
512.3014	0.0043
512.4993	0.0104
512.6972	0.0057
512.8951	0.0108
513.093	-0
513.2908	0.0187
513.4887	0.0026
513.6865	0.0075
513.8844	0.0122
514.0822	0.0035
514.2799	-0.0015
514.4777	-0.002
514.6755	-0.001
514.8732	0.0013
515.0709	0.0024
515.2687	0.009
515.4664	0.0079
515.664	0.0062
515.8617	0.018
516.0594	0.0142
516.257	0.0035
516.4546	0.0202
516.6522	0.0062
516.8498	0.0035
517.0474	0.0091
517.2449	0.0072
517.4425	0.0066
517.64	0.0055
517.8375	0.0008
518.035	0.0023
518.2325	0.0001
518.43	-0.0003
518.6274	0.0047
518.8249	0.0045
519.0223	0.0178
519.2197	0.0016
519.4171	-0.0077
519.6145	0.0105
519.8118	-0.0014
520.0092	-0.002
520.2065	0.0177
520.4038	0.0094
520.6011	0.0093
520.7984	0.0133
520.9956	0.0183
521.1929	0.011
521.3901	0.0131
521.5874	0.011
521.7846	0.0086
521.9818	0.0007
522.1789	0.0027
522.3761	0.0103
522.5732	0.0028
522.7704	-0.0079
522.9675	-0.0078
523.1646	0.0032
523.3617	0.0102
523.5587	0.0023
523.7558	0.0029
523.9528	0.0138
524.1498	0.0042
524.3468	0.0056
524.5438	0.0057
524.7408	-0.0067
524.9378	0.0071
525.1347	0.005
525.3316	0.0033
525.5285	0.0039
525.7254	0.0085
525.9223	0.013
526.1192	0.0164
526.316	0.0106
526.5129	0.0006
526.7097	-0.0019
526.9065	0.0063
527.1033	0.01
527.3	0.0034
527.4968	0.011
527.6935	-0.0036
527.8903	0.0098
528.087	-0.0021
528.2837	0.0224
528.4804	0.0051
528.677	0.0095
528.8737	0.0079
529.0703	0.0076
529.2669	0.0018
529.4635	0.0026
529.6601	0.0046
529.8567	0.0002
530.0532	0.0041
530.2498	0.0167
530.4463	-0.0063
530.6428	0.0138
530.8393	0.0098
531.0358	0.0029
531.2322	0.0009
531.4287	0.0038
531.6251	-0.0025
531.8215	-0.001
532.0179	0.0041
532.2143	0.0056
532.4107	0.0092
532.607	0.0029
532.8034	0.0031
532.9997	0.0033
533.196	-0.0035
533.3923	0.013
533.5886	0.015
533.7848	0.005
533.9811	0.0146
534.1773	0.0087
534.3735	0.0082
534.5697	0.0072
534.7659	0.0078
534.9621	0.0031
535.1582	0.0056
535.3544	0.003
535.5505	0.0014
535.7466	0.0071
535.9427	0.003
536.1387	0.003
536.3348	0.0133
536.5308	0.0061
536.7269	0.0021
536.9229	0.0051
537.1189	0.0165
537.3148	0.0103
537.5108	0.0017
537.7068	0.0121
537.9027	-0.0034
538.0986	0.0109
538.2945	0.0025
538.4904	-0.0049
538.6863	0.0146
538.8821	0.0038
539.078	0.0098
539.2738	0.006
539.4696	0.0002
539.6654	0.0156
539.8611	0.0046
540.0569	0.007
540.2526	0.0068
540.4484	0.0024
540.6441	-0.0028
540.8398	0.019
541.0355	0.0016
541.2311	0.0085
541.4268	0.0099
541.6224	0.0205
541.818	0.0138
542.0136	0.0097
542.2092	0.0079
542.4048	-0.0027
542.6003	0.0016
542.7959	0.0122
542.9914	0.0024
543.1869	0.0076
543.3824	0.004
543.5779	0.0116
543.7734	0.009
543.9688	0.019
544.1642	0.0056
544.3596	0.0106
544.555	0.011
544.7504	0.0104
544.9458	0.0034
545.1411	0.003
545.3365	0.0092
545.5318	0.0062
545.7271	0.0029
545.9224	0.0049
546.1177	0.0082
546.3129	0.009
546.5081	0.0042
546.7034	0.0005
546.8986	0.0062
547.0938	0.0066
547.289	0.0117
547.4841	0.0117
547.6793	0.0063
547.8744	0.0069
548.0695	0.0075
548.2646	0.0034
548.4597	0.0054
548.6548	0.0162
548.8498	0.0032
549.0448	0.0043
549.2399	0.0209
549.4349	0.0012
549.6298	0.0015
549.8248	0.0031
550.0198	0.0122
550.2147	0.0071
550.4096	-0.0118
550.6045	0.0124
550.7994	0.0047
550.9943	0.0111
551.1892	-0.0041
551.384	0.0174
551.5788	0.0016
551.7737	0.0119
551.9685	0.0158
552.1632	-0.0015
552.358	0.0022
552.5528	0.0072
552.7475	0.0033
552.9422	0.0104
553.1369	0.0109
553.3316	0.0092
553.5263	0.01
553.7209	0.0065
553.9156	0.0041
554.1102	-0.0032
554.3048	0.0027
554.4994	-0.0023
554.694	0.0096
554.8885	0.0087
555.0831	0.0098
555.2776	0.0173
555.4721	0.0109
555.6666	0.0056
555.8611	0.0028
556.0555	0.0172
556.25	0.0076
556.4444	0.0113
556.6388	0.0003
556.8332	0.0022
557.0276	0.0095
557.222	0.0019
557.4163	0.0074
557.6107	0.0059
557.805	-0.0028
557.9993	0.0112
558.1936	-0.0038
558.3879	-0.0025
558.5821	0.003
558.7764	-0.0047
558.9706	-0.0006
559.1648	0.0053
559.359	0.0037
559.5532	-0.0039
559.7473	-0.0036
559.9415	0.0003
560.1356	0.0146
560.3297	-0.0015
560.5238	0.0077
560.7179	0.0018
560.9119	0.0058
561.106	0.0004
561.3	-0.0027
561.494	0.0014
561.688	-0.003
561.882	-0.007
562.076	0.0045
562.2699	0.0108
562.4639	0.0111
562.6578	0.0068
562.8517	0.0031
563.0456	0.0012
563.2395	0.0123
563.4333	0.0096
563.6272	0.0135
563.821	0.0067
564.0148	0.004
564.2086	0.0082
564.4024	0.0099
564.5961	0.005
564.7899	0.0159
564.9836	0.003
565.1773	0.0041
565.371	0.0029
565.5647	0.0123
565.7584	0.0101
565.952	0.0019
566.1456	0.0051
566.3393	0.0016
566.5329	0.0006
566.7264	0.0114
566.92	-0.0017
567.1136	0.0002
567.3071	0.0047
567.5006	0.0063
567.6941	0.005
567.8876	0.0023
568.0811	0.0108
568.2745	0.0024
568.468	0.0037
568.6614	0.014
568.8548	0.0087
569.0482	0.0081
569.2416	0.0058
569.4349	0.0044
569.6283	-0.001
569.8216	0.0057
570.0149	0.004
570.2082	0.0094
570.4015	0.0064
570.5947	0.0047
570.788	0.0018
570.9812	0.0019
571.1744	0.0068
571.3676	0.0029
571.5608	0.0045
571.754	0.0131
571.9471	0.0079
572.1402	0.0023
572.3333	0.0108
572.5264	0.0058
572.7195	0.0032
572.9126	0.0041
573.1057	0.0061
573.2987	0.0066
573.4917	0.002
573.6847	0.0037
573.8777	0.0074
574.0707	0.0028
574.2636	0.005
574.4566	0.0017
574.6495	0.001
574.8424	0.0013
575.0353	0.0088
575.2281	0.0066
575.421	0.0042
575.6138	0.0015
575.8067	0.0115
575.9995	0.0037
576.1923	0.0058
576.385	0.0055
576.5778	0.008
576.7706	0.0056
576.9633	0.0087
577.156	-0.0026
577.3487	0.0038
577.5414	0.0029
577.734	0.0021
577.9267	0.0072
578.1193	0.0065
578.3119	0.003
578.5045	0.0024
578.6971	0.0021
578.8897	-0.0001
579.0822	0.0077
579.2747	0.001
579.4673	0.0023
579.6598	0.0068
579.8522	0.0059
580.0447	0.0098
580.2372	0.0053
580.4296	0.0072
580.622	0.0032
580.8144	0.0038
581.0068	0.0068
581.1992	0.0047
581.3915	0
581.5839	0.0056
581.7762	0.0046
581.9685	0.0052
582.1608	0.0037
582.353	0.0067
582.5453	0.0023
582.7375	0.0032
582.9298	-0.0008
583.122	-0.0008
583.3142	0.0077
583.5063	0.0049
583.6985	0.0009
583.8906	0.0021
584.0827	0.0072
584.2749	0.0015
584.4669	0.0029
584.659	0.0062
584.8511	0.0091
585.0431	0.0067
585.2352	0.0049
585.4272	0.0045
585.6192	0.0074
585.8111	0.005
586.0031	-0.0002
586.195	0.0047
586.387	0.0046
586.5789	0.0055
586.7708	0.0097
586.9627	0.0079
587.1545	0.0066
587.3464	0.0029
587.5382	-0
587.73	0.0077
587.9218	-0.0013
588.1136	-0.0009
588.3053	0.0018
588.4971	0.0045
588.6888	0.001
588.8805	0.0066
589.0722	0.0115
589.2639	0.0043
589.4556	0.0074
589.6472	0.0138
589.8389	0.0037
590.0305	0.0022
590.2221	0.0059
590.4137	-0.0027
590.6052	0.0009
590.7968	0.001
590.9883	0.0062
591.1798	0.0059
591.3713	0.0052
591.5628	0.0042
591.7543	0.0053
591.9458	0.0007
592.1372	-0.0004
592.3286	0.0018
592.52	0.0062
592.7114	-0.0015
592.9028	0.0057
593.0941	0.0017
593.2855	0.0002
593.4768	0.0074
593.6681	0.0065
593.8594	0.0098
594.0506	0.0055
594.2419	0.0037
594.4331	0.0061
594.6244	0.0025
594.8156	0.0083
595.0067	0.0001
595.1979	0.0035
595.3891	0.008
595.5802	0.0081
595.7713	0.0082
595.9624	0.0087
596.1535	0.0061
596.3446	-0.0008
596.5357	0.01
596.7267	0.0028
596.9177	0.0049
597.1087	0.001
597.2997	0.0007
597.4907	0.003
597.6817	0.0123
597.8726	0.0018
598.0635	0.0041
598.2544	0.0095
598.4453	0.0027
598.6362	0.0024
598.827	-0.0001
599.0179	0.0059
599.2087	0.0066
599.3995	0.0096
599.5903	0.0043
599.7811	0.0102
599.9718	0.0027
600.1626	-0.0035
600.3533	0.003
600.544	0.0007
600.7347	0.0084
600.9254	0.0139
601.116	0.0033
601.3067	-0.0032
601.4973	0.0076
601.6879	0.008
601.8785	0.0087
602.0691	0.0023
602.2596	0.006
602.4502	0.0073
602.6407	0.0072
602.8312	-0.0002
603.0217	0.0012
603.2122	-0.0015
603.4027	0.0024
603.5931	0.0045
603.7835	0.007
603.9739	0.0034
604.1643	0.0084
604.3547	0.0079
604.5451	0.0149
604.7354	-0.0029
604.9257	0.0046
605.116	-0.0055
605.3063	0.0044
605.4966	0.0004
605.6869	0.0079
605.8771	0.0093
606.0673	0.0025
606.2575	0.0023
606.4477	0.0067
606.6379	-0.0005
606.8281	0.0001
607.0182	0.0052
607.2083	0.0031
607.3985	0.0074
607.5885	0.0041
607.7786	-0.0011
607.9687	0.0093
608.1587	0.0067
608.3488	0.0065
608.5388	-0.005
608.7288	-0.0005
608.9187	0.0066
609.1087	0.0061
609.2986	0.0072
609.4886	0.0069
609.6785	0.0027
609.8684	0.0045
610.0582	0.0065
610.2481	-0.0037
610.4379	0.0044
610.6278	0.0053
610.8176	0.0061
611.0074	0.004
611.1971	0.0038
611.3869	0.0075
611.5766	-0.0048
611.7664	0.0056
611.9561	0.0053
612.1458	0.0067
612.3354	0.0101
612.5251	0.0048
612.7147	0.0162
612.9044	0.0047
613.094	0.0087
613.2836	0.0012
613.4731	-0.0047
613.6627	0.0117
613.8522	0.0099
614.0417	0.0085
614.2313	-0.0005
614.4207	-0.0006
614.6102	0.008
614.7997	0.0092
614.9891	0.0062
615.1785	0.0038
615.3679	0.0071
615.5573	0.0082
615.7467	0.0018
615.9361	0.0016
616.1254	0.0064
616.3147	0.005
616.504	0.0069
616.6933	0.0032
616.8826	0.0014
617.0718	0.0109
617.2611	0.0026
617.4503	0.0092
617.6395	0.0088
617.8287	0.0101
618.0179	0.0041
618.207	0.0124
618.3961	-0.0023
618.5853	0.0005
618.7744	0.0056
618.9634	0.0159
619.1525	0.0057
619.3416	0.003
619.5306	0.0056
619.7196	0.0145
619.9086	0.0043
620.0976	-0.0037
620.2866	0.0029
620.4755	-0.0004
620.6645	0.0221
620.8534	0.017
621.0423	0.006
621.2312	-0.0026
621.42	-0.0049
621.6089	0.0037
621.7977	0.009
621.9865	-0.0034
622.1753	-0.0018
622.3641	0.0033
622.5529	-0.0039
622.7416	0.0072
622.9303	0.0044
623.1191	0.0125
623.3078	0.0108
623.4964	0.0138
623.6851	0.012
623.8737	0.009
624.0624	-0.0061
624.251	0.0034
624.4396	0.004
624.6282	0.0132
624.8167	0.0107
625.0053	0.0091
625.1938	0.0041
625.3823	0.0041
625.5708	-0.0042
625.7593	0.0086
625.9477	0.0089
626.1362	0.0019
626.3246	0.0062
626.513	0.002
626.7014	0.0135
626.8898	0.015
627.0781	0.0002
627.2665	0.0141
627.4548	-0.0069
627.6431	0.0116
627.8314	0.0183
628.0197	0.0091
628.2079	0.0128
628.3962	0.0041
628.5844	0.0037
628.7726	-0.0006
628.9608	0.0035
629.1489	0.0048
629.3371	-0.0005
629.5252	0.0153
629.7134	0.0019
629.9015	0.0006
630.0895	0.0004
630.2776	0.0031
630.4657	0.0077
630.6537	-0.0007
630.8417	0.0015
631.0297	-0.0057
631.2177	0.0103
631.4057	0.0052
631.5936	0.0028
631.7815	0.0086
631.9695	0.0102
632.1574	0.0024
632.3452	0.0186
632.5331	-0.0066
632.7209	0.0133
632.9088	0.0175
633.0966	0.0164
633.2844	0.0119
633.4722	0.0031
633.6599	0.0138
633.8477	-0.0001
634.0354	0.0097
634.2231	-0.0064
634.4108	0.0071
634.5985	0.0091
634.7861	0.0018
634.9738	-0.0154
635.1614	0.0175
635.349	0.0007
635.5366	0.0146
635.7242	0.0073
635.9117	0.0037
636.0993	0.0159
636.2868	-0.0005
636.4743	0.0011
636.6618	-0.0093
636.8492	0.0102
637.0367	-0.0013
637.2241	-0.0008
637.4115	0.0167
637.5989	-0.0049
637.7863	0.0206
637.9737	0.0069
638.161	0.0023
638.3484	-0.0043
638.5357	0.004
638.723	0.0082
638.9103	-0.0012
639.0975	0.0075
639.2848	0.0235
639.472	0.0279
639.6592	-0.0032
639.8464	0.0033
640.0336	0.0029
640.2208	-0.0073
640.4079	-0.003
640.595	-0.0003
640.7821	0.0146
640.9692	0.0166
641.1563	-0.0015
641.3434	0.0127
641.5304	0.0116
641.7174	-0.003
641.9044	0.0191
642.0914	0.0051
642.2784	-0.0039
642.4653	0.0003
642.6523	0.0012
642.8392	-0.0006
643.0261	0.0139
643.213	0.0099
643.3999	0.014
643.5867	0.0111
643.7735	0.0076
643.9604	0.0135
644.1472	0.0142
644.3339	0.0024
644.5207	0.01
644.7075	0.0059
644.8942	-0.0097
645.0809	0.0046
645.2676	0.0008
645.4543	0.0062
645.6409	0.0185
645.8276	-0.0009
646.0142	0.0188
646.2008	-0.0048
646.3874	0.0043
646.574	-0.0072
646.7605	-0.0035
646.9471	-0.0122
647.1336	-0.0106
647.3201	0.013
647.5066	0.0133
647.6931	-0.0096
647.8795	0.0031
648.0659	0.0063
648.2524	0.0139
648.4388	0.0115
648.6252	0.0125
648.8115	-0.0033
648.9979	0.0019
649.1842	0.0084
649.3705	0.0123
649.5568	-0.0205
649.7431	0.0064
649.9294	-0.0058
650.1156	0.0045
650.3018	0.0089
650.488	-0.0014
650.6742	-0.0016
650.8604	0.0021
651.0466	-0.0016
651.2327	0.0036
651.4188	-0.0163
651.6049	0.0281
651.791	0.0007
651.9771	-0.0009
652.1632	0.0246
652.3492	-0.0058
652.5352	0.0166
652.7212	-0.0026
652.9072	-0.0019
653.0932	0.01
653.2791	0.0276
653.465	0.0178
653.651	0.0169
653.8369	-0.0105
654.0227	-0.0123
654.2086	0.0113
654.3944	0.0261
654.5803	0.0062
654.7661	-0.0002
654.9519	-0.0001
655.1377	0
655.3234	0
655.5092	0
655.6949	0
655.8806	0
656.0663	0
656.2519	0
656.4376	0
656.6232	0
656.8088	0
656.9945	0
657.18	0
657.3656	0
657.5511	0
657.7367	0
657.9222	0
658.1077	0
658.2932	0
658.4786	0
658.6641	0
658.8495	0
659.0349	0
659.2203	0
659.4057	0
659.591	0.1315
659.7764	0.0287
659.9617	-0.0014
660.147	0.0134
660.3323	0.0052
660.5176	0.0049
660.7028	-0.0141
660.888	0.0225
661.0733	0.015
661.2585	-0.013
661.4436	0.0067
661.6288	0.0068
661.8139	0.0077
661.9991	-0.0118
662.1842	-0.0077
662.3693	0.0123
662.5544	0.0077
662.7394	0.0336
662.9245	-0.0018
663.1095	-0.0188
663.2945	-0.0132
663.4795	-0.0115
663.6644	0.0049
663.8494	0.0067
664.0343	0.0078
664.2193	-0.0015
664.4042	-0.0007
664.589	-0.0101
664.7739	0.0194
664.9587	-0.0006
665.1436	-0.0074
665.3284	0.0198
665.5132	-0.0262
665.698	0.0037
665.8827	0.0276
666.0675	-0.0064
666.2522	0.0086
666.4369	-0.0054
666.6216	0.0032
666.8063	-0.0026
666.9909	0.0056
667.1756	0.0041
667.3602	0.0251
667.5448	0.0083
667.7294	0.0187
667.9139	0.0085
668.0985	-0.0059
668.283	0.0108
668.4675	0.0221
668.652	0.005
668.8365	-0.0045
669.0209	0.027
669.2054	0.0143
669.3898	0.0017
669.5742	0.0264
669.7586	0.0089
669.943	0.0059
670.1273	-0.0105
670.3117	0.0249
670.496	-0.0008
670.6803	0.0215
670.8646	-0.0198
671.0488	0.027
671.2331	-0.0166
671.4173	0.0086
671.6015	0.0021
671.7857	0.0105
671.9699	0.0179
672.1541	-0.0009
672.3382	0.0105
672.5223	0.0051
672.7064	-0.003
672.8905	-0.0123
673.0746	0.0004
673.2587	0.0158
673.4427	0.0176
673.6267	0.0039
673.8107	0.0063
673.9947	0.0091
674.1787	0.0209
674.3626	0.0113
674.5465	0.014
674.7304	-0.0018
674.9143	0.0079
675.0982	-0.0023
675.2821	-0.0005
675.4659	-0.0048
675.6497	0.0239
675.8335	0.004
676.0173	-0.0123
676.2011	0.0206
676.3849	-0.0148
676.5686	0.02
676.7523	0.0159
676.936	0.0085
677.1197	0.0146
677.3034	0.0287
677.487	0.015
677.6706	0.0028
677.8542	0.0026
678.0378	0.0204
678.2214	0.0015
678.405	0.0052
678.5885	0.012
678.772	0.0057
678.9555	-0.0016
679.139	0.0142
679.3225	-0.0042
679.5059	-0.0054
679.6894	0.009
679.8728	0.0021
680.0562	-0.0008
680.2395	-0.0053
680.4229	-0.0019
680.6062	0.0095
680.7896	-0.0064
680.9729	0.0303
681.1562	-0.0111
681.3394	-0.0015
681.5227	0.0072
681.7059	0.0089
681.8891	0.0057
682.0723	0.0103
682.2555	0.0048
682.4387	0.0145
682.6218	0.0039
682.805	0.0062
682.9881	0.0321
683.1712	0.0157
683.3542	0.0184
683.5373	-0.0109
683.7203	0.0212
683.9034	-0.0012
684.0864	0.0135
684.2694	-0.005
684.4523	0.0026
684.6353	-0.011
684.8182	-0.0005
685.0011	0.0167
685.184	0.0007
685.3669	0.0261
685.5498	0.0092
685.7326	-0.0042
685.9154	-0.0084
686.0982	0.0063
686.281	0.0003
686.4638	-0.0057
686.6465	-0.0026
686.8293	-0.0149
687.012	0.012
687.1947	0.0003
687.3774	0.0075
687.56	0.0006
687.7427	-0.0118
687.9253	-0.0162
688.1079	0.0081
688.2905	0.0001
688.4731	0.0105
688.6556	0.0103
688.8382	-0.0134
689.0207	0.0097
689.2032	0.0081
689.3857	-0.007
689.5681	-0.0207
689.7506	0.0439
689.933	0.0054
690.1154	0.0145
690.2978	-0.0018
690.4802	0.0221
690.6626	0.0132
690.8449	0.0007
691.0272	-0.0108
691.2095	-0.0247
691.3918	0.0062
691.5741	-0.0072
691.7563	0.0136
691.9386	0.0078
692.1208	0.0196
692.303	-0.0096
692.4852	-0.0056
692.6673	0.001
692.8495	-0.016
693.0316	0.0071
693.2137	0.0174
693.3958	-0.0099
693.5778	0.012
693.7599	-0.027
693.9419	-0.0078
694.1239	0.0141
694.3059	0.0059
694.4879	0.0154
694.6699	0.007
694.8518	0.014
695.0337	0.0089
695.2157	0.0402
695.3975	-0.0222
695.5794	-0.0039
695.7613	0.0018
695.9431	-0.0284
696.1249	0.0008
696.3067	0.0054
696.4885	0.0124
696.6703	0.0047
696.852	-0.0005
697.0337	0.0207
697.2154	-0.0064
697.3971	0.011
697.5788	0.0032
697.7605	-0.0082
697.9421	0.0322
698.1237	0.0043
698.3053	-0.0078
698.4869	0.0098
698.6685	-0.0189
698.85	0.0136
699.0315	0.0011
699.213	0.024
699.3945	0.0245
699.576	0.0189
699.7575	0.0272
699.9389	-0.0144
700.1203	0.0082
700.3017	0.0223
700.4831	0.0245
700.6645	0.0154
700.8458	0.009
701.0271	0.0303
701.2084	0.0041
701.3897	0.0002
701.571	-0.023
701.7523	0.0015
701.9335	0.0143
702.1147	0.0114
702.2959	-0.0078
702.4771	0.0088
702.6583	-0.0138
702.8394	-0.0283
703.0205	0.0245
703.2016	-0.0154
703.3827	0.006
703.5638	-0.0081
703.7449	0.032
703.9259	0.022
704.1069	0.0064
704.2879	0.0017
704.4689	0.0082
704.6499	0.0108
704.8308	0.0086
705.0117	-0.0118
705.1927	0.0037
705.3735	-0.0031
705.5544	0.0148
705.7353	0.0186
705.9161	-0.0274
706.0969	0.0184
706.2777	0.0009
706.4585	-0.01
706.6393	0.0196
706.82	0.0277
707.0007	-0.0021
707.1815	0.0071
707.3621	0.0287
707.5428	0.009
707.7235	0.0091
707.9041	0.0183
708.0847	-0.0081
708.2653	0.0279
708.4459	0.0128
708.6265	-0.0088
708.807	-0.0023
708.9875	0.0101
709.168	-0.0037
709.3485	0.024
709.529	0.0336
709.7095	-0.0326
709.8899	0.0008
710.0703	0.0098
710.2507	0.0017
710.4311	-0.0018
710.6115	0.0319
710.7918	0.0114
710.9721	0.0274
711.1524	-0.0218
711.3327	0.0146
711.513	-0.0077
711.6932	-0.0069
711.8735	0.0143
712.0537	-0.0055
712.2339	0.0087
712.4141	0.0264
712.5942	-0.0205
712.7744	0.0281
712.9545	0.0053
713.1346	0.0427
713.3147	0.0191
713.4947	-0.0029
713.6748	0.0133
713.8548	0.0227
714.0348	0.0047
714.2148	0.0221
714.3948	-0.0087
714.5748	0.017
714.7547	0.0241
714.9346	0.013
715.1145	0.0279
715.2944	-0.0155
715.4743	0.0183
715.6541	-0.0096
715.834	0.0279
716.0138	0.0282
716.1936	-0.0108
716.3733	0.0073
716.5531	-0.0088
716.7328	0.0075
716.9126	0.0352
717.0923	-0.038
717.2719	0.0043
717.4516	0.0122
717.6312	-0.0073
717.8109	0.0343
717.9905	0.0118
718.1701	0.0035
718.3496	0.0109
718.5292	0.0066
718.7087	0.0224
718.8882	0.0234
719.0677	0.002
719.2472	0.006
719.4267	-0.0024
719.6061	-0.0211
719.7856	0.0296
719.965	-0.0069
720.1443	0.0061
720.3237	0.011
720.5031	0.0044
720.6824	-0.0006
720.8617	0.0009
721.041	0.0422
721.2203	0.0125
721.3995	-0.0082
721.5788	0.0002
721.758	0.0035
721.9372	-0.0054
722.1164	-0.0028
722.2956	-0.0145
722.4747	0.0113
722.6538	0.0109
722.8329	0.0236
723.012	0.0075
723.1911	0.0323
723.3702	0.0259
723.5492	0.0163
723.7282	0.0137
723.9072	0.0101
724.0862	0.0069
724.2652	0.0267
724.4441	-0.0011
724.623	0.0139
724.8019	-0.0132
724.9808	0.0056
725.1597	0.0025
725.3385	0.0059
725.5174	0.0052
725.6962	0.008
725.875	0.0038
726.0538	0.0302
726.2325	0.0078
726.4112	-0.021
726.59	-0.0165
726.7687	-0.0216
726.9474	0.0221
727.126	0.018
727.3047	0.0045
727.4833	0.0128
727.6619	0.007
727.8405	-0.0036
728.0191	0.0403
728.1976	0.0073
728.3762	0.0174
728.5547	-0.002
728.7332	0.0088
728.9116	-0.0066
729.0901	0.0065
729.2686	0.024
729.447	0.011
729.6254	0.0106
729.8038	0.0204
729.9821	-0.0129
730.1605	0.0143
730.3388	0.0177
730.5171	0.0043
730.6954	0.0031
730.8737	0.0025
731.0519	-0.0077
731.2302	0.0262
731.4084	-0.0084
731.5866	0.0013
731.7648	0.0071
731.9429	0.0188
732.1211	0.0201
732.2992	0.0021
732.4773	-0.0155
732.6554	-0.0061
732.8335	0.025
733.0115	0.0132
733.1896	-0.0041
733.3676	0.0269
733.5456	-0.0076
733.7235	0.0077
733.9015	0.0144
734.0794	0.0022
734.2574	-0.0331
734.4353	0.0189
734.6131	0.0091
734.791	-0.0024
734.9689	0.0004
735.1467	-0.0073
735.3245	0.0238
735.5023	0.0083
735.68	-0.0112
735.8578	0.0162
736.0355	0.025
736.2132	-0.008
736.3909	0.0147
736.5686	-0.0023
736.7463	-0.0259
736.9239	0.0281
737.1015	0.013
737.2791	0.0163
737.4567	0.0178
737.6343	-0.0156
737.8118	0.0026
737.9894	0.003
738.1669	0.0079
738.3444	0.0416
738.5218	-0.0231
738.6993	0.0115
738.8767	0.0082
739.0541	-0.0004
739.2315	0.0006
739.4089	0.0024
739.5863	-0.0011
739.7636	-0.004
739.9409	-0.0071
740.1182	0.0056
740.2955	0.0176
740.4728	-0.0011
740.65	-0.0234
740.8272	0.0281
741.0044	-0.0179
741.1816	0.0287
741.3588	-0.0173
741.5359	-0.0092
741.7131	0.0182
741.8902	-0.006
742.0673	0.014
742.2444	0.0358
742.4214	0.0113
742.5985	-0.0154
742.7755	-0.0045
742.9525	0.0026
743.1295	-0.0093
743.3064	0.0007
743.4834	-0.0062
743.6603	0.0384
743.8372	-0.0621
744.0141	0.0153
744.191	0.0228
744.3678	-0.0364
744.5446	0.0006
744.7215	0.0128
744.8982	0.0025
745.075	0.0609
745.2518	-0.0292
745.4285	0.0058
745.6052	-0.0237
745.7819	0.0091
745.9586	0.0135
746.1353	-0.0044
746.3119	-0.0012
746.4885	0.0335
746.6651	0.0063
746.8417	-0.0256
747.0183	0.0252
747.1948	-0.0164
747.3714	-0.0096
747.5479	0.0151
747.7244	-0.0003
747.9008	-0.0263
748.0773	0.0538
748.2537	0.0555
748.4301	0.0125
748.6065	-0.0088
748.7829	-0.025
748.9593	0.0079
749.1356	0.0162
749.3119	0.0056
749.4882	0.024
749.6645	-0.0062
749.8408	0.0289
750.017	0.0182
750.1933	-0.0135
750.3695	-0.0005
750.5457	-0.0046
750.7218	-0.0109
750.898	-0.0231
751.0741	0.0278
751.2502	0.0123
751.4263	0.0027
751.6024	0.0103
751.7784	0.0005
751.9545	0.0148
752.1305	-0.0169
752.3065	0.0045
752.4825	-0.0006
752.6584	0.0076
752.8344	-0.0283
753.0103	-0.0226
753.1862	0.013
753.3621	0.0001
753.5379	-0.0045
753.7138	0.0087
753.8896	-0.0075
754.0654	0.002
754.2412	-0.0047
754.417	0.0391
754.5927	0.0207
754.7685	0.0104
754.9442	-0.0002
755.1199	-0.0071
755.2956	0.0103
755.4712	0.0043
755.6469	-0.007
755.8225	0.0035
755.9981	0.0168
756.1736	0.0048
756.3492	0.0016
756.5248	0.0153
756.7003	0.0001
756.8758	0.0009
757.0513	0.0017
757.2267	0.0085
757.4022	-0.0031
757.5776	0.0013
757.753	0.0151
757.9284	-0.0004
758.1038	0.0275
758.2791	-0.0026
758.4545	-0.0138
758.6298	-0.0091
758.8051	-0.0006
758.9803	0.0149
759.1556	-0.0158
759.3308	0.0065
759.506	0.003
759.6812	0.0068
759.8564	-0.003
760.0316	0.0011
760.2067	0.022
760.3819	-0.0045
760.557	0.0056
760.732	0.0094
760.9071	0.0175
761.0821	-0.0072
761.2572	0.0156
761.4322	0.0022
761.6072	0.0012
761.7821	-0.0309
761.9571	0.0286
762.132	-0.0089
762.3069	-0.002
762.4818	0.0244
762.6567	-0.0085
762.8316	0.0329
763.0064	-0.0035
763.1812	0.0299
763.356	-0.012
763.5308	0.012
763.7055	0.0008
763.8803	-0.0096
764.055	-0.0117
764.2297	0.0147
764.4044	0.005
764.579	0.0167
764.7537	-0.0025
764.9283	0.0236
765.1029	0.005
765.2775	0.0267
765.4521	0.0064
765.6266	0.0042
765.8011	0.0039
765.9756	0.0082
766.1501	0.007
766.3246	-0.0034
766.4991	0.0183
766.6735	0.04
766.8479	-0.0051
767.0223	0.0325
767.1967	-0.0093
767.371	0.008
767.5454	0.0358
767.7197	0.0442
767.894	0.0112
768.0683	0.0096
768.2425	0.0044
768.4168	0.0133
768.591	-0.0009
768.7652	-0.0117
768.9394	-0.0075
769.1135	-0.002
769.2877	0.0138
769.4618	0.0113
769.6359	-0.0269
769.81	0.0139
769.984	-0.0066
770.1581	-0.0013
770.3321	0.0249
770.5061	-0.015
770.6801	0.0195
770.8541	0.0117
771.028	0.0352
771.202	0.0166
771.3759	-0.0025
771.5498	0.0382
771.7236	-0.0237
771.8975	0.0141
772.0713	0.0113
772.2451	0.0186
772.4189	0.0012
772.5927	-0.0194
772.7665	-0.0062
772.9402	0.0211
773.1139	-0.0112
773.2876	0.0086
773.4613	0.0348
773.635	0.0516
773.8086	0.0391
773.9822	0.0124
774.1558	0.0227
774.3294	-0.0078
774.503	0.0101
774.6765	0.0616
774.8501	-0.0171
775.0236	0.0446
775.1971	-0.005
775.3705	-0.0074
775.544	-0.0237
775.7174	0.0273
775.8908	0.0092
776.0642	0.0319
776.2376	0.0113
776.4109	-0.023
776.5843	0.0211
776.7576	0.0374
776.9309	-0.02
777.1041	-0.0093
777.2774	0.0216
777.4506	-0.0451
777.6238	-0.0031
777.797	0.0031
777.9702	-0.0043
778.1434	0.0173
778.3165	-0.0161
778.4896	-0.004
778.6627	0.0146
778.8358	-0.0015
779.0089	-0.0139
779.1819	0.0194
779.3549	-0.0151
779.5279	-0.0023
779.7009	0.0312
779.8739	0.041
780.0468	0.006
780.2197	0.0104
780.3926	-0.0498
780.5655	0.0014
780.7384	-0.0179
780.9112	0.0228
781.0841	-0.0081
781.2569	0.013
781.4297	0.0112
781.6024	0.015
781.7752	0.0469
781.9479	0.0211
782.1206	0.023
782.2933	-0.0148
782.466	0.005
782.6386	0.0054
782.8113	0.0108
782.9839	-0.0038
783.1565	0.0328
783.329	-0.0072
783.5016	-0.0082
783.6741	-0.0165
783.8466	0.0349
784.0191	-0.0125
784.1916	-0.0559
784.3641	-0.0595
784.5365	0.0111
784.7089	0.0217
784.8813	0.076
785.0537	0.0472
785.2261	-0.0325
785.3984	-0.0032
785.5707	-0.0344
785.743	0.0242
785.9153	-0.0048
786.0876	-0.0161
786.2598	-0.0272
786.432	-0.0186
786.6042	0.0508
786.7764	-0.0207
786.9486	-0.01
787.1207	0.0458
787.2928	0.0647
787.4649	-0.0023
787.637	-0.0165
787.8091	0.0032
787.9811	0.0818
788.1532	0.028
788.3252	-0.0246
788.4972	0.0205
788.6691	-0.005
788.8411	-0.0081
789.013	0.0195
789.1849	-0.0032
789.3568	-0.0036
789.5287	0.0571
789.7005	-0.0538
789.8723	0.0157
790.0442	-0.0075
790.2159	0.0393
790.3877	0.0483
790.5595	0.0217
790.7312	-0.0323
790.9029	-0.0245
791.0746	-0.0162
791.2463	-0.0041
791.4179	-0.0182
791.5896	-0.0291
791.7612	0.0337
791.9328	-0.0501
792.1044	0.0668
792.2759	-0.0189
792.4474	-0.0427
792.619	-0.0029
792.7905	0.0039
792.9619	0.0498
793.1334	0.0463
793.3048	0.1006
793.4762	0.0114
793.6476	-0.0375
793.819	-0.0249
793.9904	-0.0022
794.1617	-0.0355
794.333	0.0162
794.5043	-0.0083
794.6756	-0.0038
794.8469	0.0101
795.0181	0.0176
795.1893	0.004
795.3605	0.0133
795.5317	0.0059
795.7029	-0.003
795.874	0.0137
796.0452	-0.0006
796.2163	0.0474
796.3873	0.0283
796.5584	-0.0333
796.7294	0.0331
796.9005	0.0405
797.0715	0.042
797.2425	0.0601
797.4134	0.0206
797.5844	-0.0248
797.7553	-0.0673
797.9262	0.0636
798.0971	0.0476
798.2679	-0.0161
798.4388	0.0096
798.6096	0.0116
798.7804	-0.0103
798.9512	0.0171
799.122	-0.0526
799.2927	0.0914
799.4635	-0.0405
799.6342	-0.0144
799.8049	0.0274
799.9755	0.038
800.1462	-0.0246
800.3168	0.0249
800.4874	-0.081
800.658	0.061
800.8286	0.01
800.9991	0.0705
801.1696	-0.033
801.3402	-0.0245
801.5106	0.0094
801.6811	0.0763
801.8516	0.0872
802.022	-0.0122
802.1924	-0.0274
802.3628	-0.0221
802.5332	-0.0341
802.7035	0.1618
802.8739	-0.0658
803.0442	-0.0436
803.2145	0.0277
803.3847	-0.0191
803.555	0.0457
803.7252	-0.106
803.8954	0.042
804.0656	-0.0024
804.2358	0.0551
804.4059	0.0586
804.5761	0.0065
804.7462	0.0095
804.9163	-0.0553
805.0864	-0.0873
805.2564	0.0531
805.4264	0.0073
805.5965	0.0466
805.7665	-0.051
805.9364	0.023
806.1064	-0.0111
806.2763	0.0297
806.4462	0.0391
806.6161	-0.0301
806.786	0.0044
806.9559	0.0224
807.1257	0.0309
807.2955	-0.0051
807.4653	0.0238
807.6351	0.0335
807.8048	0.0116
807.9746	-0.0295
808.1443	-0.0307
808.314	-0.0418
808.4837	0.0827
808.6533	0.0232
808.8229	-0.0211
808.9926	0.0375
809.1622	0.016
809.3317	-0.075
809.5013	-0.0461
809.6708	0.0371
809.8403	0.0378
810.0098	-0.0081
810.1793	0.0158
810.3488	-0.0449
810.5182	0.0607
810.6876	0.0227
810.857	0.0331
811.0264	-0.1914
811.1958	0.0896
811.3651	-0.0844
811.5344	0.2064
811.7037	0.0225
811.873	0.0755
812.0422	-0.0244
812.2115	-0.0262
812.3807	-0.1051
812.5499	0.0362
812.7191	-0.0984
812.8882	-0.1091
813.0574	-0.0067
813.2265	0.0852
813.3956	-0.0521
813.5646	0.0618
813.7337	0.0441
813.9027	-0.0693
814.0718	0.0297
814.2407	0.0358
814.4097	0.0189
814.5787	0.0055
814.7476	-0.008
814.9165	0.059
815.0854	0.0639
815.2543	-0.0329
815.4232	0.0196
815.592	0.1094
815.7608	-0.0927
815.9296	0.0484
816.0984	0.1467
816.2671	-0.0732
816.4359	0.2126
816.6046	0.02
816.7733	0.0487
816.942	-0.0042
817.1106	0.0814
817.2793	-0.159
817.4479	-0.0264
817.6165	0.0461
817.785	0.0338
817.9536	-0.1313
818.1221	0.033
818.2906	-0.1132
818.4591	-0.0035
818.6276	-0.0953
818.7961	0.0779
818.9645	0.0167
819.1329	0.07
819.3013	-0.1006
819.4697	-0.0086
819.638	0.065
819.8064	0.0215
819.9747	0.0215
820.143	-0.068
820.3113	0.141
820.4795	0.0563
820.6477	0.1018
820.816	-0.0275
820.9842	0.0611
821.1523	0.0686
821.3205	-0.0666
821.4886	0.0351
821.6567	-0.0617
821.8248	0.1376
821.9929	-0.1866
822.1609	0.0082
822.329	-0.0105
822.497	-0.023
822.665	-0.1194
822.833	0.1326
823.0009	-0.0608
823.1688	0.0808
823.3367	-0.1182
823.5046	-0.0279
823.6725	-0.0739
823.8404	0.0268
824.0082	-0.0357
824.176	-0.1771
824.3438	0.1195
824.5116	0.0278
824.6793	-0.0016
824.847	0.4078
825.0147	0.0134
825.1824	0.0153
825.3501	0.1301
825.5177	-0.1091
825.6854	-0.187
825.853	0.0574
826.0206	0.0314
826.1881	-0.0812
826.3557	0.339
826.5232	0.0474
826.6907	-0.0264
826.8582	0.0238
827.0257	0.05
827.1931	0.1476
827.3605	-0.0851
827.528	-0.1857
827.6953	-0.2499
827.8627	-0.1298
828.03	0.0086
828.1974	-0.1455
828.3647	-0.0252
828.532	0.0823
828.6992	0.0587
828.8665	-0.2241
829.0337	-0.0133
829.2009	-0.0607
829.3681	0.0779
829.5352	-0.266
829.7024	0.2188
829.8695	-0.164
830.0366	0.0929
830.2037	0.1179
830.3707	-0.088
830.5378	-0.1545
830.7048	-0.1785
830.8718	0.1952
831.0388	0.0186
831.2057	0.4979
831.3727	-0.0873
831.5396	0.5514
831.7065	-0.8848
831.8734	0.1008
832.0402	0.1542
832.2071	-0.3539
832.3739	-0.2255
832.5407	-1.6681
832.7075	-0.4592
832.8742	-0
833.041	-0.0029
833.2077	0.3873
833.3744	-0.0411
833.541	0.1572
833.7077	0.0352
833.8743	-0.0822
834.0409	0.037
834.2075	-0.0116
834.3741	-0.0312
834.5407	0.0505
834.7072	-0.0218
834.8737	0.5459
835.0402	0.4894
835.2067	0.1251
835.3731	-0.1735
835.5395	0.0485
835.706	-0.1781
835.8723	-0.1162
836.0387	0.1421
836.2051	-0.175
836.3714	0.0462
836.5377	0.825
836.704	0.2309
836.8703	-0.17
837.0365	-0.8539
837.2027	0.2035
837.3689	0.232
837.5351	0.6452
837.7013	0.2936
837.8674	0.5065
838.0335	-0.0742
838.1997	-0.2255
838.3657	-0
838.5318	-0.3939
838.6978	-0.1184
838.8639	-0.6508
839.0299	-0.106
839.1958	-0.0702
839.3618	0.1122
839.5277	0.2324
839.6937	0.0488
839.8596	-0.109
840.0254	0.2476
840.1913	-0.4796
840.3571	0.1896
840.523	-0
840.6888	-0.0215
840.8545	-0.3157
841.0203	-0.0759
841.186	-0.1775
841.3517	-0.1391
841.5174	-0.0333
841.6831	0.2772
841.8488	-0.2473
842.0144	1.3134
842.18	0.0848
842.3456	-0.5354
842.5112	-0
842.6767	-0.0383
842.8422	0.2053
843.0077	0.139
843.1732	-0.5264
843.3387	-0
843.5042	-0
843.6696	0.1305
843.835	-0.3134
844.0004	-0.1781
844.1657	-0
844.3311	-0
844.4964	-0.2176
844.6617	0.3102
844.827	-0
844.9923	0.2518
845.1575	-0
845.3227	0.0516
845.4879	-0.351
845.6531	-0.0946
845.8183	0.0845
845.9834	-0
846.1485	0.0291
846.3136	-0.1897
846.4787	-0
846.6438	-0.3076
846.8088	0.784
846.9738	-0.6645
847.1388	0.1868
847.3038	0.5808
847.4687	-0
847.6337	0.3114
847.7986	-0.0728
847.9635	-0.0653
848.1284	0.4438
848.2932	0.9549
848.458	-0
848.6228	0.005
848.7876	-0
848.9524	-0.6241
849.1172	-1.7548
849.2819	-0
849.4466	0.9428
849.6113	0.6811
849.7759	0.0193
849.9406	0.1744
850.1052	-1.2182
850.2698	-0.0564
850.4344	-0.3548
850.599	-0.1151
850.7635	0.0689
850.928	0.1196
851.0925	0.1777
851.257	-0.1513
851.4215	0.0357
851.5859	0.2629
851.7503	-0
851.9147	0.0126
852.0791	0.3032
852.2434	1.4876
852.4078	-0
852.5721	0.8221
852.7364	-0.3114
852.9007	-0.0051
853.0649	-0
853.2291	0.7562
853.3934	-0
853.5575	-0.2115
853.7217	1.0345
853.8859	-0
854.05	-0.4886
854.2141	0.1203
854.3782	-0.1382
854.5423	-0.2344
854.7063	-0.0234
854.8703	0.0513
855.0343	0.1111
855.1983	0.1353
855.3623	-0.0446
855.5262	-0
855.6901	0.3087
855.854	0.1751
856.0179	-0.285
856.1818	-0
856.3456	0.1819
856.5094	0.4331
856.6732	-0.7189
856.837	-1.1807
857.0008	0.0216
857.1645	-0.3909
857.3282	-0.3568
857.4919	0.697
857.6556	-0.4805
857.8192	-0.1672
857.9828	-0.3489
858.1465	-0.119
858.31	-0
858.4736	-0.3214
858.6372	-0
858.8007	-0.3372
858.9642	0.3448
859.1277	1.2473
859.2911	-0.4622
859.4546	-0
859.618	-0.0575
859.7814	-0
859.9448	0.5999
860.1081	-0
860.2715	-1.8591
860.4348	0.1084
860.5981	0.4926
860.7614	0.2738
860.9246	0.2668
861.0879	-0.0872
861.2511	-0.6298
861.4143	-0.7729
861.5774	-0.2642
861.7406	-0.0307
861.9037	-0
862.0668	1.4393
862.2299	0.9555
862.393	-0
862.556	1.842
862.7191	-0.1906
862.8821	0.1297
863.0451	-0.1897
863.208	-0.4076
863.371	-0.0735
863.5339	0.1287
863.6968	0.5604
863.8597	-0.5939
864.0225	-0
864.1854	-0
864.3482	-0
864.511	0.1918
864.6737	-0.1236
864.8365	-0.1569
864.9992	-0
865.1619	0.8569
865.3246	-0
865.4873	-0.3548
865.65	0.2326
865.8126	-0
865.9752	-0.0742
866.1378	0.0758
866.3004	0.4939
866.4629	-1.699
866.6254	-0
866.7879	-0
866.9504	-0
867.1129	-0
867.2753	-0.189
867.4377	-0.114
867.6001	-0.5496
867.7625	-0.0275
867.9249	-0
868.0872	-0
868.2495	0.6353
868.4118	-0
868.5741	-0
868.7363	-0
868.8986	-0.8445
869.0608	-0.6003
869.223	-0.3877
869.3851	-0
869.5473	-0.189
869.7094	0.4919
869.8715	-0
870.0336	-0.0911
870.1957	-0.4591
870.3577	0.4193
870.5197	0.2215
870.6817	-0.7399
870.8437	-0.2642
871.0057	0.0927
871.1676	0.1979
871.3295	0.0851
871.4914	-0
871.6533	-0.5142
871.8151	0.0867
871.977	-0.2251
872.1388	-0.4802
872.3006	-0
872.4623	-0.7854
872.6241	-0
872.7858	-0
872.9475	-0
873.1092	-0
873.2709	0.3617
873.4325	-1.6681
873.5941	-0.8665
873.7557	-0.0226
873.9173	0.8513
874.0789	0.0941
874.2404	-0
874.4019	-0.0267
874.5634	-0
874.7249	2.2492
874.8863	-0.4901
875.0478	-0.3513
875.2092	0.4544
875.3706	-0
875.5319	-0.1381
875.6933	-0.1497
875.8546	-0
876.0159	-0
876.1772	-0.7359
876.3385	0.4661
876.4997	-0.3766
876.6609	-0
876.8221	-0
876.9833	-0.1241
877.1445	0.594
877.3056	-1.158
877.4667	-0
877.6278	0.2436
877.7889	0.5531
877.9499	0.8932
878.111	-0.4713
878.272	-0
878.433	0.5826
878.5939	1.3237
878.7549	-0.1578
878.9158	-0
879.0767	-0
879.2376	-0
879.3984	-0
879.5593	0.1719
879.7201	-1.9597
879.8809	-0
880.0417	-0.1782
880.2024	0.1838
880.3632	-0
880.5239	0.0058
880.6846	-0.6809
880.8452	-0.2229
881.0059	-0
881.1665	0.174
881.3271	0.88
881.4877	0.5144
881.6483	-0
881.8088	-1.1058
881.9693	-0
882.1298	-0
882.2903	-0
