Data from D4ACN5uM440nmA_Absorbance_13-50-26-272.txt Node
Date: Fri Feb 21 13:50:26 GMT 2025
User: LASERRRRR
Spectrometer: FLMT03099
Trigger mode: 0
Integration Time (sec): 1.500000E-2
Scans to average: 1
Electric dark correction enabled: true
Nonlinearity correction enabled: false
Boxcar width: 0
XAxis mode: Wavelengths
Number of Pixels in Spectrum: 3648
>>>>>Begin Spectral Data<<<<<
179.3399	-0.1713
179.5586	-0.1713
179.7771	-0.1713
179.9957	-0.2872
180.2143	-1.3222
180.4329	-0.0637
180.6514	-0.676
180.8699	-0
181.0885	0.1415
181.307	0.1304
181.5255	0.5818
181.744	-0
181.9625	0.5748
182.181	-0.2276
182.3994	0.9277
182.6179	-0
182.8363	-0
183.0547	-0.4965
183.2732	0.0694
183.4916	0.2419
183.71	0.3501
183.9284	0.0439
184.1467	0.3073
184.3651	0.0514
184.5835	0.1664
184.8018	0.0575
185.0201	0.2784
185.2385	0.2496
185.4568	0.4999
185.6751	0.2561
185.8934	0.107
186.1117	0.0985
186.3299	0.1247
186.5482	0.273
186.7664	0.0099
186.9847	-0.0077
187.2029	0.1965
187.4211	0.0943
187.6393	0.1848
187.8575	0.2455
188.0757	0.6754
188.2939	0.2048
188.512	0.1456
188.7302	0.2812
188.9483	-0.0716
189.1665	0.4218
189.3846	0.1355
189.6027	0.0773
189.8208	0.1372
190.0389	0.2298
190.257	0.1579
190.475	0.1417
190.6931	0.2224
190.9111	0.4215
191.1292	0.0709
191.3472	0.216
191.5652	0.1974
191.7832	0.211
192.0012	0.0925
192.2192	0.1462
192.4371	0.1371
192.6551	0.1817
192.873	0.1747
193.091	0.1001
193.3089	0.3535
193.5268	0.2792
193.7447	0.1577
193.9626	0.2451
194.1805	0.2761
194.3984	0.2083
194.6162	0.2606
194.8341	0.2985
195.0519	0.1929
195.2697	0.2347
195.4875	0.287
195.7054	0.3654
195.9231	0.2676
196.1409	0.434
196.3587	0.3199
196.5765	0.3279
196.7942	0.3416
197.012	0.3114
197.2297	0.3078
197.4474	0.4321
197.6651	0.3409
197.8828	0.3648
198.1005	0.4216
198.3182	0.4245
198.5358	0.3862
198.7535	0.4157
198.9711	0.4193
199.1888	0.4103
199.4064	0.4504
199.624	0.3645
199.8416	0.3741
200.0592	0.3889
200.2767	0.4196
200.4943	0.4314
200.7119	0.3838
200.9294	0.4725
201.1469	0.4111
201.3645	0.4535
201.582	0.3904
201.7995	0.4063
202.017	0.4023
202.2344	0.4123
202.4519	0.3826
202.6694	0.3924
202.8868	0.388
203.1042	0.4485
203.3217	0.4063
203.5391	0.4299
203.7565	0.3726
203.9739	0.3744
204.1913	0.3817
204.4086	0.3797
204.626	0.4076
204.8433	0.3487
205.0607	0.3696
205.278	0.3633
205.4953	0.3406
205.7126	0.3458
205.9299	0.3546
206.1472	0.321
206.3644	0.3377
206.5817	0.3348
206.7989	0.3368
207.0162	0.3386
207.2334	0.332
207.4506	0.2896
207.6678	0.3017
207.885	0.3364
208.1022	0.3128
208.3194	0.2963
208.5365	0.3025
208.7537	0.3092
208.9708	0.3029
209.1879	0.3064
209.405	0.2717
209.6222	0.2728
209.8392	0.294
210.0563	0.293
210.2734	0.2552
210.4905	0.271
210.7075	0.2711
210.9245	0.259
211.1416	0.2554
211.3586	0.2386
211.5756	0.2429
211.7926	0.2612
212.0096	0.2492
212.2265	0.2634
212.4435	0.2596
212.6604	0.2525
212.8774	0.2211
213.0943	0.2499
213.3112	0.2569
213.5281	0.2461
213.745	0.2444
213.9619	0.2522
214.1788	0.2583
214.3956	0.228
214.6125	0.2512
214.8293	0.2359
215.0461	0.2368
215.2629	0.2524
215.4798	0.2383
215.6965	0.2536
215.9133	0.2388
216.1301	0.2469
216.3469	0.2666
216.5636	0.2519
216.7803	0.2435
216.9971	0.2617
217.2138	0.2503
217.4305	0.2518
217.6472	0.2322
217.8639	0.2476
218.0805	0.2388
218.2972	0.2333
218.5138	0.2587
218.7305	0.2553
218.9471	0.2266
219.1637	0.272
219.3803	0.2555
219.5969	0.258
219.8135	0.2613
220.0301	0.2586
220.2466	0.2453
220.4632	0.2529
220.6797	0.2562
220.8962	0.2545
221.1127	0.2661
221.3292	0.2484
221.5457	0.2746
221.7622	0.2616
221.9787	0.2762
222.1951	0.2683
222.4116	0.276
222.628	0.2867
222.8444	0.2674
223.0608	0.2928
223.2772	0.2842
223.4936	0.2849
223.71	0.2886
223.9264	0.2825
224.1427	0.2829
224.3591	0.2889
224.5754	0.2855
224.7917	0.2872
225.008	0.2898
225.2243	0.2912
225.4406	0.296
225.6569	0.3054
225.8732	0.3012
226.0894	0.3112
226.3057	0.3021
226.5219	0.3237
226.7381	0.313
226.9543	0.3093
227.1705	0.307
227.3867	0.3286
227.6029	0.329
227.8191	0.3323
228.0352	0.3422
228.2513	0.3414
228.4675	0.3403
228.6836	0.3478
228.8997	0.3486
229.1158	0.3525
229.3319	0.3618
229.548	0.3488
229.764	0.3534
229.9801	0.3773
230.1961	0.3682
230.4121	0.3666
230.6282	0.3869
230.8442	0.3901
231.0602	0.3848
231.2761	0.388
231.4921	0.3908
231.7081	0.3881
231.924	0.3967
232.14	0.397
232.3559	0.409
232.5718	0.4095
232.7877	0.4185
233.0036	0.4041
233.2195	0.4207
233.4353	0.4134
233.6512	0.4228
233.867	0.4215
234.0829	0.4267
234.2987	0.4177
234.5145	0.43
234.7303	0.439
234.9461	0.4379
235.1619	0.4351
235.3776	0.4228
235.5934	0.4322
235.8091	0.441
236.0249	0.4485
236.2406	0.44
236.4563	0.4488
236.672	0.4538
236.8877	0.4433
237.1034	0.4453
237.319	0.4598
237.5347	0.4477
237.7503	0.4473
237.966	0.4538
238.1816	0.4506
238.3972	0.4589
238.6128	0.4579
238.8284	0.4609
239.0439	0.4449
239.2595	0.4548
239.475	0.4611
239.6906	0.4609
239.9061	0.4634
240.1216	0.4578
240.3371	0.4583
240.5526	0.4699
240.7681	0.4546
240.9836	0.4512
241.199	0.4552
241.4145	0.4532
241.6299	0.4536
241.8453	0.4388
242.0607	0.4393
242.2761	0.4363
242.4915	0.4153
242.7069	0.4149
242.9223	0.4225
243.1376	0.4113
243.353	0.4039
243.5683	0.3978
243.7836	0.3897
243.9989	0.389
244.2142	0.3743
244.4295	0.3729
244.6448	0.3619
244.86	0.3571
245.0753	0.3478
245.2905	0.346
245.5057	0.3426
245.721	0.3366
245.9362	0.3285
246.1514	0.3249
246.3665	0.3127
246.5817	0.3029
246.7969	0.3073
247.012	0.2869
247.2271	0.3035
247.4423	0.2893
247.6574	0.2832
247.8725	0.2708
248.0876	0.2764
248.3026	0.2733
248.5177	0.2615
248.7328	0.2584
248.9478	0.2568
249.1628	0.2485
249.3779	0.2412
249.5929	0.2423
249.8079	0.237
250.0228	0.2283
250.2378	0.2312
250.4528	0.2331
250.6677	0.2251
250.8827	0.216
251.0976	0.2152
251.3125	0.2177
251.5274	0.2107
251.7423	0.2104
251.9572	0.2048
252.172	0.2052
252.3869	0.2126
252.6017	0.2106
252.8166	0.2036
253.0314	0.1942
253.2462	0.1955
253.461	0.1992
253.6758	0.1967
253.8906	0.1973
254.1053	0.1902
254.3201	0.1924
254.5348	0.1824
254.7496	0.1855
254.9643	0.1867
255.179	0.1856
255.3937	0.1897
255.6083	0.1882
255.823	0.1866
256.0377	0.1832
256.2523	0.1854
256.467	0.1849
256.6816	0.1781
256.8962	0.1839
257.1108	0.1833
257.3254	0.178
257.54	0.1759
257.7545	0.177
257.9691	0.182
258.1836	0.1774
258.3981	0.1822
258.6127	0.1757
258.8272	0.1827
259.0417	0.177
259.2561	0.181
259.4706	0.1724
259.6851	0.1771
259.8995	0.1766
260.114	0.1813
260.3284	0.1782
260.5428	0.1817
260.7572	0.175
260.9716	0.1819
261.186	0.1802
261.4003	0.1718
261.6147	0.178
261.829	0.182
262.0433	0.1814
262.2577	0.1743
262.472	0.1732
262.6863	0.1818
262.9005	0.1791
263.1148	0.1809
263.3291	0.1757
263.5433	0.185
263.7576	0.1818
263.9718	0.1854
264.186	0.1821
264.4002	0.1839
264.6144	0.189
264.8286	0.1855
265.0427	0.1843
265.2569	0.1835
265.471	0.1851
265.6851	0.1859
265.8993	0.1799
266.1134	0.1877
266.3275	0.1841
266.5415	0.1869
266.7556	0.1858
266.9697	0.1868
267.1837	0.1883
267.3978	0.1953
267.6118	0.1851
267.8258	0.1856
268.0398	0.188
268.2538	0.1853
268.4677	0.1852
268.6817	0.1849
268.8957	0.1772
269.1096	0.1767
269.3235	0.1788
269.5374	0.1879
269.7514	0.1829
269.9652	0.183
270.1791	0.1838
270.393	0.1805
270.6068	0.1824
270.8207	0.1728
271.0345	0.1754
271.2483	0.1768
271.4622	0.1826
271.676	0.1737
271.8897	0.1756
272.1035	0.1854
272.3173	0.1811
272.531	0.1805
272.7448	0.18
272.9585	0.1755
273.1722	0.1783
273.3859	0.1813
273.5996	0.178
273.8133	0.1842
274.0269	0.1778
274.2406	0.1816
274.4542	0.1803
274.6679	0.1818
274.8815	0.1859
275.0951	0.1898
275.3087	0.1845
275.5223	0.1853
275.7358	0.1883
275.9494	0.1877
276.1629	0.1815
276.3765	0.186
276.59	0.1803
276.8035	0.1892
277.017	0.1889
277.2305	0.1918
277.444	0.1856
277.6574	0.1939
277.8709	0.1942
278.0843	0.1951
278.2978	0.1946
278.5112	0.1888
278.7246	0.19
278.938	0.191
279.1513	0.191
279.3647	0.1929
279.5781	0.1934
279.7914	0.1902
280.0047	0.1916
280.2181	0.1918
280.4314	0.1909
280.6447	0.1888
280.8579	0.1829
281.0712	0.187
281.2845	0.1902
281.4977	0.1893
281.711	0.1888
281.9242	0.1906
282.1374	0.1827
282.3506	0.1859
282.5638	0.1855
282.7769	0.1788
282.9901	0.1872
283.2033	0.1826
283.4164	0.1832
283.6295	0.1829
283.8426	0.1815
284.0557	0.1871
284.2688	0.187
284.4819	0.1849
284.695	0.1891
284.908	0.1844
285.1211	0.1902
285.3341	0.1851
285.5471	0.1915
285.7601	0.183
285.9731	0.1867
286.1861	0.1851
286.3991	0.1834
286.612	0.1885
286.825	0.1895
287.0379	0.1857
287.2508	0.187
287.4637	0.1862
287.6766	0.1816
287.8895	0.1817
288.1024	0.186
288.3152	0.1869
288.5281	0.1831
288.7409	0.188
288.9538	0.1873
289.1666	0.1852
289.3794	0.1899
289.5922	0.1893
289.8049	0.1923
290.0177	0.1865
290.2304	0.1879
290.4432	0.187
290.6559	0.1881
290.8686	0.1924
291.0813	0.1849
291.294	0.1885
291.5067	0.1841
291.7194	0.185
291.932	0.184
292.1447	0.1872
292.3573	0.1854
292.5699	0.1866
292.7825	0.1832
292.9951	0.1895
293.2077	0.1859
293.4203	0.1819
293.6328	0.1891
293.8454	0.1858
294.0579	0.1823
294.2704	0.1926
294.4829	0.1826
294.6954	0.1895
294.9079	0.1872
295.1204	0.1842
295.3328	0.1946
295.5453	0.1881
295.7577	0.1916
295.9701	0.1882
296.1825	0.1863
296.3949	0.1821
296.6073	0.1863
296.8197	0.1857
297.0321	0.1914
297.2444	0.18
297.4567	0.185
297.6691	0.1897
297.8814	0.1876
298.0937	0.19
298.306	0.1905
298.5182	0.1904
298.7305	0.1868
298.9428	0.188
299.155	0.184
299.3672	0.1861
299.5794	0.1891
299.7916	0.1871
300.0038	0.185
300.216	0.1871
300.4282	0.1844
300.6403	0.1925
300.8525	0.1917
301.0646	0.1897
301.2767	0.1839
301.4888	0.1842
301.7009	0.1884
301.913	0.1958
302.125	0.1854
302.3371	0.1867
302.5491	0.1852
302.7612	0.1922
302.9732	0.1887
303.1852	0.1919
303.3972	0.1937
303.6092	0.1918
303.8211	0.1857
304.0331	0.183
304.245	0.1857
304.457	0.1832
304.6689	0.1847
304.8808	0.1832
305.0927	0.185
305.3046	0.1852
305.5164	0.1806
305.7283	0.1792
305.9401	0.1723
306.152	0.1796
306.3638	0.1827
306.5756	0.1744
306.7874	0.1738
306.9992	0.174
307.2109	0.1735
307.4227	0.1674
307.6344	0.1725
307.8462	0.1707
308.0579	0.1748
308.2696	0.1683
308.4813	0.1673
308.693	0.1602
308.9046	0.1665
309.1163	0.1588
309.328	0.1578
309.5396	0.1556
309.7512	0.1526
309.9628	0.1588
310.1744	0.1523
310.386	0.1523
310.5976	0.1508
310.8091	0.152
311.0207	0.1484
311.2322	0.1466
311.4437	0.1479
311.6552	0.1529
311.8667	0.1452
312.0782	0.1441
312.2897	0.1432
312.5012	0.1414
312.7126	0.1396
312.924	0.1425
313.1355	0.1442
313.3469	0.1386
313.5583	0.1357
313.7696	0.1347
313.981	0.1364
314.1924	0.1344
314.4037	0.1351
314.6151	0.1358
314.8264	0.1382
315.0377	0.1328
315.249	0.1382
315.4603	0.1313
315.6716	0.1348
315.8828	0.1334
316.0941	0.1344
316.3053	0.1279
316.5165	0.1353
316.7277	0.1302
316.9389	0.131
317.1501	0.1331
317.3613	0.1271
317.5724	0.1301
317.7836	0.1246
317.9947	0.1247
318.2058	0.1295
318.417	0.1307
318.6281	0.1272
318.8391	0.1301
319.0502	0.1277
319.2613	0.1284
319.4723	0.1311
319.6834	0.1322
319.8944	0.1319
320.1054	0.1298
320.3164	0.1251
320.5274	0.1259
320.7383	0.1319
320.9493	0.1266
321.1602	0.1285
321.3712	0.128
321.5821	0.1275
321.793	0.1389
322.0039	0.133
322.2148	0.1235
322.4257	0.129
322.6365	0.1277
322.8474	0.1358
323.0582	0.1323
323.269	0.1307
323.4798	0.1284
323.6906	0.1253
323.9014	0.1284
324.1122	0.1235
324.3229	0.1309
324.5337	0.129
324.7444	0.1283
324.9551	0.1317
325.1658	0.1293
325.3765	0.1335
325.5872	0.1376
325.7979	0.1311
326.0085	0.1274
326.2192	0.1314
326.4298	0.1355
326.6404	0.1385
326.851	0.1328
327.0616	0.1381
327.2722	0.1426
327.4828	0.1371
327.6933	0.143
327.9039	0.1346
328.1144	0.1399
328.3249	0.1429
328.5354	0.14
328.7459	0.1394
328.9564	0.1404
329.1669	0.1489
329.3773	0.1423
329.5878	0.1415
329.7982	0.142
330.0086	0.1417
330.219	0.1345
330.4294	0.1456
330.6398	0.1424
330.8502	0.141
331.0605	0.1416
331.2708	0.145
331.4812	0.142
331.6915	0.1499
331.9018	0.1441
332.1121	0.1521
332.3224	0.1367
332.5326	0.1375
332.7429	0.1413
332.9531	0.1442
333.1633	0.1395
333.3735	0.1401
333.5837	0.1433
333.7939	0.1429
334.0041	0.1484
334.2143	0.1421
334.4244	0.1487
334.6346	0.1423
334.8447	0.1457
335.0548	0.149
335.2649	0.1438
335.475	0.1481
335.685	0.1436
335.8951	0.1387
336.1051	0.1459
336.3152	0.1475
336.5252	0.1399
336.7352	0.1457
336.9452	0.1448
337.1552	0.141
337.3652	0.1372
337.5751	0.1422
337.7851	0.1347
337.995	0.1482
338.2049	0.1423
338.4148	0.1537
338.6247	0.145
338.8346	0.1433
339.0445	0.1419
339.2543	0.1514
339.4642	0.139
339.674	0.1447
339.8838	0.1463
340.0936	0.1467
340.3034	0.1441
340.5132	0.1435
340.7229	0.1518
340.9327	0.1583
341.1424	0.1489
341.3522	0.1414
341.5619	0.1534
341.7716	0.1572
341.9813	0.1578
342.1909	0.1587
342.4006	0.1569
342.6102	0.1523
342.8199	0.1551
343.0295	0.1521
343.2391	0.1569
343.4487	0.1547
343.6583	0.1679
343.8679	0.148
344.0774	0.1543
344.287	0.1609
344.4965	0.1639
344.706	0.1622
344.9155	0.1598
345.125	0.1557
345.3345	0.1748
345.544	0.1652
345.7534	0.1637
345.9629	0.1686
346.1723	0.1702
346.3817	0.1664
346.5911	0.1682
346.8005	0.1659
347.0099	0.1649
347.2193	0.1748
347.4286	0.1841
347.638	0.1734
347.8473	0.1776
348.0566	0.1722
348.2659	0.1729
348.4752	0.174
348.6845	0.1712
348.8937	0.1747
349.103	0.1754
349.3122	0.1823
349.5214	0.182
349.7306	0.183
349.9398	0.1751
350.149	0.1724
350.3582	0.1753
350.5674	0.1779
350.7765	0.1831
350.9856	0.1746
351.1948	0.1811
351.4039	0.1832
351.613	0.1817
351.822	0.1887
352.0311	0.1822
352.2402	0.1848
352.4492	0.1803
352.6582	0.1873
352.8672	0.1827
353.0762	0.1847
353.2852	0.1854
353.4942	0.1843
353.7032	0.1791
353.9121	0.1869
354.1211	0.1802
354.33	0.1926
354.5389	0.1835
354.7478	0.188
354.9567	0.1833
355.1655	0.1824
355.3744	0.1757
355.5833	0.1842
355.7921	0.1911
356.0009	0.1901
356.2097	0.1766
356.4185	0.1821
356.6273	0.1845
356.8361	0.1866
357.0448	0.1862
357.2536	0.185
357.4623	0.1839
357.671	0.1867
357.8797	0.1895
358.0884	0.1878
358.2971	0.1859
358.5057	0.1881
358.7144	0.1881
358.923	0.194
359.1316	0.2009
359.3402	0.1918
359.5488	0.1949
359.7574	0.1929
359.966	0.1968
360.1746	0.1993
360.3831	0.2005
360.5916	0.1999
360.8002	0.2045
361.0087	0.1973
361.2172	0.1995
361.4256	0.2039
361.6341	0.1963
361.8426	0.2052
362.051	0.2017
362.2594	0.2003
362.4678	0.2014
362.6762	0.204
362.8846	0.2006
363.093	0.2037
363.3014	0.2155
363.5097	0.2076
363.718	0.2128
363.9264	0.2146
364.1347	0.2112
364.343	0.2155
364.5513	0.2062
364.7595	0.2233
364.9678	0.2095
365.176	0.2143
365.3842	0.2241
365.5925	0.2152
365.8007	0.2213
366.0089	0.2214
366.217	0.2166
366.4252	0.2218
366.6333	0.2239
366.8415	0.2249
367.0496	0.2169
367.2577	0.2262
367.4658	0.2158
367.6739	0.2251
367.882	0.236
368.09	0.2223
368.2981	0.2261
368.5061	0.2238
368.7141	0.2174
368.9221	0.2429
369.1301	0.231
369.3381	0.2361
369.5461	0.2387
369.754	0.232
369.962	0.2307
370.1699	0.242
370.3778	0.2452
370.5857	0.2359
370.7936	0.2394
371.0015	0.2314
371.2093	0.2348
371.4172	0.2344
371.625	0.2365
371.8328	0.233
372.0406	0.2473
372.2484	0.2412
372.4562	0.2401
372.664	0.2456
372.8717	0.2461
373.0795	0.2494
373.2872	0.2472
373.4949	0.2432
373.7026	0.2469
373.9103	0.2396
374.118	0.248
374.3256	0.2445
374.5333	0.2533
374.7409	0.2473
374.9485	0.2486
375.1561	0.2627
375.3637	0.248
375.5713	0.2615
375.7789	0.2575
375.9864	0.249
376.194	0.2593
376.4015	0.2588
376.609	0.2525
376.8165	0.2654
377.024	0.264
377.2315	0.26
377.4389	0.2542
377.6464	0.2654
377.8538	0.26
378.0612	0.2589
378.2686	0.2669
378.476	0.2688
378.6834	0.2706
378.8908	0.2704
379.0981	0.2571
379.3055	0.2655
379.5128	0.2662
379.7201	0.2686
379.9274	0.2697
380.1347	0.2692
380.342	0.2802
380.5492	0.2729
380.7565	0.276
380.9637	0.2805
381.1709	0.2674
381.3781	0.2736
381.5853	0.2768
381.7925	0.2683
381.9997	0.2751
382.2068	0.2815
382.4139	0.2695
382.6211	0.2757
382.8282	0.2776
383.0353	0.2807
383.2424	0.2777
383.4494	0.2807
383.6565	0.2793
383.8635	0.2806
384.0706	0.2899
384.2776	0.2738
384.4846	0.2786
384.6916	0.2782
384.8986	0.2835
385.1055	0.2909
385.3125	0.2948
385.5194	0.2842
385.7263	0.2804
385.9333	0.2864
386.1402	0.2833
386.347	0.2694
386.5539	0.2795
386.7608	0.2858
386.9676	0.2874
387.1744	0.2786
387.3813	0.2861
387.5881	0.2705
387.7948	0.287
388.0016	0.2835
388.2084	0.2798
388.4151	0.2845
388.6219	0.2776
388.8286	0.2843
389.0353	0.2763
389.242	0.2758
389.4487	0.277
389.6553	0.264
389.862	0.2704
390.0686	0.2711
390.2753	0.2739
390.4819	0.2807
390.6885	0.2727
390.8951	0.2736
391.1016	0.2771
391.3082	0.2769
391.5147	0.2676
391.7213	0.2618
391.9278	0.2645
392.1343	0.2629
392.3408	0.2641
392.5473	0.2672
392.7537	0.2606
392.9602	0.2545
393.1666	0.2657
393.373	0.2565
393.5794	0.2594
393.7858	0.2649
393.9922	0.2543
394.1986	0.2555
394.4049	0.2511
394.6113	0.2559
394.8176	0.2579
395.0239	0.2394
395.2302	0.24
395.4365	0.2503
395.6428	0.2482
395.8491	0.2492
396.0553	0.2466
396.2615	0.2359
396.4678	0.2537
396.674	0.2401
396.8802	0.241
397.0863	0.2448
397.2925	0.2329
397.4987	0.2394
397.7048	0.245
397.9109	0.2363
398.117	0.2409
398.3231	0.2375
398.5292	0.2291
398.7353	0.2347
398.9413	0.2419
399.1474	0.2316
399.3534	0.2395
399.5594	0.2434
399.7654	0.2344
399.9714	0.2472
400.1774	0.2354
400.3833	0.2413
400.5893	0.2377
400.7952	0.2384
401.0011	0.2344
401.207	0.2327
401.4129	0.2398
401.6188	0.2382
401.8247	0.2451
402.0305	0.2384
402.2364	0.2414
402.4422	0.2443
402.648	0.2356
402.8538	0.2327
403.0596	0.2232
403.2654	0.2341
403.4711	0.2323
403.6768	0.2367
403.8826	0.2425
404.0883	0.2378
404.294	0.2379
404.4997	0.2292
404.7054	0.2404
404.911	0.2365
405.1167	0.2373
405.3223	0.223
405.5279	0.2401
405.7335	0.2392
405.9391	0.2321
406.1447	0.2408
406.3502	0.2308
406.5558	0.2406
406.7613	0.2338
406.9668	0.237
407.1724	0.2348
407.3778	0.2349
407.5833	0.2359
407.7888	0.2314
407.9942	0.2332
408.1997	0.2329
408.4051	0.2429
408.6105	0.2459
408.8159	0.2378
409.0213	0.2371
409.2267	0.2403
409.432	0.2381
409.6374	0.2348
409.8427	0.2364
410.048	0.2348
410.2533	0.238
410.4586	0.2304
410.6639	0.234
410.8691	0.2281
411.0744	0.2298
411.2796	0.2335
411.4848	0.2388
411.69	0.2291
411.8952	0.2309
412.1004	0.2271
412.3056	0.2375
412.5107	0.241
412.7158	0.2449
412.921	0.2253
413.1261	0.2342
413.3312	0.228
413.5362	0.2406
413.7413	0.2239
413.9464	0.2306
414.1514	0.2278
414.3564	0.2194
414.5614	0.2273
414.7664	0.2202
414.9714	0.2276
415.1764	0.2255
415.3813	0.2222
415.5863	0.2448
415.7912	0.2294
415.9961	0.2293
416.201	0.237
416.4059	0.2299
416.6108	0.2202
416.8156	0.2317
417.0205	0.2309
417.2253	0.2257
417.4301	0.2324
417.6349	0.221
417.8397	0.2207
418.0445	0.2246
418.2492	0.2283
418.454	0.2248
418.6587	0.2319
418.8634	0.2264
419.0681	0.2257
419.2728	0.2237
419.4775	0.231
419.6822	0.2216
419.8868	0.2226
420.0915	0.2194
420.2961	0.2198
420.5007	0.2189
420.7053	0.2195
420.9099	0.221
421.1144	0.2143
421.319	0.2106
421.5235	0.2157
421.728	0.2183
421.9325	0.214
422.137	0.2117
422.3415	0.2096
422.546	0.2059
422.7504	0.2034
422.9549	0.221
423.1593	0.2047
423.3637	0.2013
423.5681	0.2152
423.7725	0.2098
423.9769	0.2154
424.1812	0.2042
424.3856	0.1912
424.5899	0.2056
424.7942	0.2057
424.9985	0.2009
425.2028	0.2061
425.4071	0.2039
425.6113	0.2016
425.8156	0.2033
426.0198	0.2027
426.224	0.1925
426.4282	0.1946
426.6324	0.1973
426.8366	0.1894
427.0407	0.1906
427.2449	0.1943
427.449	0.1876
427.6531	0.2004
427.8572	0.1869
428.0613	0.1934
428.2654	0.1898
428.4694	0.1812
428.6735	0.1826
428.8775	0.1881
429.0815	0.1791
429.2855	0.1828
429.4895	0.1849
429.6935	0.1825
429.8975	0.1749
430.1014	0.1785
430.3053	0.1794
430.5093	0.1765
430.7132	0.1701
430.9171	0.1685
431.1209	0.1683
431.3248	0.169
431.5286	0.1649
431.7325	0.1763
431.9363	0.1622
432.1401	0.1654
432.3439	0.1554
432.5477	0.1553
432.7514	0.1572
432.9552	0.1596
433.1589	0.1486
433.3627	0.1541
433.5664	0.1468
433.7701	0.1611
433.9737	0.1544
434.1774	0.1545
434.3811	0.1402
434.5847	0.1491
434.7883	0.1394
434.9919	0.1361
435.1955	0.1468
435.3991	0.1372
435.6027	0.1381
435.8062	0.1496
436.0098	0.133
436.2133	0.1375
436.4168	0.131
436.6203	0.1241
436.8238	0.1337
437.0272	0.1219
437.2307	0.1174
437.4341	0.1263
437.6375	0.124
437.841	0.1102
438.0443	0.1249
438.2477	0.1179
438.4511	0.1131
438.6545	0.1188
438.8578	0.116
439.0611	0.1156
439.2644	0.1032
439.4677	0.1085
439.671	0.0966
439.8743	0.1097
440.0775	0.1028
440.2808	0.1055
440.484	0.0909
440.6872	0.0984
440.8904	0.0903
441.0936	0.096
441.2967	0.0857
441.4999	0.0962
441.703	0.0884
441.9062	0.0941
442.1093	0.1027
442.3124	0.0851
442.5155	0.097
442.7185	0.0857
442.9216	0.0821
443.1246	0.0845
443.3276	0.0854
443.5307	0.0683
443.7337	0.0769
443.9366	0.0692
444.1396	0.0733
444.3426	0.073
444.5455	0.0681
444.7484	0.0699
444.9513	0.0691
445.1542	0.0667
445.3571	0.0774
445.56	0.061
445.7628	0.0699
445.9657	0.072
446.1685	0.0703
446.3713	0.0681
446.5741	0.063
446.7769	0.0641
446.9797	0.0622
447.1824	0.0634
447.3852	0.0471
447.5879	0.0521
447.7906	0.051
447.9933	0.0556
448.196	0.0518
448.3986	0.055
448.6013	0.0468
448.8039	0.0568
449.0066	0.059
449.2092	0.0574
449.4118	0.0467
449.6143	0.0465
449.8169	0.049
450.0195	0.0476
450.222	0.0459
450.4245	0.0464
450.627	0.0438
450.8295	0.0429
451.032	0.0451
451.2345	0.0358
451.4369	0.0422
451.6394	0.0375
451.8418	0.0331
452.0442	0.0381
452.2466	0.033
452.449	0.0448
452.6513	0.0357
452.8537	0.0274
453.056	0.0387
453.2583	0.0313
453.4607	0.0302
453.663	0.0338
453.8652	0.0225
454.0675	0.0377
454.2697	0.0269
454.472	0.0224
454.6742	0.0375
454.8764	0.0329
455.0786	0.0241
455.2808	0.0215
455.4829	0.0288
455.6851	0.0198
455.8872	0.0163
456.0893	0.0278
456.2915	0.0253
456.4935	0.0275
456.6956	0.0259
456.8977	0.0221
457.0997	0.0339
457.3018	0.0162
457.5038	0.0251
457.7058	0.0251
457.9078	0.028
458.1098	0.028
458.3117	0.0314
458.5137	0.0163
458.7156	0.0237
458.9175	0.02
459.1194	0.018
459.3213	0.0234
459.5232	0.0251
459.725	0.0189
459.9269	0.0194
460.1287	0.0102
460.3305	0.024
460.5323	0.0139
460.7341	0.0168
460.9359	0.0166
461.1376	0.022
461.3394	0.0223
461.5411	0.0292
461.7428	0.0147
461.9445	0.0193
462.1462	0.009
462.3479	0.0113
462.5495	0.0234
462.7512	0.0269
462.9528	0.0139
463.1544	0.0155
463.356	0.0119
463.5576	0.0143
463.7592	0.009
463.9607	0.0123
464.1623	0.0142
464.3638	0.0115
464.5653	0.0046
464.7668	0.0223
464.9683	0.0111
465.1697	0.0038
465.3712	0.0041
465.5726	0.0086
465.7741	0.0141
465.9755	0.0087
466.1769	0.0059
466.3782	0.0143
466.5796	0.0101
466.7809	0.0094
466.9823	0.0091
467.1836	0.0037
467.3849	0.0103
467.5862	0.0001
467.7875	-0.0011
467.9887	0.0127
468.19	0.0088
468.3912	0.0171
468.5924	0.0053
468.7936	0.0094
468.9948	-0.0035
469.196	0.0065
469.3972	0.0022
469.5983	0.0089
469.7994	0.0061
470.0006	0.0072
470.2017	0.017
470.4027	0.0212
470.6038	0.0102
470.8049	0.0073
471.0059	0.005
471.2069	0.0105
471.408	0.0204
471.6089	0.0103
471.8099	0.0094
472.0109	0.0071
472.2119	0.0098
472.4128	0.0071
472.6137	0.0035
472.8146	0.0038
473.0155	0.0082
473.2164	0.0047
473.4173	0.0009
473.6181	-0.001
473.819	0.0137
474.0198	-0.0043
474.2206	-0.0051
474.4214	0.0069
474.6222	-0.0035
474.8229	0.0031
475.0237	0.0067
475.2244	-0.0018
475.4251	0.0011
475.6258	-0
475.8265	0.013
476.0272	-0.0006
476.2278	0
476.4285	0.012
476.6291	0.0059
476.8297	0.0087
477.0303	0.0014
477.2309	0.0059
477.4315	0.0072
477.632	-0.0079
477.8326	0.0055
478.0331	0.0046
478.2336	0.0031
478.4341	0.0073
478.6346	0.0043
478.8351	-0.0009
479.0355	0.0122
479.236	0.0099
479.4364	-0.0019
479.6368	0.0018
479.8372	0.0014
480.0376	0.0026
480.2379	0.0085
480.4383	0.0092
480.6386	-0.0056
480.8389	-0.004
481.0392	-0.0019
481.2395	0.0103
481.4398	0.0093
481.6401	0.0054
481.8403	-0.0015
482.0405	0.0022
482.2408	0.0089
482.441	0.0041
482.6411	0.0088
482.8413	0.0055
483.0415	0.0056
483.2416	-0.0005
483.4417	0.0024
483.6419	-0.0038
483.8419	0.0047
484.042	0.0042
484.2421	0.0059
484.4422	0.0069
484.6422	0.0087
484.8422	0.0034
485.0422	0.0029
485.2422	0.0009
485.4422	0.0047
485.6422	0.0035
485.8421	0.0038
486.042	0.0107
486.242	-0.0004
486.4419	-0.0003
486.6417	0.0005
486.8416	0.0054
487.0415	-0.0014
487.2413	-0.0034
487.4411	0.0061
487.641	0.0032
487.8408	0.0046
488.0405	0.0071
488.2403	0.002
488.4401	-0.0009
488.6398	0.0023
488.8395	0.0052
489.0392	0.0063
489.2389	0.0103
489.4386	-0.0006
489.6383	0.0155
489.8379	-0.0021
490.0376	0.0103
490.2372	-0.0038
490.4368	0.0006
490.6364	-0.005
490.836	-0.0035
491.0355	-0.0049
491.2351	0.002
491.4346	0.0093
491.6341	-0.0044
491.8336	0.0042
492.0331	0.0085
492.2326	0.0074
492.432	0.0016
492.6315	0.0054
492.8309	0.0071
493.0303	0.0069
493.2297	0.0031
493.4291	0.0012
493.6284	0.0096
493.8278	-0.0013
494.0271	-0.0009
494.2264	0.002
494.4257	0.0029
494.625	-0.0006
494.8243	-0.0005
495.0236	0.0036
495.2228	0.0087
495.422	0.0015
495.6213	-0.0009
495.8205	0.0093
496.0196	0.0017
496.2188	0.0031
496.418	-0.0022
496.6171	0.0048
496.8162	0.0041
497.0153	0.0131
497.2144	-0.003
497.4135	0.0063
497.6126	-0.0017
497.8116	-0.0024
498.0107	0.0009
498.2097	0.004
498.4087	-0.001
498.6077	-0.0038
498.8067	0.0031
499.0056	-0.0017
499.2046	0.0048
499.4035	-0.0096
499.6024	-0.0044
499.8013	0.0127
500.0002	0.0027
500.199	0.0018
500.3979	-0.0032
500.5967	-0.0057
500.7956	0.0039
500.9944	-0.0027
501.1932	0.0094
501.3919	0.0025
501.5907	0.0013
501.7895	0.0019
501.9882	-0.004
502.1869	0.0125
502.3856	0.0009
502.5843	-0.0026
502.783	0.0021
502.9816	0.0083
503.1803	-0.001
503.3789	0.0035
503.5775	0.0025
503.7761	-0.0014
503.9747	0.0045
504.1732	-0.0044
504.3718	0.0116
504.5703	0.0001
504.7689	-0.0044
504.9674	-0.0032
505.1658	-0.0007
505.3643	0.0067
505.5628	0.0064
505.7612	0.0074
505.9597	-0.0055
506.1581	-0.0067
506.3565	0.0007
506.5549	-0.0021
506.7532	-0.0004
506.9516	0.0049
507.1499	0.0018
507.3482	0.0026
507.5465	0.003
507.7448	0.0055
507.9431	0.0004
508.1414	-0.0092
508.3396	0.0006
508.5379	-0.0059
508.7361	0.0037
508.9343	0.0109
509.1325	0.0051
509.3306	-0.001
509.5288	-0.0084
509.7269	0
509.9251	0.0088
510.1232	0.0012
510.3213	0.0031
510.5193	-0.003
510.7174	0.0002
510.9154	0.0011
511.1135	-0.0015
511.3115	0.0021
511.5095	0.0037
511.7075	-0.0026
511.9055	0.0023
512.1034	-0.0027
512.3014	-0.0046
512.4993	0.0012
512.6972	-0.0048
512.8951	-0.0045
513.093	-0.0005
513.2908	0.004
513.4887	-0.0026
513.6865	0.002
513.8844	0.0041
514.0822	-0.0025
514.2799	-0.012
514.4777	-0.0088
514.6755	-0.001
514.8732	-0.0014
515.0709	-0.0031
515.2687	-0.0099
515.4664	0.0068
515.664	0.0161
515.8617	0.0054
516.0594	0.0037
516.257	-0.0001
516.4546	0.0056
516.6522	0.0094
516.8498	-0.0032
517.0474	0.0031
517.2449	-0.0017
517.4425	0.0001
517.64	0.0018
517.8375	0.0074
518.035	-0.007
518.2325	0.002
518.43	-0.0028
518.6274	0.0066
518.8249	-0.0076
519.0223	0.0113
519.2197	-0.0083
519.4171	0.0034
519.6145	0.0015
519.8118	-0.0043
520.0092	-0.0026
520.2065	0.0105
520.4038	0.0015
520.6011	0.0009
520.7984	0.0007
520.9956	-0.0034
521.1929	-0.0044
521.3901	0.0006
521.5874	0.0082
521.7846	-0.0034
521.9818	-0.0024
522.1789	-0.0113
522.3761	0.0159
522.5732	-0.0067
522.7704	-0.0124
522.9675	-0.0038
523.1646	-0.0047
523.3617	-0.0011
523.5587	0.0022
523.7558	-0.0022
523.9528	-0.0001
524.1498	0.0035
524.3468	0.0014
524.5438	-0.0024
524.7408	-0.0089
524.9378	0.0045
525.1347	0.011
525.3316	-0.0044
525.5285	-0.0092
525.7254	0.0019
525.9223	0.0043
526.1192	0.0004
526.316	0.004
526.5129	0.0068
526.7097	0.0012
526.9065	-0.0031
527.1033	0.0001
527.3	-0.0001
527.4968	0.0004
527.6935	-0.0107
527.8903	-0.0029
528.087	0.0101
528.2837	0.0111
528.4804	-0.0029
528.677	0.0056
528.8737	-0.0009
529.0703	-0.0105
529.2669	0.0127
529.4635	-0.0017
529.6601	-0.0013
529.8567	-0.0029
530.0532	-0.0096
530.2498	-0.0064
530.4463	0.001
530.6428	0.0079
530.8393	0.0116
531.0358	-0.0139
531.2322	-0.0026
531.4287	-0.0002
531.6251	-0.0113
531.8215	-0.0047
532.0179	-0.0006
532.2143	0.0108
532.4107	0.0004
532.607	-0.0078
532.8034	-0.0097
532.9997	-0.0044
533.196	0.0016
533.3923	-0.0007
533.5886	0.0075
533.7848	-0.0039
533.9811	0.0085
534.1773	0.0055
534.3735	0.0082
534.5697	0.003
534.7659	-0.0012
534.9621	0.0062
535.1582	-0.0038
535.3544	0.003
535.5505	0.0085
535.7466	0.0051
535.9427	0.0035
536.1387	0.0027
536.3348	0.0013
536.5308	-0.013
536.7269	-0.0073
536.9229	-0.0044
537.1189	0.0049
537.3148	-0.0059
537.5108	0.0048
537.7068	0.0123
537.9027	-0.0056
538.0986	0.0028
538.2945	-0.0013
538.4904	-0.0045
538.6863	-0.0063
538.8821	0.0129
539.078	-0.0039
539.2738	-0.0029
539.4696	-0.0035
539.6654	0
539.8611	0.0036
540.0569	-0.0046
540.2526	0.0091
540.4484	-0.0063
540.6441	-0.0009
540.8398	0.0108
541.0355	0.0027
541.2311	0.0061
541.4268	0.0173
541.6224	-0.002
541.818	0.0012
542.0136	0.0031
542.2092	0.0039
542.4048	0.0041
542.6003	-0.0059
542.7959	0.0143
542.9914	-0.0016
543.1869	-0.0034
543.3824	0.0051
543.5779	0.0161
543.7734	0.0083
543.9688	0.0055
544.1642	0.0003
544.3596	0.0127
544.555	0.0004
544.7504	0.0112
544.9458	0.0024
545.1411	-0.0031
545.3365	0.0115
545.5318	0.0051
545.7271	0.0082
545.9224	-0.0094
546.1177	-0.0002
546.3129	0.0003
546.5081	0.0018
546.7034	0.0034
546.8986	0.0081
547.0938	0.0056
547.289	0.0109
547.4841	0.0078
547.6793	0.0035
547.8744	0.0002
548.0695	0.001
548.2646	0.006
548.4597	0.0037
548.6548	0.0113
548.8498	0.0032
549.0448	-0.002
549.2399	0.0099
549.4349	0.0045
549.6298	0.002
549.8248	0.0036
550.0198	0.0035
550.2147	0.0057
550.4096	0.0025
550.6045	0.0091
550.7994	-0.0036
550.9943	0.0091
551.1892	-0.0107
551.384	0.0116
551.5788	0.007
551.7737	0.0042
551.9685	0.0133
552.1632	0.0007
552.358	-0.0042
552.5528	0.005
552.7475	0.0079
552.9422	0.0024
553.1369	0.0109
553.3316	0.0103
553.5263	0.0036
553.7209	0.0068
553.9156	0.001
554.1102	0.0021
554.3048	-0.002
554.4994	-0.0019
554.694	-0.001
554.8885	-0.002
555.0831	0.0077
555.2776	0.0061
555.4721	0.0095
555.6666	0.005
555.8611	0.0048
556.0555	0.005
556.25	0.0093
556.4444	0.003
556.6388	-0.0077
556.8332	0.0074
557.0276	-0.0003
557.222	-0.0012
557.4163	-0.0037
557.6107	0.0005
557.805	-0.0037
557.9993	0.0059
558.1936	-0.0074
558.3879	0.0102
558.5821	-0.0043
558.7764	-0.0065
558.9706	0.002
559.1648	0.0179
559.359	-0.0037
559.5532	0.0022
559.7473	0.0045
559.9415	0.0067
560.1356	0.0071
560.3297	-0.0018
560.5238	0.0107
560.7179	-0.0058
560.9119	0.0058
561.106	-0.005
561.3	-0.0038
561.494	-0.0076
561.688	0.0016
561.882	-0.0034
562.076	0.0032
562.2699	0.0082
562.4639	0.0109
562.6578	0.011
562.8517	0.0058
563.0456	0.0098
563.2395	-0.0049
563.4333	0.0091
563.6272	-0.0045
563.821	0.0071
564.0148	0.0036
564.2086	0.0088
564.4024	0.0047
564.5961	0.0054
564.7899	0.0071
564.9836	0.003
565.1773	0.0093
565.371	0.0034
565.5647	0.0069
565.7584	0.0088
565.952	0.0044
566.1456	-0.0017
566.3393	0.0056
566.5329	0.0058
566.7264	0.0055
566.92	-0.0046
567.1136	0.0024
567.3071	0.0008
567.5006	0.0028
567.6941	-0.0003
567.8876	0.0028
568.0811	0.0177
568.2745	-0.0027
568.468	0.0074
568.6614	0.0088
568.8548	0.0035
569.0482	0.0088
569.2416	0.003
569.4349	0.0022
569.6283	0.0031
569.8216	0.003
570.0149	-0.0018
570.2082	0.0133
570.4015	0.0033
570.5947	0.0029
570.788	0.0083
570.9812	-0.002
571.1744	0.0029
571.3676	0.0051
571.5608	0.0039
571.754	0.0086
571.9471	0.0099
572.1402	-0.0005
572.3333	0.0054
572.5264	0.0079
572.7195	0.0009
572.9126	0.0031
573.1057	0.0068
573.2987	0.0035
573.4917	0.0039
573.6847	0.004
573.8777	0.0078
574.0707	0.0044
574.2636	0.001
574.4566	0.0022
574.6495	0.0031
574.8424	0.0041
575.0353	0.0101
575.2281	0.0077
575.421	-0.0024
575.6138	0.003
575.8067	0.004
575.9995	0.0064
576.1923	0.0065
576.385	0.0059
576.5778	0.012
576.7706	0.0054
576.9633	0.0054
577.156	-0.0004
577.3487	0.006
577.5414	0.004
577.734	0.0023
577.9267	0.0089
578.1193	0.0085
578.3119	-0.0002
578.5045	0.004
578.6971	0.0007
578.8897	0.0019
579.0822	0.0068
579.2747	0.0003
579.4673	0.0013
579.6598	0.0059
579.8522	0.0029
580.0447	0.0068
580.2372	0.0102
580.4296	0.0076
580.622	0.0025
580.8144	0.0057
581.0068	0.0044
581.1992	0.0045
581.3915	0.0001
581.5839	0.0062
581.7762	0.0012
581.9685	0.0051
582.1608	0.0026
582.353	0.0043
582.5453	0.0052
582.7375	0.0049
582.9298	0.0018
583.122	0.0013
583.3142	0.0042
583.5063	0.0001
583.6985	-0.0007
583.8906	-0.0003
584.0827	0.0049
584.2749	0.001
584.4669	0.0057
584.659	0.0087
584.8511	0.008
585.0431	0.0076
585.2352	0.0036
585.4272	0.0048
585.6192	0.005
585.8111	0.0013
586.0031	0.0018
586.195	0.003
586.387	0.0035
586.5789	0.0051
586.7708	0.006
586.9627	0.0092
587.1545	0.0045
587.3464	0.0035
587.5382	0.0088
587.73	0.011
587.9218	0.0038
588.1136	-0.0004
588.3053	0.0042
588.4971	0.006
588.6888	0.0005
588.8805	-0.0003
589.0722	0.0089
589.2639	-0.0001
589.4556	0.0083
589.6472	0.005
589.8389	0.0048
590.0305	0.0045
590.2221	0.0053
590.4137	0.0073
590.6052	0.0027
590.7968	0.004
590.9883	0.0044
591.1798	0.0101
591.3713	-0.0027
591.5628	0.0057
591.7543	0.0047
591.9458	0.0051
592.1372	0.0098
592.3286	0.0027
592.52	0.0022
592.7114	0.005
592.9028	0.004
593.0941	0.0026
593.2855	0.0041
593.4768	0.0092
593.6681	0.0076
593.8594	0.0071
594.0506	0.0034
594.2419	0.0041
594.4331	0.0045
594.6244	-0.005
594.8156	0.0009
595.0067	-0.0054
595.1979	0.0024
595.3891	0.0046
595.5802	0.0109
595.7713	0.0096
595.9624	0.0108
596.1535	0.008
596.3446	0.0003
596.5357	0.0091
596.7267	0.002
596.9177	0.0003
597.1087	-0.0044
597.2997	0.0003
597.4907	-0.0062
597.6817	0.0076
597.8726	0.0073
598.0635	-0.003
598.2544	0.0043
598.4453	0.0016
598.6362	0.0069
598.827	0.0034
599.0179	0.0086
599.2087	0.0072
599.3995	0.0121
599.5903	0.0064
599.7811	0.0099
599.9718	0.0008
600.1626	0.0003
600.3533	0.0059
600.544	0.0044
600.7347	0.0064
600.9254	0.0067
601.116	0.0012
601.3067	-0.0006
601.4973	0.0088
601.6879	0.004
601.8785	0.0107
602.0691	0.0046
602.2596	-0.0006
602.4502	0.0046
602.6407	0.0063
602.8312	0.0061
603.0217	0.007
603.2122	0.0018
603.4027	0
603.5931	0.0037
603.7835	0.0062
603.9739	0.0054
604.1643	0.0068
604.3547	0.0109
604.5451	0.0023
604.7354	-0.006
604.9257	0.004
605.116	-0.0016
605.3063	0.0055
605.4966	0.0059
605.6869	0.0077
605.8771	0.006
606.0673	0.007
606.2575	0.0036
606.4477	0.008
606.6379	-0.0017
606.8281	0.0011
607.0182	-0.0023
607.2083	0.0048
607.3985	0.0027
607.5885	0.0019
607.7786	0.0076
607.9687	0.0029
608.1587	0.0105
608.3488	0.0046
608.5388	-0.0006
608.7288	0.003
608.9187	-0.0002
609.1087	0.0098
609.2986	0.0117
609.4886	-0.0004
609.6785	0.0058
609.8684	0.0016
610.0582	-0.0034
610.2481	-0.002
610.4379	0.0047
610.6278	0.0059
610.8176	0.0028
611.0074	0.0094
611.1971	0.0007
611.3869	0.0059
611.5766	0.0013
611.7664	0.0042
611.9561	0.009
612.1458	0.0061
612.3354	0.0066
612.5251	0.0005
612.7147	0.007
612.9044	-0.0016
613.094	0.0036
613.2836	0.0013
613.4731	-0.0013
613.6627	0.0056
613.8522	0.0077
614.0417	0.0066
614.2313	0.0112
614.4207	0.0082
614.6102	0.0095
614.7997	0.0109
614.9891	0.0035
615.1785	-0.0002
615.3679	0.0037
615.5573	0.0077
615.7467	0
615.9361	0.0032
616.1254	0.0178
616.3147	0.0014
616.504	0.0028
616.6933	0.0051
616.8826	-0.0044
617.0718	0.0119
617.2611	-0.0023
617.4503	0.0043
617.6395	0.0061
617.8287	0.0103
618.0179	0.0015
618.207	0.0088
618.3961	-0.0017
618.5853	0.0047
618.7744	0.0066
618.9634	0.0144
619.1525	0.0082
619.3416	0.0015
619.5306	0.0173
619.7196	0.0075
619.9086	-0.0016
620.0976	0.0028
620.2866	0.0038
620.4755	0.0037
620.6645	0.0029
620.8534	0.0032
621.0423	0.0015
621.2312	0.0023
621.42	0.0025
621.6089	-0.0057
621.7977	0.0078
621.9865	0.0094
622.1753	-0.0023
622.3641	-0.0096
622.5529	-0.004
622.7416	0.0045
622.9303	-0.0036
623.1191	0.0085
623.3078	0.0063
623.4964	-0.0005
623.6851	0.0067
623.8737	-0.0034
624.0624	-0.0128
624.251	0.0084
624.4396	0.0087
624.6282	0.0158
624.8167	0.0042
625.0053	0.0102
625.1938	0.0034
625.3823	0.0129
625.5708	0.0013
625.7593	0.0083
625.9477	0.0149
626.1362	0.0034
626.3246	0.007
626.513	0.0006
626.7014	0.009
626.8898	0.0104
627.0781	0.0075
627.2665	0.0187
627.4548	0.0036
627.6431	0.0086
627.8314	0.0045
628.0197	0.0183
628.2079	0.0016
628.3962	-0.0008
628.5844	0.003
628.7726	0.0159
628.9608	0.0034
629.1489	0.0039
629.3371	0.0038
629.5252	0.007
629.7134	0.0052
629.9015	0.0158
630.0895	-0.0175
630.2776	0.0138
630.4657	0.0141
630.6537	0.0141
630.8417	-0.0116
631.0297	0.0039
631.2177	0.0012
631.4057	0.0044
631.5936	-0.0036
631.7815	0.008
631.9695	0.0173
632.1574	0.0096
632.3452	0.0056
632.5331	0.0126
632.7209	0.025
632.9088	-0.0088
633.0966	0.029
633.2844	0.001
633.4722	0.0034
633.6599	0.0101
633.8477	0.0059
634.0354	0.0151
634.2231	-0.0121
634.4108	0.0071
634.5985	0.0052
634.7861	-0.0058
634.9738	-0.0033
635.1614	0.0065
635.349	0.0074
635.5366	0.0043
635.7242	0.0039
635.9117	0.0133
636.0993	0.017
636.2868	0.0039
636.4743	0.0046
636.6618	-0.0086
636.8492	0.004
637.0367	0.004
637.2241	0.0108
637.4115	0.0245
637.5989	0.0133
637.7863	0.0153
637.9737	0.0009
638.161	0.0105
638.3484	-0.0168
638.5357	0.0012
638.723	0.0229
638.9103	-0.0083
639.0975	-0.0015
639.2848	0.0113
639.472	0.0038
639.6592	-0.0125
639.8464	0.0052
640.0336	0.0097
640.2208	0.0032
640.4079	-0.0017
640.595	0.0005
640.7821	0.013
640.9692	-0.0085
641.1563	0.0043
641.3434	0.0081
641.5304	0.0179
641.7174	0.0243
641.9044	0.0159
642.0914	0.0233
642.2784	-0.0011
642.4653	-0.0178
642.6523	0.0009
642.8392	-0.0028
643.0261	0.015
643.213	0.0153
643.3999	0.0145
643.5867	0.0256
643.7735	-0.0111
643.9604	0.0063
644.1472	-0.0033
644.3339	0.0094
644.5207	-0.0013
644.7075	0.0006
644.8942	-0.0108
645.0809	-0.009
645.2676	-0.0108
645.4543	-0.0004
645.6409	0.0006
645.8276	0.0114
646.0142	0.0124
646.2008	-0.0064
646.3874	-0.0016
646.574	-0.005
646.7605	0.0179
646.9471	-0.0043
647.1336	-0.0272
647.3201	0.0035
647.5066	0.0036
647.6931	-0.0024
647.8795	0.0017
648.0659	-0.0035
648.2524	0.0119
648.4388	0.0047
648.6252	0.0058
648.8115	0.0053
648.9979	0.0108
649.1842	0.0136
649.3705	0.0151
649.5568	-0.0034
649.7431	-0.0074
649.9294	0.0049
650.1156	-0.0107
650.3018	0.002
650.488	-0.0014
650.6742	0.0082
650.8604	0.0101
651.0466	-0.0057
651.2327	-0.0108
651.4188	0.0023
651.6049	0.0112
651.791	-0.0022
651.9771	0.0099
652.1632	0.0037
652.3492	-0.0019
652.5352	0.0264
652.7212	-0.0029
652.9072	-0.003
653.0932	-0.0034
653.2791	-0.0083
653.465	0.0043
653.651	0.016
653.8369	0.0089
654.0227	-0.0203
654.2086	0.0102
654.3944	0.0145
654.5803	-0.0001
654.7661	0.0055
654.9519	-0.0002
655.1377	0.0001
655.3234	0.0001
655.5092	0.0001
655.6949	0.0001
655.8806	0.0001
656.0663	0.0001
656.2519	0.0001
656.4376	0.0001
656.6232	0.0001
656.8088	0.0001
656.9945	0.0001
657.18	0.0001
657.3656	0.0001
657.5511	0.0001
657.7367	0.0001
657.9222	0.0001
658.1077	0.0001
658.2932	0.0001
658.4786	0.0001
658.6641	0.0001
658.8495	0.0001
659.0349	0.0001
659.2203	0.0001
659.4057	0.0001
659.591	0.161
659.7764	0.0413
659.9617	0.004
660.147	-0.0016
660.3323	-0.0054
660.5176	-0.0062
660.7028	-0.0154
660.888	0.0017
661.0733	0.0168
661.2585	-0.0147
661.4436	0.0074
661.6288	0.0176
661.8139	0.0051
661.9991	-0.0148
662.1842	-0.0028
662.3693	-0.0123
662.5544	0.0211
662.7394	0.0274
662.9245	0.0034
663.1095	-0.0083
663.2945	-0.011
663.4795	-0.0101
663.6644	0.0105
663.8494	0.0109
664.0343	0.0083
664.2193	-0.0017
664.4042	0.0116
664.589	0.0008
664.7739	0.0107
664.9587	-0.008
665.1436	-0.0098
665.3284	0.0018
665.5132	-0.0082
665.698	0.0173
665.8827	0.0117
666.0675	0.0049
666.2522	0.0117
666.4369	0.0014
666.6216	0.0049
666.8063	-0.0066
666.9909	0.0015
667.1756	0.0091
667.3602	-0.0067
667.5448	0.0001
667.7294	0.0049
667.9139	-0.003
668.0985	0.0252
668.283	0.0091
668.4675	0.0193
668.652	0.0135
668.8365	0.0068
669.0209	0.0011
669.2054	-0.0056
669.3898	0.0182
669.5742	0.0109
669.7586	-0.0062
669.943	0.0112
670.1273	-0.0043
670.3117	0.0153
670.496	-0.004
670.6803	0.0087
670.8646	-0.0105
671.0488	0.0308
671.2331	-0.0259
671.4173	0.009
671.6015	-0.0064
671.7857	0.0014
671.9699	0.0096
672.1541	-0.0023
672.3382	0.0066
672.5223	0.0027
672.7064	0.0007
672.8905	-0.0029
673.0746	0.0266
673.2587	0.0313
673.4427	0.0028
673.6267	0.0213
673.8107	0.0344
673.9947	0.0064
674.1787	0.0099
674.3626	0.0058
674.5465	0.0107
674.7304	0.0024
674.9143	0.0092
675.0982	0.0239
675.2821	-0.0118
675.4659	-0.0216
675.6497	0.0186
675.8335	0.0187
676.0173	-0.0063
676.2011	0.0215
676.3849	-0.0145
676.5686	0.0193
676.7523	0.0132
676.936	-0.002
677.1197	-0.0081
677.3034	0.029
677.487	-0.0009
677.6706	0.0143
677.8542	0.011
678.0378	0.0239
678.2214	0.0068
678.405	0.0106
678.5885	0.0134
678.772	0.0148
678.9555	0.0111
679.139	0.0158
679.3225	0.006
679.5059	0.0035
679.6894	0.0022
679.8728	0.0052
680.0562	0.0133
680.2395	-0.0004
680.4229	-0.0165
680.6062	0.0116
680.7896	-0.0211
680.9729	0.0097
681.1562	-0.0059
681.3394	0.0067
681.5227	0.0008
681.7059	0.0078
681.8891	0.0071
682.0723	-0.0011
682.2555	0.0051
682.4387	0.0128
682.6218	0.0139
682.805	-0.0033
682.9881	0.0218
683.1712	-0.0037
683.3542	0.0159
683.5373	-0.0027
683.7203	0.0221
683.9034	0.0045
684.0864	-0.0059
684.2694	0.0046
684.4523	0.0142
684.6353	-0.0021
684.8182	-0.0044
685.0011	0.004
685.184	0.0006
685.3669	0.0191
685.5498	0.0108
685.7326	-0.0065
685.9154	0.0011
686.0982	0.0099
686.281	-0.0176
686.4638	0.0109
686.6465	0.0069
686.8293	-0.0045
687.012	0.0104
687.1947	0.0035
687.3774	0.0031
687.56	-0.0069
687.7427	0.0011
687.9253	-0.004
688.1079	0.0142
688.2905	0.0161
688.4731	0.0306
688.6556	0.0021
688.8382	-0.0195
689.0207	0.0074
689.2032	0.0138
689.3857	0.0057
689.5681	-0.0013
689.7506	0.0384
689.933	-0.0112
690.1154	-0.0022
690.2978	0.0012
690.4802	0.0171
690.6626	0.001
690.8449	0.0053
691.0272	0.0024
691.2095	-0.0096
691.3918	0.0111
691.5741	0.0182
691.7563	0.0098
691.9386	0.0237
692.1208	0.0085
692.303	0.0006
692.4852	0.0013
692.6673	0.0167
692.8495	-0.0028
693.0316	0.0054
693.2137	0.0127
693.3958	0.0004
693.5778	0.0181
693.7599	0.0165
693.9419	-0.0122
694.1239	-0.009
694.3059	0.0184
694.4879	0.0042
694.6699	0.0157
694.8518	0.0123
695.0337	0.0113
695.2157	0.034
695.3975	-0.0028
695.5794	-0.0131
695.7613	0.0267
695.9431	-0.0206
696.1249	0.0099
696.3067	-0.0004
696.4885	0.0083
696.6703	0.007
696.852	-0.0037
697.0337	0.0271
697.2154	0.0236
697.3971	0.0042
697.5788	0.0091
697.7605	0.01
697.9421	0.0168
698.1237	0.02
698.3053	-0.0002
698.4869	-0.0023
698.6685	-0.0154
698.85	0.0121
699.0315	-0.0061
699.213	0.0091
699.3945	0.0252
699.576	0.0373
699.7575	-0.0099
699.9389	0.0229
700.1203	0.0029
700.3017	0.0298
700.4831	0.0325
700.6645	0.0456
700.8458	0.0279
701.0271	0.0393
701.2084	0.008
701.3897	0.0058
701.571	-0.0033
701.7523	0.0074
701.9335	0.0263
702.1147	0.019
702.2959	-0.0138
702.4771	0.0109
702.6583	-0.0062
702.8394	-0.0119
703.0205	0.0186
703.2016	-0.0077
703.3827	-0.0056
703.5638	-0.007
703.7449	0.0344
703.9259	0.013
704.1069	-0.0345
704.2879	0.0222
704.4689	-0.0271
704.6499	0.0245
704.8308	0.0043
705.0117	0.0194
705.1927	-0.0101
705.3735	0.0173
705.5544	-0.0065
705.7353	0.0159
705.9161	-0.0178
706.0969	0.0214
706.2777	-0.0075
706.4585	0.0039
706.6393	0.0352
706.82	0.0188
707.0007	-0.013
707.1815	-0.006
707.3621	0.0167
707.5428	0.0083
707.7235	0.0063
707.9041	0.0047
708.0847	0.0146
708.2653	0.0099
708.4459	-0.0079
708.6265	0.0021
708.807	-0.0181
708.9875	0.0071
709.168	0.0098
709.3485	0.0105
709.529	0.016
709.7095	-0.0148
709.8899	0.0202
710.0703	0.0105
710.2507	-0.0133
710.4311	-0.0332
710.6115	0.0035
710.7918	0.0317
710.9721	0.0026
711.1524	-0.0097
711.3327	-0.0142
711.513	0.0119
711.6932	0.0082
711.8735	0.0432
712.0537	-0.0155
712.2339	0.0038
712.4141	-0.0047
712.5942	-0.0039
712.7744	0.0288
712.9545	0.023
713.1346	0.023
713.3147	0.0121
713.4947	0.002
713.6748	0.0132
713.8548	0.0119
714.0348	0.0178
714.2148	-0.0016
714.3948	-0.0002
714.5748	0.0113
714.7547	0.0393
714.9346	0.0248
715.1145	-0.0084
715.2944	-0.018
715.4743	0.0243
715.6541	0.001
715.834	0.0179
716.0138	0.0379
716.1936	-0.0236
716.3733	-0.0088
716.5531	-0.0104
716.7328	-0.0045
716.9126	0.0047
717.0923	0.0056
717.2719	-0.0053
717.4516	-0.0058
717.6312	0.0017
717.8109	0.0132
717.9905	0.0172
718.1701	0.0325
718.3496	-0.0073
718.5292	0.0182
718.7087	-0.0235
718.8882	0.0291
719.0677	-0.0079
719.2472	-0.0081
719.4267	-0.0123
719.6061	-0.0208
719.7856	0.0081
719.965	-0.0049
720.1443	-0.0038
720.3237	0.0033
720.5031	0.0024
720.6824	-0.004
720.8617	0.0157
721.041	0.0058
721.2203	-0.0231
721.3995	0.011
721.5788	0.0162
721.758	0.0111
721.9372	0.0095
722.1164	-0.0011
722.2956	0.0015
722.4747	0.013
722.6538	0.0082
722.8329	0.0285
723.012	0.0188
723.1911	0.001
723.3702	-0.0058
723.5492	0.0132
723.7282	0.0137
723.9072	0.0122
724.0862	-0.0025
724.2652	0.0062
724.4441	-0.0111
724.623	0.0127
724.8019	0.0019
724.9808	0.014
725.1597	0.0167
725.3385	0.0073
725.5174	0.0021
725.6962	0.0228
725.875	0.0242
726.0538	0.0018
726.2325	0.0243
726.4112	-0.0217
726.59	0.0123
726.7687	-0.0236
726.9474	0.0001
727.126	0.0259
727.3047	-0.0003
727.4833	-0.0136
727.6619	-0.0024
727.8405	-0.0023
728.0191	0.0429
728.1976	-0.0121
728.3762	0.014
728.5547	-0.0082
728.7332	-0.0071
728.9116	0.0035
729.0901	0.0017
729.2686	-0.0018
729.447	0.0276
729.6254	0.0106
729.8038	0.002
729.9821	-0.0241
730.1605	0.0184
730.3388	0.0077
730.5171	0.008
730.6954	-0.0184
730.8737	0.0015
731.0519	-0.0122
731.2302	0.0164
731.4084	-0.0018
731.5866	-0.0099
731.7648	0.0129
731.9429	0.0092
732.1211	0.0007
732.2992	0.0127
732.4773	0.0015
732.6554	-0.0352
732.8335	0.0091
733.0115	0.0162
733.1896	-0.0118
733.3676	0.0282
733.5456	0.0047
733.7235	0.0059
733.9015	0.0055
734.0794	-0.0056
734.2574	-0.0022
734.4353	0.0307
734.6131	0.004
734.791	-0.0041
734.9689	-0.0142
735.1467	-0.0021
735.3245	0.0338
735.5023	0.0127
735.68	0.0017
735.8578	0.0099
736.0355	0.0068
736.2132	0.0111
736.3909	0.0136
736.5686	0.0184
736.7463	-0.0188
736.9239	0.0105
737.1015	0.031
737.2791	0.0222
737.4567	0.0048
737.6343	-0.0066
737.8118	0.0069
737.9894	0.0012
738.1669	0.0181
738.3444	0.0341
738.5218	-0.0261
738.6993	0.0135
738.8767	-0.0088
739.0541	-0.0068
739.2315	0.0086
739.4089	0.0157
739.5863	0.0078
739.7636	0.0039
739.9409	-0.0002
740.1182	0.0036
740.2955	0.0307
740.4728	0.0014
740.65	-0.0082
740.8272	0.0036
741.0044	0.0082
741.1816	0.0199
741.3588	-0.01
741.5359	-0.0165
741.7131	0.0006
741.8902	-0.0133
742.0673	-0.0224
742.2444	0.0235
742.4214	0.0187
742.5985	-0.015
742.7755	0.0036
742.9525	-0.0336
743.1295	-0.029
743.3064	-0.009
743.4834	0.0012
743.6603	0.0354
743.8372	-0.0181
744.0141	0.0482
744.191	0.0247
744.3678	-0.018
744.5446	0.0033
744.7215	-0.0073
744.8982	0.0104
745.075	0.0773
745.2518	-0.0044
745.4285	0.0225
745.6052	-0.0209
745.7819	-0.0017
745.9586	0.0243
746.1353	-0.0079
746.3119	0.015
746.4885	0.0312
746.6651	0.0006
746.8417	0.0065
747.0183	0.0578
747.1948	-0.008
747.3714	0.0208
747.5479	0.0214
747.7244	0.0099
747.9008	-0.0037
748.0773	0.0344
748.2537	0.0182
748.4301	0.0473
748.6065	-0.0193
748.7829	-0.0057
748.9593	-0.0029
749.1356	0.0202
749.3119	0.0101
749.4882	0.029
749.6645	-0.0035
749.8408	0.0308
750.017	0.0032
750.1933	-0.0309
750.3695	0.0024
750.5457	-0.0076
750.7218	0.0007
750.898	-0.0112
751.0741	-0.0112
751.2502	0.0051
751.4263	0.0129
751.6024	0.0086
751.7784	0.0298
751.9545	0.0064
752.1305	0.0081
752.3065	0.0029
752.4825	-0.0015
752.6584	0.0259
752.8344	0.0023
753.0103	-0.001
753.1862	0.0205
753.3621	0.005
753.5379	-0.0205
753.7138	0.0223
753.8896	-0.0113
754.0654	-0.0265
754.2412	0.025
754.417	0.0086
754.5927	-0.005
754.7685	0.0107
754.9442	0.0241
755.1199	0.0013
755.2956	0.0133
755.4712	-0.0058
755.6469	0.0001
755.8225	0.0015
755.9981	0.0065
756.1736	0.0103
756.3492	0.0162
756.5248	0.0188
756.7003	-0.0101
756.8758	0.002
757.0513	0.0129
757.2267	-0.0067
757.4022	-0.0003
757.5776	0.0112
757.753	0.0211
757.9284	-0.0023
758.1038	0.0264
758.2791	0.0068
758.4545	-0.0113
758.6298	0.0025
758.8051	0.0082
758.9803	0.0032
759.1556	-0.0029
759.3308	0.0021
759.506	0.0085
759.6812	0.0227
759.8564	-0.0006
760.0316	-0.0115
760.2067	0.0137
760.3819	-0.0079
760.557	0.003
760.732	-0.0035
760.9071	0.0139
761.0821	0.0001
761.2572	0.0116
761.4322	0.0352
761.6072	0.0032
761.7821	-0.0299
761.9571	0.0158
762.132	-0.0126
762.3069	0.019
762.4818	0.016
762.6567	0.0142
762.8316	0.0131
763.0064	0.0014
763.1812	0.0061
763.356	0.0126
763.5308	0.0223
763.7055	0.0007
763.8803	-0.0074
764.055	0.007
764.2297	-0.0099
764.4044	0.0079
764.579	0.014
764.7537	0.002
764.9283	0.0253
765.1029	0.019
765.2775	0.0231
765.4521	0.0049
765.6266	-0.0021
765.8011	0.0178
765.9756	0.0085
766.1501	-0.0049
766.3246	0.0065
766.4991	0.0011
766.6735	0.0773
766.8479	0.0039
767.0223	0.022
767.1967	0.0331
767.371	-0.015
767.5454	0.0277
767.7197	0.0035
767.894	0.0145
768.0683	0.0303
768.2425	0.0166
768.4168	0.0106
768.591	0.0125
768.7652	-0.0047
768.9394	-0.0108
769.1135	-0.0185
769.2877	0.0229
769.4618	0.0339
769.6359	-0.0093
769.81	0.0067
769.984	0.0127
770.1581	0.005
770.3321	0.043
770.5061	-0.0178
770.6801	0.0154
770.8541	0.0224
771.028	0.0418
771.202	0.0402
771.3759	0.0364
771.5498	0.006
771.7236	0.017
771.8975	-0.0115
772.0713	0.0246
772.2451	-0.0047
772.4189	0.006
772.5927	-0.0135
772.7665	0.0123
772.9402	0.0146
773.1139	0.0035
773.2876	-0.0015
773.4613	0.0099
773.635	0.0279
773.8086	0.0311
773.9822	0.0111
774.1558	0.076
774.3294	-0.0052
774.503	-0.0161
774.6765	0.0016
774.8501	0.0016
775.0236	0.043
775.1971	-0.0286
775.3705	0.0057
775.544	-0.0467
775.7174	0.036
775.8908	0.0038
776.0642	0.0077
776.2376	0.035
776.4109	0.0116
776.5843	-0.0101
776.7576	0.022
776.9309	0.013
777.1041	-0.0111
777.2774	0.0103
777.4506	-0.0255
777.6238	-0.0431
777.797	0.0241
777.9702	-0.0089
778.1434	0.0058
778.3165	-0.0096
778.4896	-0.0251
778.6627	-0.0019
778.8358	0.024
779.0089	-0.0016
779.1819	-0.0161
779.3549	0.0002
779.5279	-0.0082
779.7009	0.0311
779.8739	0.0461
780.0468	-0.0164
780.2197	0.0399
780.3926	-0.003
780.5655	0.0207
780.7384	-0.0019
780.9112	0.0238
781.0841	0.0109
781.2569	0.002
781.4297	-0.0003
781.6024	0.0015
781.7752	0.0712
781.9479	0.0393
782.1206	-0.0077
782.2933	0.0181
782.466	0.017
782.6386	0.0177
782.8113	-0.0202
782.9839	0.002
783.1565	0.0357
783.329	0.006
783.5016	0.0408
783.6741	-0.0253
783.8466	0.0489
784.0191	-0.0011
784.1916	0.0018
784.3641	-0.0831
784.5365	0.0343
784.7089	-0.0256
784.8813	0.0612
785.0537	0.0419
785.2261	-0.0071
785.3984	-0.0147
785.5707	-0.0192
785.743	0.0333
785.9153	0.0293
786.0876	-0.0554
786.2598	-0.0042
786.432	0.01
786.6042	0.0574
786.7764	-0.0364
786.9486	-0.0174
787.1207	0.023
787.2928	0.0571
787.4649	0.0035
787.637	0.0403
787.8091	0.0317
787.9811	0.0436
788.1532	0.0372
788.3252	0.0126
788.4972	0.0024
788.6691	0.002
788.8411	-0.0328
789.013	0.0592
789.1849	-0.0012
789.3568	-0.0467
789.5287	0.0571
789.7005	-0.0127
789.8723	-0.0207
790.0442	-0.0153
790.2159	-0.0286
790.3877	0.025
790.5595	0.026
790.7312	-0.0183
790.9029	0.0224
791.0746	0.0201
791.2463	-0.0122
791.4179	-0.0523
791.5896	0.0604
791.7612	0.0146
791.9328	-0.0274
792.1044	-0.0164
792.2759	-0.0295
792.4474	0.0086
792.619	0.0166
792.7905	0.0262
792.9619	0.0293
793.1334	0.0462
793.3048	0.0443
793.4762	0.0335
793.6476	-0.0433
793.819	-0.0168
793.9904	-0.0064
794.1617	-0.0413
794.333	0.0277
794.5043	0.025
794.6756	-0.0112
794.8469	0.0431
795.0181	0.0356
795.1893	0.0531
795.3605	0.0345
795.5317	0.0256
795.7029	0.0174
795.874	0.0414
796.0452	0.1069
796.2163	0.1054
796.3873	0.0619
796.5584	-0.0199
796.7294	0.0157
796.9005	0.0246
797.0715	-0.021
797.2425	0.1275
797.4134	0.0172
797.5844	0.0393
797.7553	-0.0663
797.9262	0.0783
798.0971	0.0799
798.2679	0.009
798.4388	0.0004
798.6096	0.0796
798.7804	-0.0163
798.9512	0.063
799.122	-0.016
799.2927	0.0563
799.4635	-0.0975
799.6342	-0.0753
799.8049	0.0761
799.9755	-0.06
800.1462	0.0101
800.3168	0.0248
800.4874	-0.0797
800.658	0.0287
800.8286	-0.0747
800.9991	0.0417
801.1696	0.0034
801.3402	0.0047
801.5106	-0.0619
801.6811	-0.0529
801.8516	0.0168
802.022	-0.0105
802.1924	-0.0076
802.3628	0.0662
802.5332	0.1129
802.7035	0.02
802.8739	-0.0184
803.0442	-0.0603
803.2145	0.0453
803.3847	0.0179
803.555	0.0286
803.7252	-0.0713
803.8954	-0.0076
804.0656	-0.0287
804.2358	0.0231
804.4059	0.0747
804.5761	0.0025
804.7462	0.02
804.9163	0.0215
805.0864	-0.008
805.2564	-0.0772
805.4264	-0.0313
805.5965	0.0773
805.7665	0.0321
805.9364	0.0362
806.1064	0.0565
806.2763	0.0534
806.4462	0.0212
806.6161	0.0779
806.786	0.0229
806.9559	0.0411
807.1257	0.0265
807.2955	-0.0343
807.4653	0.0149
807.6351	0.0361
807.8048	0.048
807.9746	0.0182
808.1443	-0.0063
808.314	0.0512
808.4837	0.0548
808.6533	-0.0398
808.8229	0.0894
808.9926	0.0171
809.1622	0.0929
809.3317	-0.0851
809.5013	-0.012
809.6708	-0.0315
809.8403	0.0187
810.0098	0.0847
810.1793	0.0589
810.3488	-0.0032
810.5182	0.0949
810.6876	0.0586
810.857	0.0235
811.0264	0.0215
811.1958	0.1086
811.3651	-0.0586
811.5344	0.1254
811.7037	0.0826
811.873	-0.0011
812.0422	-0.0382
812.2115	-0.0456
812.3807	-0.1028
812.5499	0.174
812.7191	-0.1366
812.8882	-0.0738
813.0574	0.0088
813.2265	0.0148
813.3956	0.0515
813.5646	0.0538
813.7337	0.0341
813.9027	-0.1447
814.0718	0.0281
814.2407	0.0409
814.4097	0.006
814.5787	0.045
814.7476	0.0019
814.9165	-0.0173
815.0854	0.0424
815.2543	-0.033
815.4232	0.0471
815.592	-0.014
815.7608	-0.0555
815.9296	0.1496
816.0984	0.1768
816.2671	-0.1517
816.4359	0.0664
816.6046	-0.0453
816.7733	-0.1184
816.942	-0.0097
817.1106	0.073
817.2793	-0.1429
817.4479	-0.0199
817.6165	0.1083
817.785	0.041
817.9536	-0.0092
818.1221	0.0975
818.2906	-0.1481
818.4591	0.0654
818.6276	-0.0322
818.7961	0.0307
818.9645	0.0551
819.1329	0.3999
819.3013	-0.0612
819.4697	-0.1455
819.638	-0.1398
819.8064	0.0247
819.9747	0.0011
820.143	-0.1009
820.3113	0.058
820.4795	0.0561
820.6477	0.0873
820.816	0.1285
820.9842	0.0609
821.1523	0.0684
821.3205	0.0344
821.4886	-0.0849
821.6567	-0.0471
821.8248	0.0529
821.9929	-0.1192
822.1609	-0.0525
822.329	0.0718
822.497	0.1389
822.665	0.1688
822.833	0.1531
823.0009	0.0866
823.1688	0.293
823.3367	-0.0835
823.5046	0.1891
823.6725	-0.0182
823.8404	-0.0264
824.0082	-0.0127
824.176	0.0067
824.3438	0.128
824.5116	-0.0532
824.6793	0.0233
824.847	0.0322
825.0147	-0.0036
825.1824	0.0961
825.3501	0.0552
825.5177	0.1076
825.6854	-0.1427
825.853	0.0531
826.0206	-0.0926
826.1881	0.0988
826.3557	-0.0585
826.5232	0.154
826.6907	0.1581
826.8582	-0.1338
827.0257	0.2821
827.1931	0.1921
827.3605	0.0249
827.528	-0.1993
827.6953	-0.1139
827.8627	0.029
828.03	0.1181
828.1974	-0.0614
828.3647	0.1517
828.532	-0.0239
828.6992	0.144
828.8665	-0.2369
829.0337	0.1074
829.2009	0.0787
829.3681	0.0814
829.5352	-0.3259
829.7024	0.0778
829.8695	-0.0939
830.0366	0.1636
830.2037	0.2627
830.3707	-0.0051
830.5378	-0.0037
830.7048	-0.1089
830.8718	-0.0071
831.0388	0.0294
831.2057	0.3879
831.3727	-0.3435
831.5396	-0.0489
831.7065	-0.8465
831.8734	0.1869
832.0402	0.1494
832.2071	-0.562
832.3739	0.4869
832.5407	-1.6532
832.7075	-0.4747
832.8742	-0
833.041	-0.036
833.2077	0.4158
833.3744	0.0534
833.541	0.0255
833.7077	0.0698
833.8743	0.2809
834.0409	0.0754
834.2075	0.1884
834.3741	-0.087
834.5407	0.0721
834.7072	0.1423
834.8737	0.0203
835.0402	0.2075
835.2067	-0.0711
835.3731	0.1718
835.5395	-0.0343
835.706	-0.1853
835.8723	-0.0267
836.0387	-0.0619
836.2051	0.1136
836.3714	0.1674
836.5377	-0.1336
836.704	0.1527
836.8703	0.0679
837.0365	-0.2083
837.2027	0.5003
837.3689	0.1823
837.5351	0.2253
837.7013	-0.1108
837.8674	-0.4727
838.0335	-0.1357
838.1997	-0.1174
838.3657	0.5723
838.5318	-0.3951
838.6978	-0
838.8639	-0
839.0299	-0.0789
839.1958	0.2414
839.3618	-0
839.5277	-0.0628
839.6937	0.0596
839.8596	0.0612
840.0254	0.4061
840.1913	0.2684
840.3571	0.0682
840.523	-1.6532
840.6888	-0.082
840.8545	-0.0729
841.0203	0.3068
841.186	0.4613
841.3517	-0.0499
841.5174	0.109
841.6831	0.1583
841.8488	0.1077
842.0144	0.0233
842.18	0.5155
842.3456	-0.6346
842.5112	-0
842.6767	-0.1731
842.8422	0.0682
843.0077	0.4186
843.1732	-0.2458
843.3387	-0.0088
843.5042	-0
843.6696	0.0714
843.835	-0.3078
844.0004	-0.2356
844.1657	-0.5963
844.3311	-0
844.4964	-0.6602
844.6617	0.5139
844.827	-0
844.9923	0.1581
845.1575	0.4088
845.3227	-0.3922
845.4879	-0.1565
845.6531	-0.1097
845.8183	-0.0489
845.9834	-0
846.1485	1.1262
846.3136	-0.2121
846.4787	-0
846.6438	-0.0463
846.8088	0.5882
846.9738	-0
847.1388	0.0706
847.3038	-0.0382
847.4687	0.234
847.6337	-0.4972
847.7986	-0
847.9635	-0.0175
848.1284	-0
848.2932	-0.0955
848.458	-1.8537
848.6228	0.0826
848.7876	-0.2228
848.9524	-0
849.1172	-1.7148
849.2819	-0
849.4466	0.2188
849.6113	0.5458
849.7759	-0
849.9406	0.0033
850.1052	-0.7169
850.2698	0.0722
850.4344	0.1597
850.599	0.0484
850.7635	-0
850.928	0.2771
851.0925	0.1918
851.257	0.5965
851.4215	-0
851.5859	0.3303
851.7503	0.9951
851.9147	-0
852.0791	-0.2267
852.2434	1.0275
852.4078	-0
852.5721	1.5805
852.7364	-0.0555
852.9007	-0.1635
853.0649	-0
853.2291	-0
853.3934	-0
853.5575	-0.2527
853.7217	0.2639
853.8859	-0.4561
854.05	-0.542
854.2141	0.0024
854.3782	0.1712
854.5423	0.1229
854.7063	0.1211
854.8703	0.3093
855.0343	-0.0831
855.1983	0.3756
855.3623	1.0841
855.5262	-0
855.6901	-0
855.854	0.4477
856.0179	0.0559
856.1818	-0
856.3456	-0
856.5094	-0
856.6732	-0.1723
856.837	-1.0388
857.0008	-0
857.1645	0.6635
857.3282	-0.2715
857.4919	0.1511
857.6556	-0.5953
857.8192	0.1168
857.9828	0.1354
858.1465	-0.1099
858.31	-0
858.4736	-0.7126
858.6372	-0
858.8007	0.1197
858.9642	0.1361
859.1277	-0
859.2911	0.0388
859.4546	-0
859.618	0.1243
859.7814	0.6115
859.9448	-0
860.1081	-0
860.2715	0.368
860.4348	1.4292
860.5981	-0
860.7614	-0
860.9246	-0.2951
861.0879	0.6203
861.2511	-0
861.4143	-0.427
861.5774	0.0842
861.7406	-0.132
861.9037	-0.3363
862.0668	0.1493
862.2299	0.5958
862.393	-0.0803
862.556	-0
862.7191	-0.4012
862.8821	0.0768
863.0451	0.6089
863.208	-0.505
863.371	-0
863.5339	0.5029
863.6968	0.6422
863.8597	0.1045
864.0225	-0
864.1854	-0
864.3482	-0.3837
864.511	0.9466
864.6737	-0
864.8365	0.1607
864.9992	-0
865.1619	0.1819
865.3246	-1.9085
865.4873	-0.4866
865.65	-0
865.8126	-0
865.9752	-0.265
866.1378	0.2123
866.3004	0.0207
866.4629	-1.9176
866.6254	-0.5409
866.7879	-0.2211
866.9504	-0.1206
867.1129	-0
867.2753	-0.0283
867.4377	-0
867.6001	-0.1804
867.7625	-0.086
867.9249	-0
868.0872	0.4454
868.2495	0.9691
868.4118	-0
868.5741	-0
868.7363	-0
868.8986	-0.5901
869.0608	-0
869.223	-0.5933
869.3851	-0
869.5473	0.2379
869.7094	0.7613
869.8715	-0.7731
870.0336	0.1209
870.1957	0.0943
870.3577	1.1166
870.5197	0.0392
870.6817	-0.6901
870.8437	-0.0755
871.0057	-0.1317
871.1676	0.1463
871.3295	0.0819
871.4914	-1.4857
871.6533	-0.2831
871.8151	0.7942
871.977	1.0958
872.1388	-0.4952
872.3006	-0
872.4623	-0.8175
872.6241	-0
872.7858	0.1791
872.9475	-0
873.1092	0.1528
873.2709	1.1752
873.4325	-1.5405
873.5941	-0
873.7557	0.5049
873.9173	0.5546
874.0789	0.2331
874.2404	-0
874.4019	0.2442
874.5634	-0
874.7249	-0
874.8863	0.2096
875.0478	-0.2371
875.2092	0.3792
875.3706	0.0328
875.5319	-0
875.6933	-0.3087
875.8546	-0
876.0159	-0
876.1772	-0.5778
876.3385	-0
876.4997	-0
876.6609	-0.1081
876.8221	-0
876.9833	-0.2804
877.1445	0.3426
877.3056	-0.639
877.4667	-0.6904
877.6278	0.806
877.7889	-0
877.9499	0.1466
878.111	0.1127
878.272	0.0704
878.433	-0
878.5939	-0
878.7549	-0.3441
878.9158	-0
879.0767	0.1203
879.2376	-0.137
879.3984	-0
879.5593	-0
879.7201	-1.8897
879.8809	0.1315
880.0417	-0.0928
880.2024	0.6263
880.3632	-0.5516
880.5239	2.1015
880.6846	-0.8674
880.8452	0.7643
881.0059	-0
881.1665	-0.0204
881.3271	0.5247
881.4877	0.0209
881.6483	-1.437
881.8088	-0
881.9693	-0.987
882.1298	-0.987
882.2903	-0.987
