Data from D4ACN5uM440nmA_Absorbance_13-50-25-222.txt Node
Date: Fri Feb 21 13:50:25 GMT 2025
User: LASERRRRR
Spectrometer: FLMT03099
Trigger mode: 0
Integration Time (sec): 1.500000E-2
Scans to average: 1
Electric dark correction enabled: true
Nonlinearity correction enabled: false
Boxcar width: 0
XAxis mode: Wavelengths
Number of Pixels in Spectrum: 3648
>>>>>Begin Spectral Data<<<<<
179.3399	-0.7553
179.5586	-0.7553
179.7771	-0.7553
179.9957	-0.3606
180.2143	-0
180.4329	-0
180.6514	-0
180.8699	-0
181.0885	-0
181.307	1.6031
181.5255	-0.0965
181.744	-0
181.9625	0.029
182.181	-0
182.3994	-0.649
182.6179	1.0531
182.8363	-0
183.0547	-0.2837
183.2732	0.0136
183.4916	0.0379
183.71	0.1016
183.9284	-0.0063
184.1467	0.759
184.3651	0.0518
184.5835	0.0573
184.8018	0.013
185.0201	0.1343
185.2385	0.1448
185.4568	0.0607
185.6751	0.0929
185.8934	0.1028
186.1117	-0.0814
186.3299	0.3558
186.5482	0.1163
186.7664	-0.0228
186.9847	-0.1193
187.2029	0.2464
187.4211	-0.1608
187.6393	0.0045
187.8575	0.1116
188.0757	0.6945
188.2939	0.2721
188.512	0.1069
188.7302	0.244
188.9483	0.2601
189.1665	0.6018
189.3846	0.2337
189.6027	0.2034
189.8208	0.1074
190.0389	0.0068
190.257	-0.0558
190.475	0.0464
190.6931	0.0771
190.9111	0.0651
191.1292	0.1314
191.3472	0.0057
191.5652	0.3479
191.7832	0.1806
192.0012	0.031
192.2192	0.1859
192.4371	0.2407
192.6551	0.1464
192.873	0.1226
193.091	0.2422
193.3089	0.2487
193.5268	0.2443
193.7447	0.2819
193.9626	0.2402
194.1805	0.2323
194.3984	0.3293
194.6162	0.2608
194.8341	0.2705
195.0519	0.3112
195.2697	0.2074
195.4875	0.3054
195.7054	0.2303
195.9231	0.2367
196.1409	0.3244
196.3587	0.2711
196.5765	0.3033
196.7942	0.3223
197.012	0.3328
197.2297	0.3328
197.4474	0.4063
197.6651	0.3613
197.8828	0.357
198.1005	0.4158
198.3182	0.394
198.5358	0.3629
198.7535	0.3767
198.9711	0.3684
199.1888	0.3813
199.4064	0.3947
199.624	0.3746
199.8416	0.3352
200.0592	0.4226
200.2767	0.3915
200.4943	0.4199
200.7119	0.3848
200.9294	0.4081
201.1469	0.4009
201.3645	0.3707
201.582	0.3545
201.7995	0.4055
202.017	0.4235
202.2344	0.3753
202.4519	0.4225
202.6694	0.3924
202.8868	0.3774
203.1042	0.4162
203.3217	0.4056
203.5391	0.3937
203.7565	0.3537
203.9739	0.339
204.1913	0.3468
204.4086	0.3256
204.626	0.3846
204.8433	0.3567
205.0607	0.3656
205.278	0.3424
205.4953	0.345
205.7126	0.3453
205.9299	0.2835
206.1472	0.3246
206.3644	0.3424
206.5817	0.3047
206.7989	0.3321
207.0162	0.2909
207.2334	0.3338
207.4506	0.2836
207.6678	0.2892
207.885	0.3011
208.1022	0.3023
208.3194	0.2772
208.5365	0.28
208.7537	0.2955
208.9708	0.3021
209.1879	0.2731
209.405	0.2793
209.6222	0.2892
209.8392	0.287
210.0563	0.2778
210.2734	0.2568
210.4905	0.2827
210.7075	0.2584
210.9245	0.2641
211.1416	0.248
211.3586	0.2488
211.5756	0.2388
211.7926	0.2656
212.0096	0.2591
212.2265	0.267
212.4435	0.2493
212.6604	0.261
212.8774	0.2362
213.0943	0.2416
213.3112	0.231
213.5281	0.2535
213.745	0.2232
213.9619	0.2404
214.1788	0.2424
214.3956	0.2509
214.6125	0.2414
214.8293	0.2552
215.0461	0.2535
215.2629	0.2524
215.4798	0.2422
215.6965	0.2467
215.9133	0.2328
216.1301	0.2503
216.3469	0.2527
216.5636	0.2583
216.7803	0.2358
216.9971	0.2464
217.2138	0.242
217.4305	0.2394
217.6472	0.2528
217.8639	0.2445
218.0805	0.2459
218.2972	0.2482
218.5138	0.2502
218.7305	0.2536
218.9471	0.2485
219.1637	0.2709
219.3803	0.2599
219.5969	0.249
219.8135	0.2585
220.0301	0.2583
220.2466	0.2475
220.4632	0.2509
220.6797	0.2562
220.8962	0.2602
221.1127	0.2607
221.3292	0.2604
221.5457	0.261
221.7622	0.2599
221.9787	0.2876
222.1951	0.2712
222.4116	0.2716
222.628	0.2786
222.8444	0.2793
223.0608	0.2685
223.2772	0.2801
223.4936	0.2843
223.71	0.2757
223.9264	0.2975
224.1427	0.2746
224.3591	0.2847
224.5754	0.2879
224.7917	0.289
225.008	0.2956
225.2243	0.3038
225.4406	0.2847
225.6569	0.3005
225.8732	0.2991
226.0894	0.3097
226.3057	0.306
226.5219	0.3131
226.7381	0.313
226.9543	0.3033
227.1705	0.3163
227.3867	0.3156
227.6029	0.3231
227.8191	0.348
228.0352	0.3307
228.2513	0.3501
228.4675	0.3441
228.6836	0.3449
228.8997	0.3363
229.1158	0.3508
229.3319	0.359
229.548	0.35
229.764	0.3567
229.9801	0.3743
230.1961	0.3709
230.4121	0.3653
230.6282	0.3798
230.8442	0.3899
231.0602	0.3794
231.2761	0.3721
231.4921	0.3819
231.7081	0.3886
231.924	0.4044
232.14	0.4022
232.3559	0.3941
232.5718	0.4094
232.7877	0.3972
233.0036	0.4067
233.2195	0.406
233.4353	0.4258
233.6512	0.4134
233.867	0.4127
234.0829	0.4308
234.2987	0.4276
234.5145	0.4226
234.7303	0.432
234.9461	0.4331
235.1619	0.4364
235.3776	0.4327
235.5934	0.4333
235.8091	0.4436
236.0249	0.452
236.2406	0.437
236.4563	0.4448
236.672	0.432
236.8877	0.4554
237.1034	0.4463
237.319	0.4505
237.5347	0.4434
237.7503	0.4381
237.966	0.4575
238.1816	0.4484
238.3972	0.4502
238.6128	0.46
238.8284	0.461
239.0439	0.4565
239.2595	0.4583
239.475	0.4656
239.6906	0.4589
239.9061	0.4673
240.1216	0.4574
240.3371	0.4501
240.5526	0.4572
240.7681	0.4626
240.9836	0.4486
241.199	0.4542
241.4145	0.446
241.6299	0.4476
241.8453	0.4353
242.0607	0.4337
242.2761	0.4271
242.4915	0.4181
242.7069	0.4208
242.9223	0.4191
243.1376	0.4033
243.353	0.3979
243.5683	0.3926
243.7836	0.3953
243.9989	0.3788
244.2142	0.371
244.4295	0.3724
244.6448	0.3712
244.86	0.3544
245.0753	0.3414
245.2905	0.3459
245.5057	0.3365
245.721	0.3316
245.9362	0.326
246.1514	0.3169
246.3665	0.3098
246.5817	0.3058
246.7969	0.2942
247.012	0.2912
247.2271	0.2894
247.4423	0.2817
247.6574	0.2808
247.8725	0.2767
248.0876	0.2638
248.3026	0.2695
248.5177	0.2526
248.7328	0.2567
248.9478	0.255
249.1628	0.2475
249.3779	0.2363
249.5929	0.2352
249.8079	0.2424
250.0228	0.2381
250.2378	0.2272
250.4528	0.2276
250.6677	0.2207
250.8827	0.2134
251.0976	0.2158
251.3125	0.2174
251.5274	0.2079
251.7423	0.2102
251.9572	0.2037
252.172	0.2008
252.3869	0.2015
252.6017	0.2031
252.8166	0.1946
253.0314	0.1949
253.2462	0.1919
253.461	0.196
253.6758	0.1955
253.8906	0.1892
254.1053	0.195
254.3201	0.1948
254.5348	0.1827
254.7496	0.1848
254.9643	0.187
255.179	0.1846
255.3937	0.192
255.6083	0.1898
255.823	0.1875
256.0377	0.1819
256.2523	0.1838
256.467	0.1867
256.6816	0.1802
256.8962	0.1801
257.1108	0.1853
257.3254	0.1825
257.54	0.1725
257.7545	0.1825
257.9691	0.1789
258.1836	0.1762
258.3981	0.1765
258.6127	0.1719
258.8272	0.1805
259.0417	0.1755
259.2561	0.1779
259.4706	0.1763
259.6851	0.177
259.8995	0.1768
260.114	0.1722
260.3284	0.1663
260.5428	0.1724
260.7572	0.1771
260.9716	0.181
261.186	0.1742
261.4003	0.1755
261.6147	0.1704
261.829	0.1757
262.0433	0.181
262.2577	0.1738
262.472	0.1724
262.6863	0.1893
262.9005	0.1754
263.1148	0.1695
263.3291	0.1791
263.5433	0.1811
263.7576	0.1801
263.9718	0.1798
264.186	0.1792
264.4002	0.1745
264.6144	0.1861
264.8286	0.1788
265.0427	0.1809
265.2569	0.182
265.471	0.1836
265.6851	0.1826
265.8993	0.1823
266.1134	0.1819
266.3275	0.181
266.5415	0.1803
266.7556	0.1843
266.9697	0.1829
267.1837	0.1824
267.3978	0.1822
267.6118	0.176
267.8258	0.1821
268.0398	0.186
268.2538	0.184
268.4677	0.1784
268.6817	0.1812
268.8957	0.1749
269.1096	0.1767
269.3235	0.1815
269.5374	0.179
269.7514	0.1821
269.9652	0.1785
270.1791	0.174
270.393	0.1715
270.6068	0.1788
270.8207	0.165
271.0345	0.1738
271.2483	0.1702
271.4622	0.1742
271.676	0.1637
271.8897	0.1702
272.1035	0.1724
272.3173	0.176
272.531	0.1735
272.7448	0.1683
272.9585	0.1652
273.1722	0.1699
273.3859	0.1741
273.5996	0.173
273.8133	0.1718
274.0269	0.1694
274.2406	0.1699
274.4542	0.1696
274.6679	0.1727
274.8815	0.18
275.0951	0.1796
275.3087	0.1728
275.5223	0.1767
275.7358	0.1738
275.9494	0.1728
276.1629	0.1775
276.3765	0.1778
276.59	0.1741
276.8035	0.181
277.017	0.1818
277.2305	0.18
277.444	0.1809
277.6574	0.1839
277.8709	0.1862
278.0843	0.1778
278.2978	0.1845
278.5112	0.1744
278.7246	0.1786
278.938	0.1761
279.1513	0.1819
279.3647	0.1816
279.5781	0.1812
279.7914	0.1811
280.0047	0.1859
280.2181	0.181
280.4314	0.1831
280.6447	0.1847
280.8579	0.1757
281.0712	0.1783
281.2845	0.1844
281.4977	0.1802
281.711	0.1796
281.9242	0.1814
282.1374	0.1846
282.3506	0.1841
282.5638	0.1751
282.7769	0.178
282.9901	0.1809
283.2033	0.1826
283.4164	0.1851
283.6295	0.1871
283.8426	0.1764
284.0557	0.1802
284.2688	0.1795
284.4819	0.1787
284.695	0.1889
284.908	0.1762
285.1211	0.1814
285.3341	0.1802
285.5471	0.1871
285.7601	0.1837
285.9731	0.1849
286.1861	0.1897
286.3991	0.1893
286.612	0.1842
286.825	0.1962
287.0379	0.1861
287.2508	0.1881
287.4637	0.1849
287.6766	0.1857
287.8895	0.1846
288.1024	0.1892
288.3152	0.1918
288.5281	0.1817
288.7409	0.1931
288.9538	0.188
289.1666	0.1882
289.3794	0.1845
289.5922	0.1867
289.8049	0.192
290.0177	0.1913
290.2304	0.1865
290.4432	0.1909
290.6559	0.1921
290.8686	0.1923
291.0813	0.1911
291.294	0.1919
291.5067	0.1835
291.7194	0.1896
291.932	0.1804
292.1447	0.1882
292.3573	0.1888
292.5699	0.1935
292.7825	0.1867
292.9951	0.192
293.2077	0.1883
293.4203	0.1889
293.6328	0.1907
293.8454	0.1929
294.0579	0.1933
294.2704	0.192
294.4829	0.1837
294.6954	0.1933
294.9079	0.1876
295.1204	0.1859
295.3328	0.1889
295.5453	0.19
295.7577	0.1851
295.9701	0.1899
296.1825	0.1949
296.3949	0.1865
296.6073	0.1884
296.8197	0.1905
297.0321	0.1936
297.2444	0.1917
297.4567	0.1905
297.6691	0.1875
297.8814	0.1921
298.0937	0.1909
298.306	0.1878
298.5182	0.1947
298.7305	0.1891
298.9428	0.1918
299.155	0.1876
299.3672	0.1892
299.5794	0.1893
299.7916	0.1917
300.0038	0.1964
300.216	0.1847
300.4282	0.1921
300.6403	0.1992
300.8525	0.1906
301.0646	0.1888
301.2767	0.1878
301.4888	0.1903
301.7009	0.1932
301.913	0.1897
302.125	0.1946
302.3371	0.1861
302.5491	0.1954
302.7612	0.1993
302.9732	0.1913
303.1852	0.1958
303.3972	0.1861
303.6092	0.1891
303.8211	0.1905
304.0331	0.1861
304.245	0.1898
304.457	0.1894
304.6689	0.1827
304.8808	0.1868
305.0927	0.1917
305.3046	0.1858
305.5164	0.1883
305.7283	0.1791
305.9401	0.173
306.152	0.1747
306.3638	0.1766
306.5756	0.183
306.7874	0.1772
306.9992	0.1732
307.2109	0.1723
307.4227	0.1664
307.6344	0.1749
307.8462	0.1668
308.0579	0.1708
308.2696	0.164
308.4813	0.1682
308.693	0.1632
308.9046	0.1617
309.1163	0.1592
309.328	0.1571
309.5396	0.1574
309.7512	0.1498
309.9628	0.1534
310.1744	0.1495
310.386	0.1424
310.5976	0.1484
310.8091	0.1506
311.0207	0.1479
311.2322	0.142
311.4437	0.1481
311.6552	0.1451
311.8667	0.1468
312.0782	0.1392
312.2897	0.1489
312.5012	0.1385
312.7126	0.1415
312.924	0.1334
313.1355	0.1325
313.3469	0.1345
313.5583	0.1363
313.7696	0.1334
313.981	0.1383
314.1924	0.1324
314.4037	0.1365
314.6151	0.1316
314.8264	0.1358
315.0377	0.1264
315.249	0.1343
315.4603	0.1254
315.6716	0.1279
315.8828	0.1291
316.0941	0.132
316.3053	0.1259
316.5165	0.1235
316.7277	0.1247
316.9389	0.1277
317.1501	0.1293
317.3613	0.1236
317.5724	0.1282
317.7836	0.1181
317.9947	0.1146
318.2058	0.1188
318.417	0.1198
318.6281	0.1283
318.8391	0.1269
319.0502	0.1249
319.2613	0.1245
319.4723	0.1218
319.6834	0.1259
319.8944	0.1258
320.1054	0.1228
320.3164	0.1179
320.5274	0.1193
320.7383	0.1272
320.9493	0.123
321.1602	0.1211
321.3712	0.1241
321.5821	0.1204
321.793	0.1281
322.0039	0.1248
322.2148	0.1248
322.4257	0.1274
322.6365	0.1195
322.8474	0.1233
323.0582	0.1249
323.269	0.1239
323.4798	0.1261
323.6906	0.1208
323.9014	0.1243
324.1122	0.1225
324.3229	0.1291
324.5337	0.1257
324.7444	0.125
324.9551	0.1261
325.1658	0.1238
325.3765	0.1301
325.5872	0.1273
325.7979	0.1283
326.0085	0.1245
326.2192	0.1252
326.4298	0.1247
326.6404	0.1317
326.851	0.1274
327.0616	0.1314
327.2722	0.1306
327.4828	0.1265
327.6933	0.1376
327.9039	0.1256
328.1144	0.1318
328.3249	0.1329
328.5354	0.1299
328.7459	0.1317
328.9564	0.1287
329.1669	0.1368
329.3773	0.1341
329.5878	0.1335
329.7982	0.1329
330.0086	0.1374
330.219	0.1351
330.4294	0.136
330.6398	0.1381
330.8502	0.137
331.0605	0.1345
331.2708	0.1308
331.4812	0.1292
331.6915	0.1362
331.9018	0.1324
332.1121	0.1391
332.3224	0.1337
332.5326	0.1286
332.7429	0.133
332.9531	0.1402
333.1633	0.1287
333.3735	0.1356
333.5837	0.1443
333.7939	0.1364
334.0041	0.1373
334.2143	0.1326
334.4244	0.1461
334.6346	0.1357
334.8447	0.1376
335.0548	0.1427
335.2649	0.1365
335.475	0.1429
335.685	0.1342
335.8951	0.1358
336.1051	0.1413
336.3152	0.1356
336.5252	0.1362
336.7352	0.1368
336.9452	0.1399
337.1552	0.1368
337.3652	0.1374
337.5751	0.1399
337.7851	0.1367
337.995	0.1403
338.2049	0.137
338.4148	0.1366
338.6247	0.1432
338.8346	0.141
339.0445	0.1436
339.2543	0.1405
339.4642	0.1371
339.674	0.1389
339.8838	0.1445
340.0936	0.1449
340.3034	0.1411
340.5132	0.1342
340.7229	0.1445
340.9327	0.1527
341.1424	0.1423
341.3522	0.1419
341.5619	0.146
341.7716	0.1494
341.9813	0.1497
342.1909	0.149
342.4006	0.1453
342.6102	0.1483
342.8199	0.1551
343.0295	0.1417
343.2391	0.1505
343.4487	0.1559
343.6583	0.1548
343.8679	0.1419
344.0774	0.1454
344.287	0.148
344.4965	0.1536
344.706	0.156
344.9155	0.1506
345.125	0.1541
345.3345	0.1651
345.544	0.1593
345.7534	0.1586
345.9629	0.1598
346.1723	0.1539
346.3817	0.1616
346.5911	0.1599
346.8005	0.1654
347.0099	0.1588
347.2193	0.1712
347.4286	0.1685
347.638	0.1678
347.8473	0.1631
348.0566	0.1629
348.2659	0.1713
348.4752	0.1675
348.6845	0.1698
348.8937	0.1659
349.103	0.1695
349.3122	0.1641
349.5214	0.1727
349.7306	0.1711
349.9398	0.1686
350.149	0.1669
350.3582	0.1651
350.5674	0.1717
350.7765	0.1726
350.9856	0.1697
351.1948	0.1771
351.4039	0.1727
351.613	0.1718
351.822	0.1799
352.0311	0.1764
352.2402	0.184
352.4492	0.1805
352.6582	0.1829
352.8672	0.1759
353.0762	0.177
353.2852	0.1789
353.4942	0.1822
353.7032	0.1792
353.9121	0.1846
354.1211	0.189
354.33	0.1781
354.5389	0.1786
354.7478	0.1704
354.9567	0.194
355.1655	0.1829
355.3744	0.18
355.5833	0.1835
355.7921	0.1907
356.0009	0.182
356.2097	0.1785
356.4185	0.1836
356.6273	0.1811
356.8361	0.1869
357.0448	0.1831
357.2536	0.1916
357.4623	0.1876
357.671	0.1905
357.8797	0.187
358.0884	0.1916
358.2971	0.1914
358.5057	0.184
358.7144	0.1934
358.923	0.1944
359.1316	0.1956
359.3402	0.1936
359.5488	0.1985
359.7574	0.2013
359.966	0.1995
360.1746	0.196
360.3831	0.2034
360.5916	0.2007
360.8002	0.2077
361.0087	0.1992
361.2172	0.2065
361.4256	0.2034
361.6341	0.206
361.8426	0.2102
362.051	0.212
362.2594	0.2055
362.4678	0.2075
362.6762	0.2099
362.8846	0.2141
363.093	0.2061
363.3014	0.2141
363.5097	0.2097
363.718	0.2177
363.9264	0.225
364.1347	0.2209
364.343	0.2187
364.5513	0.2272
364.7595	0.2272
364.9678	0.2128
365.176	0.2202
365.3842	0.2311
365.5925	0.2201
365.8007	0.2269
366.0089	0.2297
366.217	0.2237
366.4252	0.219
366.6333	0.2296
366.8415	0.2302
367.0496	0.2367
367.2577	0.2389
367.4658	0.2287
367.6739	0.2377
367.882	0.2394
368.09	0.2321
368.2981	0.2417
368.5061	0.2421
368.7141	0.2326
368.9221	0.252
369.1301	0.2458
369.3381	0.2439
369.5461	0.2435
369.754	0.2447
369.962	0.2364
370.1699	0.2438
370.3778	0.2584
370.5857	0.2434
370.7936	0.2468
371.0015	0.2475
371.2093	0.2459
371.4172	0.2456
371.625	0.251
371.8328	0.2441
372.0406	0.2601
372.2484	0.2543
372.4562	0.258
372.664	0.2584
372.8717	0.2498
373.0795	0.2576
373.2872	0.2589
373.4949	0.2606
373.7026	0.2524
373.9103	0.2585
374.118	0.2612
374.3256	0.258
374.5333	0.2619
374.7409	0.2585
374.9485	0.2556
375.1561	0.2681
375.3637	0.26
375.5713	0.2698
375.7789	0.2607
375.9864	0.2664
376.194	0.2774
376.4015	0.2678
376.609	0.2751
376.8165	0.2698
377.024	0.2763
377.2315	0.266
377.4389	0.2607
377.6464	0.2752
377.8538	0.2767
378.0612	0.2672
378.2686	0.2716
378.476	0.2861
378.6834	0.28
378.8908	0.2817
379.0981	0.2814
379.3055	0.2837
379.5128	0.2765
379.7201	0.2758
379.9274	0.2836
380.1347	0.2726
380.342	0.286
380.5492	0.2816
380.7565	0.2882
380.9637	0.2817
381.1709	0.2873
381.3781	0.2939
381.5853	0.2819
381.7925	0.29
381.9997	0.2878
382.2068	0.2933
382.4139	0.2871
382.6211	0.2984
382.8282	0.2999
383.0353	0.2942
383.2424	0.2846
383.4494	0.299
383.6565	0.2877
383.8635	0.2852
384.0706	0.3054
384.2776	0.2973
384.4846	0.2925
384.6916	0.2951
384.8986	0.2899
385.1055	0.2962
385.3125	0.2958
385.5194	0.3035
385.7263	0.2963
385.9333	0.3001
386.1402	0.2965
386.347	0.2889
386.5539	0.3007
386.7608	0.291
386.9676	0.2953
387.1744	0.3052
387.3813	0.2935
387.5881	0.2892
387.7948	0.3023
388.0016	0.3024
388.2084	0.2951
388.4151	0.3012
388.6219	0.2948
388.8286	0.2958
389.0353	0.3039
389.242	0.2946
389.4487	0.2897
389.6553	0.2792
389.862	0.2872
390.0686	0.2912
390.2753	0.288
390.4819	0.2946
390.6885	0.2876
390.8951	0.2859
391.1016	0.2874
391.3082	0.289
391.5147	0.2854
391.7213	0.2795
391.9278	0.2781
392.1343	0.2821
392.3408	0.2804
392.5473	0.2763
392.7537	0.2799
392.9602	0.2733
393.1666	0.2695
393.373	0.2732
393.5794	0.2651
393.7858	0.2685
393.9922	0.2668
394.1986	0.2714
394.4049	0.2648
394.6113	0.2654
394.8176	0.2746
395.0239	0.2611
395.2302	0.2686
395.4365	0.2776
395.6428	0.2561
395.8491	0.2581
396.0553	0.2538
396.2615	0.2632
396.4678	0.2728
396.674	0.2496
396.8802	0.2571
397.0863	0.2647
397.2925	0.2634
397.4987	0.2571
397.7048	0.2552
397.9109	0.2519
398.117	0.2566
398.3231	0.2505
398.5292	0.2455
398.7353	0.2448
398.9413	0.252
399.1474	0.2457
399.3534	0.2494
399.5594	0.2554
399.7654	0.2406
399.9714	0.2558
400.1774	0.2539
400.3833	0.2585
400.5893	0.2471
400.7952	0.2537
401.0011	0.2502
401.207	0.2523
401.4129	0.2514
401.6188	0.2491
401.8247	0.2529
402.0305	0.2484
402.2364	0.2582
402.4422	0.2501
402.648	0.2532
402.8538	0.2486
403.0596	0.2451
403.2654	0.2544
403.4711	0.2426
403.6768	0.2446
403.8826	0.252
404.0883	0.2492
404.294	0.2526
404.4997	0.2494
404.7054	0.2509
404.911	0.2462
405.1167	0.2511
405.3223	0.254
405.5279	0.2429
405.7335	0.2454
405.9391	0.2416
406.1447	0.2655
406.3502	0.2449
406.5558	0.2476
406.7613	0.2459
406.9668	0.2547
407.1724	0.2418
407.3778	0.2508
407.5833	0.2438
407.7888	0.2522
407.9942	0.2426
408.1997	0.2463
408.4051	0.2435
408.6105	0.2478
408.8159	0.2507
409.0213	0.2551
409.2267	0.2471
409.432	0.2482
409.6374	0.2483
409.8427	0.2591
410.048	0.2514
410.2533	0.2544
410.4586	0.2381
410.6639	0.2602
410.8691	0.2356
411.0744	0.2534
411.2796	0.2405
411.4848	0.2501
411.69	0.2333
411.8952	0.2467
412.1004	0.251
412.3056	0.2396
412.5107	0.2495
412.7158	0.2589
412.921	0.2462
413.1261	0.2404
413.3312	0.247
413.5362	0.2533
413.7413	0.2444
413.9464	0.2445
414.1514	0.2419
414.3564	0.2358
414.5614	0.2457
414.7664	0.2337
414.9714	0.2382
415.1764	0.2435
415.3813	0.2392
415.5863	0.26
415.7912	0.2356
415.9961	0.2438
416.201	0.2483
416.4059	0.2485
416.6108	0.2388
416.8156	0.2416
417.0205	0.2393
417.2253	0.2432
417.4301	0.2526
417.6349	0.2396
417.8397	0.2394
418.0445	0.2333
418.2492	0.2367
418.454	0.2344
418.6587	0.2483
418.8634	0.2294
419.0681	0.2442
419.2728	0.2487
419.4775	0.2422
419.6822	0.2363
419.8868	0.2423
420.0915	0.2284
420.2961	0.2301
420.5007	0.2295
420.7053	0.237
420.9099	0.2306
421.1144	0.2228
421.319	0.2315
421.5235	0.2264
421.728	0.2362
421.9325	0.2268
422.137	0.2258
422.3415	0.2192
422.546	0.2208
422.7504	0.2236
422.9549	0.2312
423.1593	0.2158
423.3637	0.2279
423.5681	0.229
423.7725	0.2126
423.9769	0.2238
424.1812	0.2193
424.3856	0.2133
424.5899	0.2154
424.7942	0.2132
424.9985	0.2148
425.2028	0.2224
425.4071	0.2065
425.6113	0.2183
425.8156	0.2094
426.0198	0.2152
426.224	0.2103
426.4282	0.2031
426.6324	0.2057
426.8366	0.2049
427.0407	0.2022
427.2449	0.1976
427.449	0.1982
427.6531	0.2088
427.8572	0.1997
428.0613	0.2141
428.2654	0.201
428.4694	0.1959
428.6735	0.1864
428.8775	0.193
429.0815	0.1903
429.2855	0.1937
429.4895	0.1852
429.6935	0.1874
429.8975	0.1826
430.1014	0.1906
430.3053	0.1902
430.5093	0.184
430.7132	0.1843
430.9171	0.1828
431.1209	0.1842
431.3248	0.178
431.5286	0.1725
431.7325	0.1882
431.9363	0.1717
432.1401	0.1675
432.3439	0.1734
432.5477	0.1661
432.7514	0.1684
432.9552	0.1729
433.1589	0.1638
433.3627	0.1656
433.5664	0.1531
433.7701	0.1626
433.9737	0.1584
434.1774	0.1515
434.3811	0.1466
434.5847	0.157
434.7883	0.158
434.9919	0.1472
435.1955	0.1556
435.3991	0.1501
435.6027	0.1414
435.8062	0.1601
436.0098	0.1354
436.2133	0.1454
436.4168	0.136
436.6203	0.1353
436.8238	0.131
437.0272	0.1346
437.2307	0.1336
437.4341	0.1314
437.6375	0.1324
437.841	0.1196
438.0443	0.1232
438.2477	0.1162
438.4511	0.1205
438.6545	0.1275
438.8578	0.1155
439.0611	0.1199
439.2644	0.1174
439.4677	0.1194
439.671	0.1036
439.8743	0.1145
440.0775	0.1063
440.2808	0.1068
440.484	0.1134
440.6872	0.1071
440.8904	0.096
441.0936	0.0998
441.2967	0.0918
441.4999	0.0971
441.703	0.0947
441.9062	0.1005
442.1093	0.1044
442.3124	0.0916
442.5155	0.0951
442.7185	0.0913
442.9216	0.093
443.1246	0.08
443.3276	0.088
443.5307	0.073
443.7337	0.0849
443.9366	0.0806
444.1396	0.0825
444.3426	0.0724
444.5455	0.0744
444.7484	0.0789
444.9513	0.0727
445.1542	0.0741
445.3571	0.066
445.56	0.0703
445.7628	0.0697
445.9657	0.0623
446.1685	0.0719
446.3713	0.0745
446.5741	0.0762
446.7769	0.0705
446.9797	0.066
447.1824	0.0638
447.3852	0.0547
447.5879	0.0534
447.7906	0.0453
447.9933	0.0517
448.196	0.0575
448.3986	0.0571
448.6013	0.05
448.8039	0.0519
449.0066	0.0606
449.2092	0.056
449.4118	0.0527
449.6143	0.0541
449.8169	0.0531
450.0195	0.0507
450.222	0.0487
450.4245	0.0512
450.627	0.041
450.8295	0.046
451.032	0.0408
451.2345	0.0405
451.4369	0.0449
451.6394	0.0481
451.8418	0.0383
452.0442	0.0376
452.2466	0.0254
452.449	0.0413
452.6513	0.0398
452.8537	0.0347
453.056	0.0388
453.2583	0.038
453.4607	0.0322
453.663	0.0308
453.8652	0.0274
454.0675	0.0374
454.2697	0.0303
454.472	0.032
454.6742	0.0386
454.8764	0.0397
455.0786	0.0274
455.2808	0.0236
455.4829	0.0262
455.6851	0.0276
455.8872	0.0186
456.0893	0.0336
456.2915	0.0199
456.4935	0.0302
456.6956	0.0236
456.8977	0.0278
457.0997	0.0404
457.3018	0.0262
457.5038	0.0337
457.7058	0.0252
457.9078	0.02
458.1098	0.0286
458.3117	0.0309
458.5137	0.0062
458.7156	0.0228
458.9175	0.0232
459.1194	0.0136
459.3213	0.0107
459.5232	0.0275
459.725	0.0243
459.9269	0.0198
460.1287	0.0138
460.3305	0.0276
460.5323	0.0204
460.7341	0.0139
460.9359	0.0053
461.1376	0.0199
461.3394	0.0146
461.5411	0.0171
461.7428	0.017
461.9445	0.0097
462.1462	0.0156
462.3479	0.0109
462.5495	0.0161
462.7512	0.02
462.9528	0.0103
463.1544	0.0172
463.356	0.0078
463.5576	0.0286
463.7592	0.0135
463.9607	0.0123
464.1623	0.0061
464.3638	0.0073
464.5653	0.0124
464.7668	0.0124
464.9683	0.015
465.1697	0.0104
465.3712	0.004
465.5726	0.0067
465.7741	0.0155
465.9755	0.016
466.1769	0.0063
466.3782	0.0109
466.5796	0.0093
466.7809	0.0172
466.9823	0.0143
467.1836	0.0046
467.3849	0.0063
467.5862	0.006
467.7875	0.0116
467.9887	0.0138
468.19	0.0048
468.3912	0.0144
468.5924	0.0061
468.7936	0.0178
468.9948	-0.0024
469.196	0.009
469.3972	0.0012
469.5983	0.0059
469.7994	0.0113
470.0006	0.0217
470.2017	0.0094
470.4027	0.0126
470.6038	0.0085
470.8049	0.0128
471.0059	0.0173
471.2069	0.0114
471.408	0.0218
471.6089	0.006
471.8099	0.0107
472.0109	0.0117
472.2119	0.0159
472.4128	0.0091
472.6137	0.0068
472.8146	0.0066
473.0155	0.0152
473.2164	0.0065
473.4173	0.0033
473.6181	-0.009
473.819	0.006
474.0198	-0.0003
474.2206	-0.0034
474.4214	0.0036
474.6222	0.0015
474.8229	-0.0002
475.0237	0.0081
475.2244	0.0043
475.4251	0.0097
475.6258	0.0071
475.8265	0.0039
476.0272	0.0018
476.2278	0.0081
476.4285	0.0007
476.6291	0.0042
476.8297	0.0083
477.0303	0.0047
477.2309	0.0018
477.4315	0.0135
477.632	0.0053
477.8326	0.0031
478.0331	0.0119
478.2336	0.001
478.4341	0.0074
478.6346	0.0101
478.8351	0.0051
479.0355	0.0133
479.236	0.0156
479.4364	0.0082
479.6368	0.005
479.8372	0.0024
480.0376	0.0043
480.2379	0.0063
480.4383	0.008
480.6386	-0.0024
480.8389	0.0003
481.0392	0.0036
481.2395	0.011
481.4398	0.0003
481.6401	0.0045
481.8403	-0.0019
482.0405	0.0059
482.2408	0.0085
482.441	0.011
482.6411	0.0065
482.8413	0.0013
483.0415	0.0102
483.2416	0.0069
483.4417	0.0065
483.6419	-0.0006
483.8419	0.0047
484.042	0.0043
484.2421	-0.0008
484.4422	0.0039
484.6422	0.0012
484.8422	0.0025
485.0422	0.0105
485.2422	0.0059
485.4422	0.0048
485.6422	0.0034
485.8421	0.0031
486.042	0.0107
486.242	0.0033
486.4419	0.006
486.6417	0.0019
486.8416	0.006
487.0415	0.002
487.2413	0.0018
487.4411	0.0053
487.641	0.0013
487.8408	0.0077
488.0405	0.0188
488.2403	-0.0049
488.4401	0.0029
488.6398	0.0098
488.8395	0.0121
489.0392	0.0054
489.2389	0.0029
489.4386	-0.0122
489.6383	0.0064
489.8379	0.0013
490.0376	0.0019
490.2372	0.0036
490.4368	-0.0024
490.6364	-0.0013
490.836	0.0073
491.0355	-0.0038
491.2351	0.0005
491.4346	0.0034
491.6341	-0.002
491.8336	-0.0002
492.0331	0.0019
492.2326	0.0099
492.432	0.0111
492.6315	0.0101
492.8309	0.0109
493.0303	0.0017
493.2297	0.0135
493.4291	0.0021
493.6284	0.0086
493.8278	-0.0052
494.0271	0.0059
494.2264	0.0015
494.4257	0.0052
494.625	0.0023
494.8243	-0.0065
495.0236	0.0076
495.2228	0.0054
495.422	0.0063
495.6213	0.0032
495.8205	0.005
496.0196	-0.0023
496.2188	0.0054
496.418	0.0024
496.6171	-0.0036
496.8162	0.0009
497.0153	-0.0032
497.2144	-0.0002
497.4135	0.0021
497.6126	0.0032
497.8116	0.004
498.0107	0.0014
498.2097	0.0066
498.4087	0.0058
498.6077	-0.0093
498.8067	0.0098
499.0056	0.0041
499.2046	0.0041
499.4035	-0.0038
499.6024	-0.0035
499.8013	0.0179
500.0002	0.0089
500.199	0.007
500.3979	0.0068
500.5967	-0.0017
500.7956	0.0124
500.9944	0.0059
501.1932	0.017
501.3919	0.0064
501.5907	0.0081
501.7895	-0.0001
501.9882	0.0002
502.1869	0.0115
502.3856	0.0038
502.5843	0.0065
502.783	-0.0057
502.9816	0.0122
503.1803	0.0049
503.3789	0.0106
503.5775	0.003
503.7761	0.0005
503.9747	0.0054
504.1732	-0.0011
504.3718	0.0111
504.5703	0.0042
504.7689	0.0022
504.9674	-0.0028
505.1658	0.0011
505.3643	0.0039
505.5628	0.011
505.7612	0.0152
505.9597	-0.0012
506.1581	0.0063
506.3565	0.0071
506.5549	0.005
506.7532	-0.0011
506.9516	0.0017
507.1499	0.0026
507.3482	0.0019
507.5465	0.0067
507.7448	0.0088
507.9431	0.0082
508.1414	-0.0003
508.3396	0.0057
508.5379	-0.0028
508.7361	-0.0006
508.9343	0.003
509.1325	0.0103
509.3306	-0.0042
509.5288	-0.0025
509.7269	0.0114
509.9251	0.0128
510.1232	0.0062
510.3213	0.0084
510.5193	0.0048
510.7174	0.0012
510.9154	0.01
511.1135	0.0071
511.3115	0.0064
511.5095	0.003
511.7075	0.0023
511.9055	0.0014
512.1034	0.0037
512.3014	0.0126
512.4993	0.0052
512.6972	0.0009
512.8951	0.0015
513.093	0.0024
513.2908	0.0198
513.4887	-0.002
513.6865	0.0037
513.8844	0.012
514.0822	0.0031
514.2799	-0.0022
514.4777	0.0061
514.6755	0.0039
514.8732	-0.0009
515.0709	0.0048
515.2687	0.0052
515.4664	0.0174
515.664	0.0036
515.8617	0.0131
516.0594	0.012
516.257	0.0024
516.4546	0.0124
516.6522	0.0046
516.8498	0.0023
517.0474	0.001
517.2449	-0.0018
517.4425	0.0079
517.64	0.003
517.8375	0.0074
518.035	0.0066
518.2325	-0.0094
518.43	-0.0036
518.6274	-0.0052
518.8249	-0.0045
519.0223	0.012
519.2197	0.0039
519.4171	-0.0017
519.6145	0.0128
519.8118	-0.0077
520.0092	0.0028
520.2065	0.0139
520.4038	-0.0011
520.6011	0.0077
520.7984	0.0088
520.9956	0.0117
521.1929	0.0106
521.3901	0.0163
521.5874	0.0156
521.7846	-0.008
521.9818	0.0084
522.1789	-0.0032
522.3761	0.0136
522.5732	0.0129
522.7704	-0.006
522.9675	-0.0088
523.1646	0.0013
523.3617	0.014
523.5587	0.0012
523.7558	-0.0011
523.9528	0.0119
524.1498	0.0063
524.3468	0.0095
524.5438	-0.0009
524.7408	0.0036
524.9378	0.0161
525.1347	0.0157
525.3316	0.0121
525.5285	0.0102
525.7254	-0.0017
525.9223	0.0158
526.1192	0.0033
526.316	0.0151
526.5129	0.0104
526.7097	0.0006
526.9065	0.0128
527.1033	0.0045
527.3	0.0059
527.4968	0.0098
527.6935	-0.0054
527.8903	0.0018
528.087	0.0025
528.2837	0.0125
528.4804	-0.0001
528.677	0.0092
528.8737	0.0031
529.0703	0.0069
529.2669	0.0063
529.4635	-0.0046
529.6601	-0.0018
529.8567	0.0016
530.0532	0.0072
530.2498	0.0045
530.4463	-0.0018
530.6428	0.005
530.8393	0.0068
531.0358	-0.0051
531.2322	-0.002
531.4287	-0.004
531.6251	-0.0034
531.8215	-0.002
532.0179	-0.0031
532.2143	0.0029
532.4107	0.0139
532.607	0.0013
532.8034	0.004
532.9997	-0.003
533.196	-0.0021
533.3923	0.0122
533.5886	0.0055
533.7848	0.0058
533.9811	0
534.1773	0.0048
534.3735	0.0037
534.5697	0.0017
534.7659	0.005
534.9621	0.0068
535.1582	0.0058
535.3544	0.0118
535.5505	-0.005
535.7466	0.0096
535.9427	0.0048
536.1387	-0.0064
536.3348	0.0052
536.5308	-0.0018
536.7269	0.0013
536.9229	-0.0013
537.1189	0.0091
537.3148	0.0047
537.5108	0.0011
537.7068	0.0084
537.9027	-0.0119
538.0986	0.0051
538.2945	0.0045
538.4904	-0.0095
538.6863	0.0079
538.8821	0.0103
539.078	0.0043
539.2738	0.0061
539.4696	-0.0023
539.6654	0.0091
539.8611	0.0025
540.0569	0
540.2526	0.0147
540.4484	-0.0001
540.6441	0.0078
540.8398	0.0106
541.0355	-0.0043
541.2311	-0.0007
541.4268	0.009
541.6224	0.0117
541.818	0.0239
542.0136	0.0047
542.2092	0.0102
542.4048	0.008
542.6003	-0.0005
542.7959	0.0103
542.9914	0.0113
543.1869	0.0111
543.3824	-0.0023
543.5779	0.0074
543.7734	0.0109
543.9688	0.0098
544.1642	-0.0006
544.3596	0.0013
544.555	-0.0004
544.7504	0.0098
544.9458	0.0103
545.1411	0.0017
545.3365	0.0064
545.5318	0.0067
545.7271	0.011
545.9224	-0.0078
546.1177	0.003
546.3129	0.006
546.5081	-0.0012
546.7034	0.0061
546.8986	0.0055
547.0938	0.0012
547.289	0.0029
547.4841	0.0115
547.6793	0.0036
547.8744	0.0088
548.0695	-0.006
548.2646	0.0082
548.4597	-0.0013
548.6548	0.0132
548.8498	0.0038
549.0448	0.0071
549.2399	0.0093
549.4349	0.0127
549.6298	0.0109
549.8248	0.0002
550.0198	-0.0001
550.2147	0.0039
550.4096	-0.0002
550.6045	0.01
550.7994	0.0118
550.9943	0.0009
551.1892	-0.0108
551.384	0.0094
551.5788	0.0017
551.7737	0.0073
551.9685	0.0044
552.1632	-0.0023
552.358	0.0005
552.5528	0.0092
552.7475	0.0026
552.9422	0.0119
553.1369	0.012
553.3316	-0.0014
553.5263	0.0069
553.7209	0.009
553.9156	0.0008
554.1102	0.0043
554.3048	-0.0066
554.4994	0.0005
554.694	0.0185
554.8885	0.006
555.0831	0.0052
555.2776	0.0023
555.4721	0.0088
555.6666	0.0046
555.8611	-0.0024
556.0555	0.0057
556.25	0.0053
556.4444	-0.0006
556.6388	0.0045
556.8332	0.0088
557.0276	0.0077
557.222	-0.0046
557.4163	0.0072
557.6107	-0.0007
557.805	0.0026
557.9993	-0.0018
558.1936	-0.0142
558.3879	0.0034
558.5821	0.0036
558.7764	0.002
558.9706	-0.0092
559.1648	0.0096
559.359	0.0004
559.5532	-0.0068
559.7473	-0.0013
559.9415	-0.0055
560.1356	0.0095
560.3297	0.003
560.5238	0.0014
560.7179	-0.0021
560.9119	0.0055
561.106	-0.0008
561.3	0.0117
561.494	-0.0041
561.688	0.0017
561.882	0.0039
562.076	-0.0032
562.2699	0.0075
562.4639	0.0126
562.6578	0.0104
562.8517	0.0109
563.0456	0.0093
563.2395	0.0117
563.4333	0.005
563.6272	0.0039
563.821	0.0075
564.0148	0.0032
564.2086	0.0033
564.4024	0.014
564.5961	0.0075
564.7899	0.0214
564.9836	0.0051
565.1773	0.0086
565.371	0.0046
565.5647	0.0038
565.7584	0.0223
565.952	0.002
566.1456	0.0109
566.3393	-0.0019
566.5329	0.0007
566.7264	0.0036
566.92	0.0043
567.1136	-0.0011
567.3071	-0.0108
567.5006	0.0102
567.6941	0.0068
567.8876	0.0011
568.0811	0.0179
568.2745	0.0015
568.468	0.0082
568.6614	0.0075
568.8548	0.0045
569.0482	0.0062
569.2416	0.0075
569.4349	0.0044
569.6283	-0
569.8216	0.0091
570.0149	0.004
570.2082	0.0144
570.4015	0.0066
570.5947	0.0042
570.788	0.0084
570.9812	0.0018
571.1744	0.0031
571.3676	0.0055
571.5608	0.0063
571.754	0.0134
571.9471	0.0074
572.1402	0.0066
572.3333	0.0082
572.5264	0.0075
572.7195	0.0023
572.9126	0.0027
573.1057	0.0043
573.2987	-0.002
573.4917	-0.0008
573.6847	0.0043
573.8777	0.0093
574.0707	0.0036
574.2636	0.0056
574.4566	0.0026
574.6495	-0.0002
574.8424	0.007
575.0353	0.0064
575.2281	0.0073
575.421	0.0046
575.6138	0.0015
575.8067	0.0079
575.9995	0.0039
576.1923	0.0106
576.385	0.0085
576.5778	0.0063
576.7706	0.0041
576.9633	0.0054
577.156	-0.0011
577.3487	0.003
577.5414	0.0026
577.734	0.0051
577.9267	0.0055
578.1193	0.0066
578.3119	0.0019
578.5045	0.0046
578.6971	-0.0002
578.8897	0.0029
579.0822	0.0074
579.2747	0.0027
579.4673	0.0029
579.6598	0.0067
579.8522	0.006
580.0447	0.0068
580.2372	0.0047
580.4296	0.0093
580.622	0.0029
580.8144	0.0048
581.0068	0.0054
581.1992	0.0031
581.3915	-0
581.5839	0.0033
581.7762	0.0029
581.9685	0.0026
582.1608	0.0052
582.353	0.0024
582.5453	0.0042
582.7375	0.0071
582.9298	0.0009
583.122	0.0036
583.3142	0.0046
583.5063	0.0067
583.6985	-0
583.8906	0.0004
584.0827	0.0065
584.2749	0.0015
584.4669	0.0036
584.659	0.0084
584.8511	0.0105
585.0431	0.0046
585.2352	0.0049
585.4272	0.0045
585.6192	0.007
585.8111	0.0019
586.0031	0.002
586.195	0.0013
586.387	0.004
586.5789	0.0069
586.7708	0.0063
586.9627	0.0064
587.1545	0.0039
587.3464	0.0008
587.5382	0.0024
587.73	0.0102
587.9218	-0.0003
588.1136	-0.0015
588.3053	0.0025
588.4971	0.0024
588.6888	0.0026
588.8805	0.0012
589.0722	0.0142
589.2639	0.0075
589.4556	0.0036
589.6472	0.0059
589.8389	0.0075
590.0305	0.0017
590.2221	0.0073
590.4137	0.0025
590.6052	0.0056
590.7968	0.0012
590.9883	0.0068
591.1798	-0.0021
591.3713	0.0038
591.5628	0.0026
591.7543	0.0021
591.9458	0.0024
592.1372	0.0048
592.3286	0.006
592.52	0.0046
592.7114	0.008
592.9028	0.0145
593.0941	0.0026
593.2855	0.0046
593.4768	0.0039
593.6681	0.0112
593.8594	0.0054
594.0506	0.0092
594.2419	-0.0011
594.4331	0.0022
594.6244	-0.0026
594.8156	0.0018
595.0067	-0.0016
595.1979	0.0005
595.3891	0.0023
595.5802	0.0051
595.7713	0.0014
595.9624	0.0039
596.1535	0.0045
596.3446	0.0023
596.5357	0.0056
596.7267	0.0001
596.9177	0.0033
597.1087	0.0002
597.2997	0.008
597.4907	0.0009
597.6817	0.0095
597.8726	0.0084
598.0635	0.0012
598.2544	0.0046
598.4453	0.0073
598.6362	0.0067
598.827	0.0059
599.0179	0.0037
599.2087	0.007
599.3995	0.0066
599.5903	0.0064
599.7811	0.0098
599.9718	0.0009
600.1626	-0.0021
600.3533	0.0006
600.544	0.0009
600.7347	0.0005
600.9254	0.0069
601.116	0.0014
601.3067	0.0017
601.4973	0.0083
601.6879	0.0021
601.8785	0.0075
602.0691	-0.0059
602.2596	0.0066
602.4502	0.0084
602.6407	0.005
602.8312	0.0083
603.0217	0.0049
603.2122	0.0041
603.4027	0.0029
603.5931	0.0068
603.7835	0.0052
603.9739	0.0024
604.1643	0.0117
604.3547	0.0136
604.5451	0.0102
604.7354	0.0004
604.9257	0.0024
605.116	0.0007
605.3063	0.0106
605.4966	0.0029
605.6869	0.0088
605.8771	0.0054
606.0673	0.0082
606.2575	0.0006
606.4477	0.0084
606.6379	0.0003
606.8281	0.0001
607.0182	0.0015
607.2083	0.004
607.3985	0.0052
607.5885	0.0012
607.7786	0.0051
607.9687	0.0094
608.1587	0.008
608.3488	0.0074
608.5388	-0.0009
608.7288	0.003
608.9187	-0.0018
609.1087	0.0041
609.2986	0.0077
609.4886	-0.004
609.6785	0.0066
609.8684	-0.0077
610.0582	0.0003
610.2481	-0.0033
610.4379	0.0058
610.6278	0.0069
610.8176	0.0011
611.0074	0.0066
611.1971	0.0005
611.3869	0.01
611.5766	-0.0074
611.7664	0.0073
611.9561	0.0002
612.1458	0.0027
612.3354	0.0051
612.5251	0.0022
612.7147	0.0077
612.9044	0.0043
613.094	0.0059
613.2836	0.001
613.4731	0.0037
613.6627	0.0036
613.8522	0.0022
614.0417	0.0022
614.2313	-0.0042
614.4207	0.0087
614.6102	0.0062
614.7997	0.0053
614.9891	0.0064
615.1785	-0.0026
615.3679	0.0011
615.5573	0.001
615.7467	-0.0063
615.9361	0.0023
616.1254	0.0085
616.3147	0.0067
616.504	0.0026
616.6933	0.0045
616.8826	-0.0035
617.0718	0.0111
617.2611	-0.003
617.4503	0.0022
617.6395	0.0149
617.8287	0.0081
618.0179	0.0037
618.207	0.0017
618.3961	-0.0004
618.5853	-0.0055
618.7744	0.002
618.9634	0.011
619.1525	0.0069
619.3416	0.0001
619.5306	0.0081
619.7196	0.0038
619.9086	0.0052
620.0976	0.0034
620.2866	0.0065
620.4755	-0.0033
620.6645	0.005
620.8534	0.0106
621.0423	0.0009
621.2312	-0.0035
621.42	0.0057
621.6089	0.005
621.7977	0.0141
621.9865	-0.0083
622.1753	-0.0029
622.3641	-0.0019
622.5529	-0.0008
622.7416	0.0019
622.9303	-0.0003
623.1191	0.0018
623.3078	0.0003
623.4964	0.001
623.6851	0.0083
623.8737	0.0007
624.0624	-0.0088
624.251	0.0011
624.4396	-0.0008
624.6282	0.0092
624.8167	-0.0036
625.0053	0.0131
625.1938	-0.0001
625.3823	0.0028
625.5708	-0.0074
625.7593	0.0039
625.9477	0.0086
626.1362	-0.0077
626.3246	0.0071
626.513	0
626.7014	0.013
626.8898	0.0062
627.0781	0.0035
627.2665	0.003
627.4548	-0.0188
627.6431	0.005
627.8314	0.0034
628.0197	0.0035
628.2079	-0.0012
628.3962	0.0025
628.5844	0.0047
628.7726	0.0027
628.9608	-0.0003
629.1489	0.0078
629.3371	-0.0103
629.5252	0.004
629.7134	-0.0107
629.9015	0.0147
630.0895	-0.0049
630.2776	0.0104
630.4657	0.0074
630.6537	0.0172
630.8417	-0.0019
631.0297	-0.0014
631.2177	0.0044
631.4057	0.006
631.5936	0.0029
631.7815	-0.0016
631.9695	0.0108
632.1574	0.005
632.3452	0.0042
632.5331	0.003
632.7209	0.0004
632.9088	-0.0163
633.0966	0.0061
633.2844	0.0063
633.4722	0.0157
633.6599	0.0181
633.8477	-0.0077
634.0354	0.0135
634.2231	-0.012
634.4108	0.0015
634.5985	0.0069
634.7861	-0.007
634.9738	-0.015
635.1614	-0.0022
635.349	-0.0113
635.5366	0.0067
635.7242	0.0029
635.9117	-0.0066
636.0993	0.0113
636.2868	-0.0036
636.4743	0.0058
636.6618	-0.0168
636.8492	0.0105
637.0367	-0.0093
637.2241	-0.0053
637.4115	0.0168
637.5989	0.0022
637.7863	0.0315
637.9737	-0.0008
638.161	0.0079
638.3484	-0.0149
638.5357	-0.0014
638.723	0.0113
638.9103	-0.0164
639.0975	-0.0019
639.2848	0.012
639.472	0.0141
639.6592	-0.0126
639.8464	0.002
640.0336	-0.0048
640.2208	-0.0042
640.4079	-0.0042
640.595	-0.006
640.7821	0.0178
640.9692	0.0034
641.1563	-0.012
641.3434	0.0073
641.5304	0.0118
641.7174	0.0001
641.9044	-0.0076
642.0914	0.0104
642.2784	0.0018
642.4653	-0.0044
642.6523	0.0034
642.8392	-0.001
643.0261	-0.0001
643.213	-0.0101
643.3999	0.0145
643.5867	0.0111
643.7735	0.0047
643.9604	0.0151
644.1472	-0.0053
644.3339	0.0146
644.5207	-0.0011
644.7075	-0.0063
644.8942	0.0001
645.0809	-0.019
645.2676	-0.0115
645.4543	-0.0186
645.6409	0.003
645.8276	-0.009
646.0142	0.016
646.2008	0.0004
646.3874	0.0091
646.574	-0.0013
646.7605	-0.0091
646.9471	-0.0186
647.1336	-0.0061
647.3201	0.0093
647.5066	0.0101
647.6931	-0.0058
647.8795	-0.0012
648.0659	0.0021
648.2524	0.0084
648.4388	0.0035
648.6252	0.0108
648.8115	-0.0059
648.9979	0.006
649.1842	0.003
649.3705	0.0273
649.5568	-0.015
649.7431	-0.0089
649.9294	0.0008
650.1156	-0.0062
650.3018	-0.0151
650.488	0.0129
650.6742	0.0186
650.8604	0.0175
651.0466	-0.01
651.2327	-0.0041
651.4188	0.0012
651.6049	0.0144
651.791	0.0026
651.9771	-0.0034
652.1632	0.0107
652.3492	-0.0081
652.5352	0.0223
652.7212	0.0042
652.9072	-0.0005
653.0932	0.0084
653.2791	-0.0001
653.465	0.0066
653.651	0.0005
653.8369	0.0153
654.0227	-0.0162
654.2086	0.0109
654.3944	0.007
654.5803	-0.0054
654.7661	-0.0032
654.9519	-0.0012
655.1377	-0
655.3234	-0
655.5092	-0
655.6949	-0
655.8806	-0
656.0663	-0
656.2519	-0
656.4376	-0
656.6232	-0
656.8088	-0
656.9945	-0
657.18	-0
657.3656	-0
657.5511	-0
657.7367	-0
657.9222	-0
658.1077	-0
658.2932	-0
658.4786	-0
658.6641	-0
658.8495	-0
659.0349	-0
659.2203	-0
659.4057	-0
659.591	0.1576
659.7764	0.0393
659.9617	0.0038
660.147	-0.0012
660.3323	-0.0015
660.5176	-0.0027
660.7028	0.0051
660.888	0.0044
661.0733	0.0103
661.2585	-0.0182
661.4436	-0.0016
661.6288	0.0152
661.8139	-0.0032
661.9991	-0.015
662.1842	-0.0015
662.3693	0.0072
662.5544	0.0083
662.7394	0.0009
662.9245	0.0084
663.1095	-0.0276
663.2945	-0.0184
663.4795	-0.0029
663.6644	0.0095
663.8494	0.0198
664.0343	0.0076
664.2193	-0.0149
664.4042	0.0048
664.589	-0.0011
664.7739	0.007
664.9587	-0.0077
665.1436	-0.0086
665.3284	-0.0001
665.5132	-0.0061
665.698	0.0015
665.8827	0.008
666.0675	-0.0208
666.2522	0.0227
666.4369	0.0027
666.6216	-0.0171
666.8063	-0.0112
666.9909	0.0059
667.1756	-0.0246
667.3602	-0.006
667.5448	-0.0139
667.7294	0.0167
667.9139	-0.028
668.0985	0.0234
668.283	0.0098
668.4675	0.0277
668.652	0.0083
668.8365	0.0031
669.0209	-0.0072
669.2054	0.0059
669.3898	0.0071
669.5742	0.0121
669.7586	0.0105
669.943	0.0007
670.1273	0.0039
670.3117	0.0141
670.496	0.0148
670.6803	-0.0135
670.8646	-0.0281
671.0488	0.0214
671.2331	-0.0244
671.4173	0.0154
671.6015	0.0066
671.7857	0.0026
671.9699	0.007
672.1541	-0.0166
672.3382	0.0139
672.5223	0.0156
672.7064	0.0012
672.8905	-0.0113
673.0746	-0.0081
673.2587	0.0174
673.4427	0.0066
673.6267	0.005
673.8107	0.0139
673.9947	0.0132
674.1787	-0.0044
674.3626	0.0026
674.5465	0.0033
674.7304	-0.0037
674.9143	0.004
675.0982	-0.015
675.2821	-0.0067
675.4659	-0.0153
675.6497	0.0239
675.8335	0.0092
676.0173	-0.0182
676.2011	0.0113
676.3849	0.0065
676.5686	0.009
676.7523	0.0054
676.936	-0.0008
677.1197	0.004
677.3034	0.0235
677.487	0.0041
677.6706	0.0145
677.8542	0.0042
678.0378	0.002
678.2214	0.0175
678.405	0.0267
678.5885	0.0005
678.772	-0.0068
678.9555	-0.0026
679.139	0.0046
679.3225	-0.0054
679.5059	-0.0056
679.6894	0.0121
679.8728	0.0136
680.0562	0.015
680.2395	-0.0071
680.4229	-0.0158
680.6062	-0.0048
680.7896	-0.0091
680.9729	0.031
681.1562	-0.0082
681.3394	-0.0161
681.5227	-0.0029
681.7059	0.0038
681.8891	0.0084
682.0723	-0.004
682.2555	0.0017
682.4387	-0.0008
682.6218	-0.0145
682.805	0.0062
682.9881	0.0199
683.1712	0.0099
683.3542	0.0303
683.5373	-0.0105
683.7203	0.0177
683.9034	-0.0032
684.0864	-0.0077
684.2694	-0.0101
684.4523	0.0118
684.6353	0.0062
684.8182	-0.0196
685.0011	0.0024
685.184	0.0001
685.3669	0.0266
685.5498	-0.0088
685.7326	0.0005
685.9154	0.0023
686.0982	0.0154
686.281	-0.004
686.4638	0.0157
686.6465	-0.0105
686.8293	-0.0229
687.012	-0.0019
687.1947	-0.0033
687.3774	-0.0012
687.56	-0.004
687.7427	0.0046
687.9253	-0.0154
688.1079	-0.0031
688.2905	0.009
688.4731	0.0102
688.6556	-0.0148
688.8382	-0.0181
689.0207	0.0006
689.2032	0.0041
689.3857	-0.0007
689.5681	-0.0078
689.7506	0.0189
689.933	-0.0186
690.1154	0.0166
690.2978	-0.021
690.4802	0.0042
690.6626	0.003
690.8449	0.0122
691.0272	0.006
691.2095	-0.0223
691.3918	0.0111
691.5741	0.0092
691.7563	0.0207
691.9386	0.0145
692.1208	0.0003
692.303	-0.0032
692.4852	0.0146
692.6673	-0.005
692.8495	-0.0207
693.0316	-0.0084
693.2137	0.0244
693.3958	0.0212
693.5778	-0.0143
693.7599	-0.0096
693.9419	-0.0142
694.1239	0.0088
694.3059	0.0279
694.4879	-0.0042
694.6699	-0.0168
694.8518	0.0093
695.0337	0.0167
695.2157	0.0249
695.3975	-0.0192
695.5794	-0.0039
695.7613	-0.0123
695.9431	-0.0022
696.1249	0.0239
696.3067	-0.0097
696.4885	0.0019
696.6703	0.0098
696.852	-0.002
697.0337	-0.0027
697.2154	0.0109
697.3971	0.0016
697.5788	0.0098
697.7605	-0.0215
697.9421	0.0105
698.1237	0.0142
698.3053	-0.0054
698.4869	-0.0002
698.6685	-0.0285
698.85	0.0219
699.0315	0.0086
699.213	-0.008
699.3945	-0.0161
699.576	0.0015
699.7575	0.0165
699.9389	0.0053
700.1203	-0.007
700.3017	0.0061
700.4831	0.0089
700.6645	0.0277
700.8458	-0.0146
701.0271	0.0385
701.2084	-0.001
701.3897	-0.001
701.571	-0.023
701.7523	0.0232
701.9335	0.0039
702.1147	0.0236
702.2959	-0.0219
702.4771	0.0031
702.6583	0.0065
702.8394	-0.0358
703.0205	0.0064
703.2016	-0.0016
703.3827	-0.0176
703.5638	-0.0021
703.7449	0.0132
703.9259	-0.0123
704.1069	-0.0416
704.2879	-0.0234
704.4689	0.0024
704.6499	-0.0088
704.8308	-0.0035
705.0117	-0.0226
705.1927	0.0127
705.3735	0.008
705.5544	-0.0217
705.7353	0.0065
705.9161	-0.0281
706.0969	0.0071
706.2777	0.007
706.4585	-0.0049
706.6393	0.0089
706.82	0.0098
707.0007	0.0045
707.1815	-0.0124
707.3621	0.0225
707.5428	0.0148
707.7235	0.0001
707.9041	0.0061
708.0847	-0.0071
708.2653	0.0158
708.4459	-0.0142
708.6265	-0.0278
708.807	0.011
708.9875	0.0016
709.168	-0.0266
709.3485	0.0102
709.529	0.0091
709.7095	-0.0131
709.8899	-0.0156
710.0703	-0.0057
710.2507	0.0032
710.4311	-0.0192
710.6115	0.0249
710.7918	0.0011
710.9721	0.0022
711.1524	-0.013
711.3327	-0.0228
711.513	0.0046
711.6932	-0.0002
711.8735	0.0176
712.0537	-0.0139
712.2339	-0.0078
712.4141	0.0088
712.5942	-0.0277
712.7744	0.0153
712.9545	-0.0018
713.1346	0.0224
713.3147	-0.0007
713.4947	-0.0064
713.6748	0.0065
713.8548	-0.0122
714.0348	0.0128
714.2148	0.0057
714.3948	-0.0039
714.5748	0.0083
714.7547	0.0227
714.9346	0.0031
715.1145	0.0038
715.2944	-0.0313
715.4743	0.0024
715.6541	-0.0256
715.834	0.0215
716.0138	0.0162
716.1936	-0.0236
716.3733	-0.0082
716.5531	-0.013
716.7328	0.0013
716.9126	0.0197
717.0923	-0.0224
717.2719	0.0034
717.4516	0.0053
717.6312	-0.0169
717.8109	0.0247
717.9905	0.015
718.1701	-0.0068
718.3496	0.0081
718.5292	-0.0051
718.7087	-0.0199
718.8882	0.0001
719.0677	-0.0093
719.2472	-0.0017
719.4267	-0.0043
719.6061	-0.0407
719.7856	-0.0018
719.965	-0.0007
720.1443	-0.0049
720.3237	-0.0153
720.5031	0.0098
720.6824	-0.01
720.8617	-0.0153
721.041	0.0119
721.2203	-0.0102
721.3995	-0.0059
721.5788	-0.0339
721.758	-0.0276
721.9372	0.0034
722.1164	-0.0344
722.2956	0.0163
722.4747	-0.0157
722.6538	-0.009
722.8329	0.0173
723.012	0.0049
723.1911	-0.0061
723.3702	0.0135
723.5492	-0.0146
723.7282	-0.0171
723.9072	0.0101
724.0862	0.0002
724.2652	0.0106
724.4441	-0.0047
724.623	-0.0243
724.8019	0.018
724.9808	0.0095
725.1597	-0.0099
725.3385	0.0018
725.5174	0.0063
725.6962	0.0008
725.875	-0.0113
726.0538	-0.0016
726.2325	0.0463
726.4112	-0.0203
726.59	-0.0231
726.7687	-0.0192
726.9474	0.0179
727.126	0.0144
727.3047	-0.0026
727.4833	0.0285
727.6619	0.0048
727.8405	-0.0156
728.0191	0.0121
728.1976	-0.0131
728.3762	0.0081
728.5547	0.0045
728.7332	0.0177
728.9116	-0.0046
729.0901	-0.0117
729.2686	-0.0052
729.447	0.004
729.6254	-0.0021
729.8038	0.0074
729.9821	-0.0135
730.1605	0.0121
730.3388	-0.0173
730.5171	0.0041
730.6954	-0.0061
730.8737	0.0156
731.0519	-0.0089
731.2302	0.0001
731.4084	-0.0202
731.5866	-0.0127
731.7648	0.0132
731.9429	0.0131
732.1211	-0.024
732.2992	-0.0169
732.4773	0.0033
732.6554	-0.0152
732.8335	0.0094
733.0115	-0.0002
733.1896	-0.0047
733.3676	0.0195
733.5456	-0.0004
733.7235	-0.0046
733.9015	0.0016
734.0794	-0.0038
734.2574	-0.0228
734.4353	0.0176
734.6131	-0.0182
734.791	-0.0236
734.9689	-0.0019
735.1467	-0.0032
735.3245	0.0159
735.5023	0.0078
735.68	-0.0026
735.8578	0.0093
736.0355	0.0001
736.2132	0.006
736.3909	-0.0078
736.5686	-0.0042
736.7463	-0.0153
736.9239	-0.0013
737.1015	-0.0098
737.2791	0.003
737.4567	0.0123
737.6343	-0.0041
737.8118	-0.0065
737.9894	0.013
738.1669	-0.0078
738.3444	0.0073
738.5218	-0.0111
738.6993	0.0085
738.8767	-0.01
739.0541	0.0036
739.2315	-0.0015
739.4089	0.008
739.5863	-0.0127
739.7636	-0.0016
739.9409	-0.0263
740.1182	-0.0138
740.2955	0.0006
740.4728	-0.0214
740.65	-0.0326
740.8272	-0.0237
741.0044	-0.0387
741.1816	0.0249
741.3588	-0.043
741.5359	-0.0265
741.7131	0.0141
741.8902	-0.0068
742.0673	-0.0043
742.2444	0.042
742.4214	0.0203
742.5985	-0.0222
742.7755	0.0058
742.9525	-0.034
743.1295	-0.0276
743.3064	-0.0017
743.4834	-0.0115
743.6603	0.0409
743.8372	-0.0598
744.0141	0.0088
744.191	0.0101
744.3678	-0.0305
744.5446	-0.0144
744.7215	-0.0146
744.8982	0.0137
745.075	0.0778
745.2518	0.0052
745.4285	0.0199
745.6052	-0.0311
745.7819	0.0077
745.9586	0.0052
746.1353	-0.0163
746.3119	0.0021
746.4885	0.01
746.6651	-0.0028
746.8417	-0.0343
747.0183	0.0074
747.1948	-0.0168
747.3714	0.0007
747.5479	0.0053
747.7244	-0.0059
747.9008	-0.014
748.0773	0.0142
748.2537	0.0069
748.4301	0.0115
748.6065	-0.0114
748.7829	-0.0347
748.9593	-0.0141
749.1356	-0.0026
749.3119	0.0114
749.4882	0.0228
749.6645	0.0093
749.8408	0.0126
750.017	0.0163
750.1933	-0.0168
750.3695	0.0157
750.5457	0.0018
750.7218	-0.003
750.898	-0.0281
751.0741	0.0021
751.2502	0.0004
751.4263	-0.0024
751.6024	0.0053
751.7784	0.0058
751.9545	-0.0082
752.1305	-0.0263
752.3065	-0.0006
752.4825	-0.0058
752.6584	-0.0006
752.8344	-0.015
753.0103	-0.0301
753.1862	-0.0083
753.3621	-0.0064
753.5379	-0.0035
753.7138	-0.0076
753.8896	0.0008
754.0654	0.0083
754.2412	0.0218
754.417	0.0124
754.5927	-0.0126
754.7685	0.0133
754.9442	-0.0124
755.1199	0.0173
755.2956	0.0073
755.4712	-0.0084
755.6469	0.0036
755.8225	-0.0076
755.9981	-0.0103
756.1736	-0.0045
756.3492	0.0077
756.5248	0.0099
756.7003	-0.0165
756.8758	0.0094
757.0513	-0.0083
757.2267	-0.0138
757.4022	-0.0157
757.5776	0.0063
757.753	0.0085
757.9284	0.0148
758.1038	-0.0062
758.2791	0.0105
758.4545	-0.0275
758.6298	-0.0107
758.8051	0.0161
758.9803	-0.0133
759.1556	0.0019
759.3308	0.0001
759.506	-0.008
759.6812	-0.0111
759.8564	-0.0026
760.0316	-0.0036
760.2067	0.0189
760.3819	-0.0081
760.557	-0.0154
760.732	-0.0064
760.9071	-0.0128
761.0821	-0.0238
761.2572	0.0054
761.4322	0.0115
761.6072	-0.0043
761.7821	-0.0373
761.9571	0.0218
762.132	-0.0085
762.3069	-0.0041
762.4818	0.0013
762.6567	-0.011
762.8316	0.0033
763.0064	0.0116
763.1812	-0.0089
763.356	-0.0044
763.5308	0.0136
763.7055	0.0033
763.8803	0.008
764.055	-0.0188
764.2297	-0.0158
764.4044	-0.0215
764.579	0.0015
764.7537	0.0062
764.9283	-0.0034
765.1029	-0.0112
765.2775	0.0157
765.4521	0.0089
765.6266	-0.0116
765.8011	0.0111
765.9756	0.0034
766.1501	0.004
766.3246	-0.0021
766.4991	-0.0098
766.6735	0.0305
766.8479	-0.0051
767.0223	0.0102
767.1967	0.0193
767.371	0.0317
767.5454	0.0054
767.7197	0.0197
767.894	-0.0122
768.0683	0.0185
768.2425	-0.0051
768.4168	-0.0223
768.591	-0.0075
768.7652	-0.036
768.9394	-0.0322
769.1135	-0.0316
769.2877	-0.0174
769.4618	0.0109
769.6359	0.001
769.81	0.0347
769.984	-0.0168
770.1581	0.0162
770.3321	0.0145
770.5061	0.0088
770.6801	-0.0078
770.8541	0.0149
771.028	0.018
771.202	0.0087
771.3759	0.0135
771.5498	-0.0146
771.7236	-0.022
771.8975	0.016
772.0713	0.0029
772.2451	-0.0184
772.4189	-0.0193
772.5927	-0.0429
772.7665	-0.0193
772.9402	0.0168
773.1139	0.0148
773.2876	-0.009
773.4613	0.0065
773.635	0.0103
773.8086	0.0192
773.9822	-0.0122
774.1558	0.0233
774.3294	-0.0344
774.503	-0.0004
774.6765	0.0099
774.8501	-0.0243
775.0236	0.0256
775.1971	-0.0125
775.3705	-0.0319
775.544	-0.0617
775.7174	-0.0424
775.8908	-0.0108
776.0642	-0.0102
776.2376	-0.0079
776.4109	-0.0366
776.5843	-0.0285
776.7576	0.0274
776.9309	0.0564
777.1041	-0.037
777.2774	-0.0135
777.4506	-0.0342
777.6238	-0.0326
777.797	0.0663
777.9702	-0.003
778.1434	0.0317
778.3165	-0.0196
778.4896	-0.0542
778.6627	-0.0066
778.8358	-0.0401
779.0089	-0.0197
779.1819	0.0073
779.3549	0.0037
779.5279	-0.0365
779.7009	0.0191
779.8739	0.0294
780.0468	0.019
780.2197	0.0131
780.3926	-0.0239
780.5655	0.0142
780.7384	-0.032
780.9112	0.0121
781.0841	0.011
781.2569	-0.0226
781.4297	0.002
781.6024	-0.0003
781.7752	0.0117
781.9479	0.0135
782.1206	-0.0328
782.2933	0.0059
782.466	0.0249
782.6386	-0.0459
782.8113	-0.0207
782.9839	0.0176
783.1565	0.0024
783.329	-0.0212
783.5016	0.0207
783.6741	0.0046
783.8466	0.0109
784.0191	0.0093
784.1916	-0.0144
784.3641	-0.0365
784.5365	-0.0241
784.7089	-0.0096
784.8813	0.0522
785.0537	-0.0052
785.2261	0.0018
785.3984	0.0108
785.5707	-0.0004
785.743	0.0263
785.9153	-0.0479
786.0876	-0.0341
786.2598	-0.0078
786.432	0.0086
786.6042	0.0241
786.7764	-0.04
786.9486	-0.0317
787.1207	0.0103
787.2928	0.0165
787.4649	0.0003
787.637	-0.0199
787.8091	-0.0038
787.9811	-0.0014
788.1532	0.0214
788.3252	-0.0371
788.4972	-0.002
788.6691	-0.0158
788.8411	-0.0277
789.013	-0.0029
789.1849	0.0404
789.3568	-0.0059
789.5287	-0.0048
789.7005	-0.0117
789.8723	-0.0135
790.0442	-0.0359
790.2159	-0.0548
790.3877	0.0167
790.5595	0.0228
790.7312	-0.0191
790.9029	-0.0107
791.0746	-0.0029
791.2463	-0.0572
791.4179	-0.055
791.5896	-0.0045
791.7612	0.0167
791.9328	-0.0467
792.1044	0.0179
792.2759	-0.0724
792.4474	-0.0189
792.619	-0.0549
792.7905	-0.0152
792.9619	0.0228
793.1334	0.0322
793.3048	0.074
793.4762	0.0106
793.6476	-0.049
793.819	0.0016
793.9904	-0.0419
794.1617	-0.0192
794.333	-0.0112
794.5043	-0.0055
794.6756	0.0203
794.8469	-0.0194
795.0181	0.0003
795.1893	0.0103
795.3605	0.0183
795.5317	-0.0153
795.7029	0.0063
795.874	-0.0259
796.0452	0.0398
796.2163	0.0659
796.3873	0.0142
796.5584	-0.0579
796.7294	-0.0097
796.9005	0.0373
797.0715	0.02
797.2425	0.0409
797.4134	0.0417
797.5844	0.0261
797.7553	-0.0563
797.9262	0.0232
798.0971	0.0522
798.2679	-0.0067
798.4388	0.0369
798.6096	0.0406
798.7804	-0.0197
798.9512	0.0307
799.122	-0.0232
799.2927	0.0473
799.4635	-0.0337
799.6342	-0.0389
799.8049	0.0314
799.9755	-0.0246
800.1462	-0.0259
800.3168	0.0319
800.4874	-0.1294
800.658	0.0212
800.8286	-0.0912
800.9991	-0.0238
801.1696	-0.0008
801.3402	-0.1071
801.5106	-0.0451
801.6811	0.0152
801.8516	0.0305
802.022	-0.0607
802.1924	-0.063
802.3628	0.0292
802.5332	0.009
802.7035	0.0218
802.8739	-0.054
803.0442	-0.0537
803.2145	-0.009
803.3847	-0.0307
803.555	0.0329
803.7252	-0.0318
803.8954	-0.0155
804.0656	-0.0587
804.2358	-0.0524
804.4059	0.0197
804.5761	-0.0355
804.7462	0.1037
804.9163	0.0249
805.0864	-0.0164
805.2564	-0.039
805.4264	-0.0579
805.5965	0.0091
805.7665	-0.0359
805.9364	-0.0735
806.1064	-0.0122
806.2763	0.0138
806.4462	-0.0169
806.6161	-0.0194
806.786	-0.0286
806.9559	0.0224
807.1257	-0.0175
807.2955	0.0357
807.4653	0.0646
807.6351	0.003
807.8048	0.0074
807.9746	0.0464
808.1443	-0.0193
808.314	0.0017
808.4837	0.0521
808.6533	-0.0606
808.8229	0.0397
808.9926	0.006
809.1622	0.01
809.3317	-0.0178
809.5013	-0.0101
809.6708	0.0125
809.8403	-0.0897
810.0098	-0.0235
810.1793	-0.0467
810.3488	-0.1383
810.5182	0.1687
810.6876	-0.0107
810.857	0.0144
811.0264	-0.0876
811.1958	0.0472
811.3651	-0.0014
811.5344	0.0623
811.7037	0.1181
811.873	0.0429
812.0422	-0.1648
812.2115	0.0176
812.3807	-0.0922
812.5499	-0.0167
812.7191	0.0017
812.8882	-0.1305
813.0574	-0.0459
813.2265	0.0502
813.3956	-0.0195
813.5646	0.0644
813.7337	-0.0321
813.9027	-0.0496
814.0718	-0.0078
814.2407	-0.0213
814.4097	0.0366
814.5787	0.0737
814.7476	0.0021
814.9165	0.0288
815.0854	-0.0178
815.2543	0.001
815.4232	0.138
815.592	0.0324
815.7608	-0.1809
815.9296	-0.0153
816.0984	0.1
816.2671	-0.2399
816.4359	0.0062
816.6046	0.0743
816.7733	-0.0412
816.942	-0.0042
817.1106	-0.0081
817.2793	-0.0531
817.4479	0.0379
817.6165	-0.0048
817.785	0.0412
817.9536	-0.086
818.1221	0.0352
818.2906	-0.1383
818.4591	0.0145
818.6276	0.001
818.7961	0.0242
818.9645	-0.0285
819.1329	-0.0857
819.3013	-0.0719
819.4697	0.1073
819.638	0.0755
819.8064	-0.0598
819.9747	0.1395
820.143	-0.1426
820.3113	-0.0629
820.4795	-0.0176
820.6477	0.1577
820.816	0.0032
820.9842	0.0434
821.1523	0.0398
821.3205	0.1788
821.4886	-0.0532
821.6567	-0.0179
821.8248	0.0912
821.9929	-0.1962
822.1609	0.0116
822.329	0.0549
822.497	0.0085
822.665	0.0046
822.833	-0.1108
823.0009	-0.0904
823.1688	0.3467
823.3367	-0.0549
823.5046	0.0178
823.6725	0.0427
823.8404	-0.0305
824.0082	-0.0357
824.176	-0.0456
824.3438	0.2636
824.5116	-0.0113
824.6793	0.1125
824.847	0.0791
825.0147	-0.0086
825.1824	-0.0591
825.3501	0.0852
825.5177	-0.0157
825.6854	-0.1635
825.853	0.0614
826.0206	-0.1233
826.1881	-0.1103
826.3557	-0.0734
826.5232	-0.0041
826.6907	-0.0459
826.8582	-0.111
827.0257	0.0965
827.1931	0.1
827.3605	-0.1036
827.528	0.0404
827.6953	-0.1651
827.8627	-0.0456
828.03	0.1744
828.1974	0.0512
828.3647	0.0879
828.532	0.0013
828.6992	0.0786
828.8665	-0.3149
829.0337	0.0169
829.2009	-0.1386
829.3681	-0.0637
829.5352	-0.3919
829.7024	0.0578
829.8695	-0.1175
830.0366	0.0857
830.2037	0.0376
830.3707	0.0574
830.5378	-0.1307
830.7048	-0.0548
830.8718	0.0878
831.0388	-0.0482
831.2057	-0.0336
831.3727	-0.4329
831.5396	-0.2523
831.7065	-1.0555
831.8734	0.4248
832.0402	0.1198
832.2071	-0.6278
832.3739	-0.0798
832.5407	-1.8792
832.7075	-0.3751
832.8742	-0
833.041	0.0488
833.2077	0.0332
833.3744	0.0492
833.541	0.0782
833.7077	-0.0826
833.8743	0.0103
834.0409	0.0224
834.2075	0.036
834.3741	-0.1357
834.5407	0.1209
834.7072	0.0307
834.8737	0.0659
835.0402	0.3652
835.2067	0.0597
835.3731	-0.0189
835.5395	0.0053
835.706	-0.2693
835.8723	-0.0318
836.0387	-0.056
836.2051	0.4943
836.3714	-0.1842
836.5377	0.1019
836.704	0.1044
836.8703	-0.1215
837.0365	-0.8773
837.2027	0.0454
837.3689	0.0394
837.5351	0.4508
837.7013	0.1456
837.8674	-0.015
838.0335	-0.0564
838.1997	-0.1254
838.3657	-0
838.5318	-0.1595
838.6978	0.6302
838.8639	-0.2383
839.0299	0.139
839.1958	-0.0502
839.3618	-0.112
839.5277	-0.0281
839.6937	0.0488
839.8596	-0.2123
840.0254	0.0482
840.1913	0.0449
840.3571	-0.219
840.523	-0
840.6888	0.166
840.8545	0.2518
841.0203	-0.1225
841.186	-0.0043
841.3517	-0.1653
841.5174	-0.0616
841.6831	0.0369
841.8488	-0.0131
842.0144	-0.1229
842.18	0.3964
842.3456	-0.4704
842.5112	-0
842.6767	0.0819
842.8422	-0.225
843.0077	0.086
843.1732	-0.4282
843.3387	0.4651
843.5042	-0
843.6696	0.0221
843.835	-0.3254
844.0004	0.0254
844.1657	-1.2345
844.3311	0.1075
844.4964	-0
844.6617	0.003
844.827	-0
844.9923	0.0592
845.1575	-0
845.3227	-0.4732
845.4879	-0.5497
845.6531	0.0131
845.8183	0.4182
845.9834	-0
846.1485	0.165
846.3136	0.3403
846.4787	-0
846.6438	-0.2806
846.8088	0.0932
846.9738	-0
847.1388	-0.0669
847.3038	0.089
847.4687	0.3966
847.6337	-0.3586
847.7986	-0.3847
847.9635	-0.332
848.1284	0.7043
848.2932	-0.2004
848.458	-0
848.6228	0.304
848.7876	-0
848.9524	0.0851
849.1172	-1.7278
849.2819	0.5942
849.4466	0.9428
849.6113	0.0939
849.7759	-0
849.9406	-0.2006
850.1052	-1.009
850.2698	-0.1176
850.4344	-0.3794
850.599	-0.4359
850.7635	0.2543
850.928	0.5316
851.0925	0.1924
851.257	0.1673
851.4215	-0
851.5859	0.1416
851.7503	-0
851.9147	0.2518
852.0791	-0.1033
852.2434	0.1406
852.4078	-0
852.5721	0.6703
852.7364	0.7636
852.9007	-0.0463
853.0649	-0
853.2291	-0
853.3934	-0
853.5575	-0.134
853.7217	0.0893
853.8859	-0.2347
854.05	-0.7684
854.2141	-0.1066
854.3782	0.36
854.5423	-0.3251
854.7063	0.0433
854.8703	0.0776
855.0343	0.5231
855.1983	-0.0796
855.3623	-0.1336
855.5262	-0
855.6901	0.0977
855.854	0.184
856.0179	0.0574
856.1818	-0.0336
856.3456	0.0875
856.5094	0.8667
856.6732	-0.5392
856.837	-0.6357
857.0008	0.4331
857.1645	-0.2664
857.3282	-0.5451
857.4919	-0.1012
857.6556	-0.1381
857.8192	-0.3527
857.9828	-0.2659
858.1465	0.1084
858.31	0.0886
858.4736	-0.0906
858.6372	-0
858.8007	-0.1348
858.9642	0.4952
859.1277	-0
859.2911	-0.6146
859.4546	-0
859.618	0.1041
859.7814	0.2534
859.9448	-0
860.1081	-0
860.2715	-1.699
860.4348	0.1084
860.5981	0.5158
860.7614	-0
860.9246	-0.1743
861.0879	0.0403
861.2511	-0
861.4143	0.3254
861.5774	-0.0434
861.7406	-0.2697
861.9037	0.2814
862.0668	-0.2509
862.2299	-0.0234
862.393	-0
862.556	0.3506
862.7191	-0.6472
862.8821	0.0355
863.0451	-0.0067
863.208	-0.7142
863.371	0.2204
863.5339	0.5533
863.6968	0.8951
863.8597	-0.3147
864.0225	-0
864.1854	-0.2481
864.3482	-0
864.511	-0.2711
864.6737	-0
864.8365	0.0405
864.9992	0.1622
865.1619	-0.2869
865.3246	-1.6776
865.4873	-0.1681
865.65	-0.0376
865.8126	0.0056
865.9752	-0.5024
866.1378	1.0076
866.3004	-0.2695
866.4629	-1.3854
866.6254	0.9969
866.7879	-0.3508
866.9504	-0
867.1129	0.0444
867.2753	-0.1818
867.4377	0.2214
867.6001	0.3416
867.7625	-0.2727
867.9249	-0.0294
868.0872	-0.0376
868.2495	0.9777
868.4118	-0
868.5741	-0.3256
868.7363	-0
868.8986	-0.6641
869.0608	-0.4403
869.223	-0.2319
869.3851	-0
869.5473	0.0492
869.7094	-0
869.8715	-0.301
870.0336	0.2004
870.1957	-0
870.3577	0.0901
870.5197	0.3271
870.6817	-0.9609
870.8437	0.7709
871.0057	0.3039
871.1676	0.1469
871.3295	-0
871.4914	-0
871.6533	-0
871.8151	0.8483
871.977	-0.4622
872.1388	0.0572
872.3006	0.3866
872.4623	-0.8266
872.6241	-0
872.7858	0.2769
872.9475	-0
873.1092	-0.0454
873.2709	0.2808
873.4325	-1.3536
873.5941	-0
873.7557	-0
873.9173	0.0213
874.0789	0.4221
874.2404	-0
874.4019	0.0979
874.5634	-0
874.7249	-0.1641
874.8863	0.2483
875.0478	-0.2044
875.2092	0.1035
875.3706	0.0051
875.5319	-0.1381
875.6933	0.1023
875.8546	0.2016
876.0159	0.1598
876.1772	-0.3642
876.3385	-0.1224
876.4997	0.38
876.6609	-0.0614
876.8221	-0
876.9833	-0.1241
877.1445	0.2432
877.3056	-0
877.4667	-0.6926
877.6278	-0
877.7889	-0.0569
877.9499	0.6577
878.111	-0.5278
878.272	-0.1722
878.433	-0
878.5939	1.3237
878.7549	-0.173
878.9158	-0
879.0767	0.2286
879.2376	0.3097
879.3984	0.6483
879.5593	1.123
879.7201	-1.5387
879.8809	-0
880.0417	-0.2123
880.2024	0.3518
880.3632	0.728
880.5239	-0.2422
880.6846	-0.2176
880.8452	0.758
881.0059	-0.55
881.1665	-0.3313
881.3271	-0
881.4877	-0.0384
881.6483	-0.7427
881.8088	-0
881.9693	-1.1461
882.1298	-1.1461
882.2903	-1.1461
