Data from D4ACN5uM440nmA_Absorbance_13-50-25-072.txt Node
Date: Fri Feb 21 13:50:25 GMT 2025
User: LASERRRRR
Spectrometer: FLMT03099
Trigger mode: 0
Integration Time (sec): 1.500000E-2
Scans to average: 1
Electric dark correction enabled: true
Nonlinearity correction enabled: false
Boxcar width: 0
XAxis mode: Wavelengths
Number of Pixels in Spectrum: 3648
>>>>>Begin Spectral Data<<<<<
179.3399	-0.7544
179.5586	-0.7544
179.7771	-0.7544
179.9957	-0.1685
180.2143	-0
180.4329	0.1612
180.6514	-0
180.8699	0.3091
181.0885	-0
181.307	0.0065
181.5255	-0.0291
181.744	-0
181.9625	1.7814
182.181	-0.6643
182.3994	0.5356
182.6179	-0.4561
182.8363	0.1854
183.0547	-0.1371
183.2732	0.1511
183.4916	0.1307
183.71	0.1688
183.9284	0.0536
184.1467	0.2864
184.3651	-0.1074
184.5835	0.1636
184.8018	0.1083
185.0201	0.3897
185.2385	0.1325
185.4568	0.1254
185.6751	0.4907
185.8934	0.3482
186.1117	-0.1863
186.3299	0.1715
186.5482	0.0929
186.7664	-0.0457
186.9847	0.0023
187.2029	0.1241
187.4211	0.1279
187.6393	0.1139
187.8575	0.3584
188.0757	0.1741
188.2939	-0.1071
188.512	0.2473
188.7302	0.2693
188.9483	0.3398
189.1665	0.4309
189.3846	0.0827
189.6027	-0.0223
189.8208	0.1746
190.0389	0.153
190.257	0.1728
190.475	-0.0133
190.6931	0.2533
190.9111	0.3244
191.1292	0.1415
191.3472	0.1903
191.5652	0.1878
191.7832	0.2077
192.0012	0.3965
192.2192	0.1897
192.4371	0.0926
192.6551	0.2477
192.873	0.1595
193.091	0.1751
193.3089	0.2312
193.5268	0.2707
193.7447	0.222
193.9626	0.2379
194.1805	0.2939
194.3984	0.2461
194.6162	0.3028
194.8341	0.3645
195.0519	0.1606
195.2697	0.1918
195.4875	0.368
195.7054	0.2454
195.9231	0.2646
196.1409	0.284
196.3587	0.3269
196.5765	0.3077
196.7942	0.4125
197.012	0.3508
197.2297	0.2987
197.4474	0.3634
197.6651	0.4067
197.8828	0.3283
198.1005	0.3533
198.3182	0.4349
198.5358	0.3536
198.7535	0.3768
198.9711	0.3994
199.1888	0.3863
199.4064	0.3772
199.624	0.378
199.8416	0.34
200.0592	0.3911
200.2767	0.3709
200.4943	0.4456
200.7119	0.3896
200.9294	0.3946
201.1469	0.4646
201.3645	0.4791
201.582	0.4163
201.7995	0.3619
202.017	0.3726
202.2344	0.431
202.4519	0.4209
202.6694	0.3899
202.8868	0.4238
203.1042	0.3833
203.3217	0.373
203.5391	0.381
203.7565	0.3576
203.9739	0.3586
204.1913	0.3328
204.4086	0.3718
204.626	0.3597
204.8433	0.3608
205.0607	0.3492
205.278	0.374
205.4953	0.3302
205.7126	0.337
205.9299	0.2961
206.1472	0.3023
206.3644	0.3292
206.5817	0.3227
206.7989	0.3213
207.0162	0.3249
207.2334	0.3308
207.4506	0.3456
207.6678	0.3009
207.885	0.3163
208.1022	0.3007
208.3194	0.2788
208.5365	0.2914
208.7537	0.3131
208.9708	0.3017
209.1879	0.291
209.405	0.2955
209.6222	0.2708
209.8392	0.3251
210.0563	0.2637
210.2734	0.2719
210.4905	0.2636
210.7075	0.2864
210.9245	0.2572
211.1416	0.2548
211.3586	0.2503
211.5756	0.2379
211.7926	0.2776
212.0096	0.2696
212.2265	0.2595
212.4435	0.2579
212.6604	0.2766
212.8774	0.2439
213.0943	0.2554
213.3112	0.2694
213.5281	0.2679
213.745	0.2473
213.9619	0.2528
214.1788	0.2599
214.3956	0.2325
214.6125	0.2238
214.8293	0.2592
215.0461	0.2516
215.2629	0.2565
215.4798	0.2404
215.6965	0.2474
215.9133	0.2454
216.1301	0.2348
216.3469	0.2497
216.5636	0.2552
216.7803	0.2446
216.9971	0.2483
217.2138	0.2472
217.4305	0.2439
217.6472	0.2621
217.8639	0.2551
218.0805	0.2554
218.2972	0.244
218.5138	0.2437
218.7305	0.2597
218.9471	0.2418
219.1637	0.2705
219.3803	0.2529
219.5969	0.2508
219.8135	0.2648
220.0301	0.2586
220.2466	0.2494
220.4632	0.2564
220.6797	0.2469
220.8962	0.2578
221.1127	0.2816
221.3292	0.2652
221.5457	0.2756
221.7622	0.2538
221.9787	0.27
222.1951	0.2685
222.4116	0.2734
222.628	0.2847
222.8444	0.2767
223.0608	0.2698
223.2772	0.2867
223.4936	0.289
223.71	0.2836
223.9264	0.2755
224.1427	0.2869
224.3591	0.2878
224.5754	0.2951
224.7917	0.2926
225.008	0.2905
225.2243	0.3088
225.4406	0.2904
225.6569	0.2954
225.8732	0.3108
226.0894	0.306
226.3057	0.3091
226.5219	0.3127
226.7381	0.3152
226.9543	0.3099
227.1705	0.3117
227.3867	0.3202
227.6029	0.3148
227.8191	0.3319
228.0352	0.349
228.2513	0.3466
228.4675	0.3406
228.6836	0.3425
228.8997	0.3386
229.1158	0.3523
229.3319	0.3418
229.548	0.3499
229.764	0.3649
229.9801	0.374
230.1961	0.36
230.4121	0.3597
230.6282	0.3814
230.8442	0.3821
231.0602	0.3874
231.2761	0.3839
231.4921	0.3896
231.7081	0.39
231.924	0.3962
232.14	0.3958
232.3559	0.4068
232.5718	0.4107
232.7877	0.4095
233.0036	0.4104
233.2195	0.4018
233.4353	0.4213
233.6512	0.4044
233.867	0.4189
234.0829	0.424
234.2987	0.4202
234.5145	0.4258
234.7303	0.4331
234.9461	0.4407
235.1619	0.4438
235.3776	0.4246
235.5934	0.4302
235.8091	0.4335
236.0249	0.4412
236.2406	0.4359
236.4563	0.4468
236.672	0.4344
236.8877	0.4453
237.1034	0.45
237.319	0.4471
237.5347	0.461
237.7503	0.4512
237.966	0.4605
238.1816	0.461
238.3972	0.4513
238.6128	0.4616
238.8284	0.4672
239.0439	0.4614
239.2595	0.4624
239.475	0.4522
239.6906	0.4577
239.9061	0.4589
240.1216	0.4569
240.3371	0.4558
240.5526	0.4604
240.7681	0.4595
240.9836	0.4567
241.199	0.4606
241.4145	0.4505
241.6299	0.4468
241.8453	0.4282
242.0607	0.4456
242.2761	0.4321
242.4915	0.4281
242.7069	0.4185
242.9223	0.4203
243.1376	0.4089
243.353	0.3957
243.5683	0.4039
243.7836	0.3841
243.9989	0.3754
244.2142	0.3704
244.4295	0.3629
244.6448	0.3672
244.86	0.3409
245.0753	0.3427
245.2905	0.3389
245.5057	0.334
245.721	0.338
245.9362	0.3274
246.1514	0.3162
246.3665	0.3097
246.5817	0.3059
246.7969	0.2938
247.012	0.2903
247.2271	0.2909
247.4423	0.279
247.6574	0.2811
247.8725	0.267
248.0876	0.2618
248.3026	0.2666
248.5177	0.256
248.7328	0.2497
248.9478	0.2421
249.1628	0.2444
249.3779	0.2407
249.5929	0.2368
249.8079	0.2312
250.0228	0.2354
250.2378	0.2276
250.4528	0.228
250.6677	0.219
250.8827	0.2132
251.0976	0.2111
251.3125	0.2181
251.5274	0.209
251.7423	0.204
251.9572	0.2101
252.172	0.2044
252.3869	0.2048
252.6017	0.2005
252.8166	0.1965
253.0314	0.1994
253.2462	0.1985
253.461	0.1959
253.6758	0.1962
253.8906	0.193
254.1053	0.1954
254.3201	0.1949
254.5348	0.1872
254.7496	0.1819
254.9643	0.1894
255.179	0.1824
255.3937	0.1877
255.6083	0.1891
255.823	0.1809
256.0377	0.1842
256.2523	0.1824
256.467	0.184
256.6816	0.1837
256.8962	0.1775
257.1108	0.183
257.3254	0.1785
257.54	0.1788
257.7545	0.1776
257.9691	0.1823
258.1836	0.1758
258.3981	0.1825
258.6127	0.175
258.8272	0.1777
259.0417	0.1793
259.2561	0.1761
259.4706	0.172
259.6851	0.1742
259.8995	0.1742
260.114	0.1773
260.3284	0.174
260.5428	0.1765
260.7572	0.1754
260.9716	0.1789
261.186	0.1733
261.4003	0.1733
261.6147	0.1753
261.829	0.1757
262.0433	0.1798
262.2577	0.1738
262.472	0.1782
262.6863	0.1816
262.9005	0.1747
263.1148	0.1758
263.3291	0.1833
263.5433	0.1749
263.7576	0.1786
263.9718	0.1761
264.186	0.1824
264.4002	0.1777
264.6144	0.1874
264.8286	0.1847
265.0427	0.1805
265.2569	0.1809
265.471	0.1817
265.6851	0.1786
265.8993	0.181
266.1134	0.1804
266.3275	0.1795
266.5415	0.178
266.7556	0.1883
266.9697	0.1799
267.1837	0.1799
267.3978	0.1806
267.6118	0.1759
267.8258	0.1893
268.0398	0.1846
268.2538	0.1824
268.4677	0.1763
268.6817	0.1802
268.8957	0.1717
269.1096	0.1696
269.3235	0.1759
269.5374	0.175
269.7514	0.1756
269.9652	0.1737
270.1791	0.1671
270.393	0.1771
270.6068	0.1776
270.8207	0.1766
271.0345	0.1698
271.2483	0.166
271.4622	0.1694
271.676	0.1714
271.8897	0.1742
272.1035	0.1732
272.3173	0.1753
272.531	0.1694
272.7448	0.1679
272.9585	0.1678
273.1722	0.1665
273.3859	0.1756
273.5996	0.1803
273.8133	0.1712
274.0269	0.1688
274.2406	0.1705
274.4542	0.1755
274.6679	0.1726
274.8815	0.1758
275.0951	0.1803
275.3087	0.1759
275.5223	0.1751
275.7358	0.1754
275.9494	0.1747
276.1629	0.1795
276.3765	0.1732
276.59	0.1719
276.8035	0.1727
277.017	0.183
277.2305	0.1763
277.444	0.1787
277.6574	0.185
277.8709	0.1861
278.0843	0.1791
278.2978	0.1814
278.5112	0.1832
278.7246	0.1816
278.938	0.1799
279.1513	0.179
279.3647	0.1841
279.5781	0.1747
279.7914	0.1757
280.0047	0.184
280.2181	0.1806
280.4314	0.181
280.6447	0.1831
280.8579	0.1754
281.0712	0.1787
281.2845	0.182
281.4977	0.1785
281.711	0.1777
281.9242	0.1823
282.1374	0.182
282.3506	0.1777
282.5638	0.1823
282.7769	0.1757
282.9901	0.1829
283.2033	0.1853
283.4164	0.1786
283.6295	0.179
283.8426	0.1815
284.0557	0.1853
284.2688	0.1865
284.4819	0.1795
284.695	0.1863
284.908	0.1779
285.1211	0.1861
285.3341	0.1815
285.5471	0.1818
285.7601	0.1855
285.9731	0.1858
286.1861	0.1867
286.3991	0.1903
286.612	0.1924
286.825	0.1888
287.0379	0.1898
287.2508	0.1881
287.4637	0.1885
287.6766	0.1851
287.8895	0.1853
288.1024	0.1945
288.3152	0.1865
288.5281	0.1862
288.7409	0.192
288.9538	0.1896
289.1666	0.1901
289.3794	0.1904
289.5922	0.1865
289.8049	0.1911
290.0177	0.1969
290.2304	0.1878
290.4432	0.1922
290.6559	0.188
290.8686	0.1922
291.0813	0.1852
291.294	0.189
291.5067	0.1884
291.7194	0.1956
291.932	0.186
292.1447	0.1896
292.3573	0.197
292.5699	0.1977
292.7825	0.1852
292.9951	0.1936
293.2077	0.1929
293.4203	0.1924
293.6328	0.1938
293.8454	0.1927
294.0579	0.1897
294.2704	0.2033
294.4829	0.1933
294.6954	0.1959
294.9079	0.192
295.1204	0.1905
295.3328	0.1892
295.5453	0.1907
295.7577	0.1953
295.9701	0.1894
296.1825	0.1913
296.3949	0.191
296.6073	0.189
296.8197	0.1903
297.0321	0.1942
297.2444	0.185
297.4567	0.1917
297.6691	0.1928
297.8814	0.1941
298.0937	0.1883
298.306	0.1878
298.5182	0.1933
298.7305	0.1904
298.9428	0.1904
299.155	0.1876
299.3672	0.1905
299.5794	0.189
299.7916	0.1948
300.0038	0.1913
300.216	0.187
300.4282	0.1944
300.6403	0.1925
300.8525	0.1926
301.0646	0.1896
301.2767	0.1939
301.4888	0.1925
301.7009	0.1971
301.913	0.1945
302.125	0.1884
302.3371	0.1921
302.5491	0.1902
302.7612	0.2003
302.9732	0.1932
303.1852	0.1924
303.3972	0.1901
303.6092	0.1886
303.8211	0.1926
304.0331	0.1865
304.245	0.1882
304.457	0.1909
304.6689	0.1863
304.8808	0.1822
305.0927	0.1892
305.3046	0.1873
305.5164	0.1827
305.7283	0.1847
305.9401	0.1722
306.152	0.1797
306.3638	0.1775
306.5756	0.179
306.7874	0.1748
306.9992	0.1803
307.2109	0.1742
307.4227	0.1703
307.6344	0.1744
307.8462	0.1709
308.0579	0.1695
308.2696	0.1642
308.4813	0.1679
308.693	0.1616
308.9046	0.1644
309.1163	0.1607
309.328	0.158
309.5396	0.1576
309.7512	0.1536
309.9628	0.155
310.1744	0.1556
310.386	0.1467
310.5976	0.1441
310.8091	0.1476
311.0207	0.1488
311.2322	0.1479
311.4437	0.1455
311.6552	0.1446
311.8667	0.147
312.0782	0.1445
312.2897	0.1401
312.5012	0.1338
312.7126	0.1368
312.924	0.1324
313.1355	0.136
313.3469	0.1314
313.5583	0.1383
313.7696	0.1291
313.981	0.138
314.1924	0.1259
314.4037	0.1315
314.6151	0.131
314.8264	0.1356
315.0377	0.1295
315.249	0.1324
315.4603	0.1266
315.6716	0.1288
315.8828	0.128
316.0941	0.1274
316.3053	0.1284
316.5165	0.1301
316.7277	0.1207
316.9389	0.1284
317.1501	0.1252
317.3613	0.1237
317.5724	0.127
317.7836	0.1184
317.9947	0.1243
318.2058	0.1232
318.417	0.1293
318.6281	0.1214
318.8391	0.125
319.0502	0.1266
319.2613	0.124
319.4723	0.1227
319.6834	0.1267
319.8944	0.1232
320.1054	0.1277
320.3164	0.1175
320.5274	0.124
320.7383	0.1234
320.9493	0.1189
321.1602	0.1235
321.3712	0.1239
321.5821	0.121
321.793	0.132
322.0039	0.1239
322.2148	0.1209
322.4257	0.1207
322.6365	0.1161
322.8474	0.1298
323.0582	0.1276
323.269	0.1263
323.4798	0.1256
323.6906	0.1218
323.9014	0.1265
324.1122	0.1248
324.3229	0.1307
324.5337	0.1322
324.7444	0.1266
324.9551	0.1252
325.1658	0.1189
325.3765	0.1287
325.5872	0.1233
325.7979	0.125
326.0085	0.1228
326.2192	0.1237
326.4298	0.1308
326.6404	0.135
326.851	0.1258
327.0616	0.1262
327.2722	0.1306
327.4828	0.1278
327.6933	0.1343
327.9039	0.1265
328.1144	0.1327
328.3249	0.1265
328.5354	0.1297
328.7459	0.1324
328.9564	0.1328
329.1669	0.13
329.3773	0.1305
329.5878	0.1316
329.7982	0.1356
330.0086	0.1331
330.219	0.1331
330.4294	0.1355
330.6398	0.13
330.8502	0.1359
331.0605	0.1344
331.2708	0.1363
331.4812	0.1322
331.6915	0.1271
331.9018	0.1371
332.1121	0.1417
332.3224	0.1354
332.5326	0.1276
332.7429	0.1314
332.9531	0.1384
333.1633	0.1308
333.3735	0.1301
333.5837	0.1332
333.7939	0.1375
334.0041	0.1392
334.2143	0.1353
334.4244	0.1408
334.6346	0.1354
334.8447	0.1322
335.0548	0.1408
335.2649	0.1426
335.475	0.1422
335.685	0.14
335.8951	0.1373
336.1051	0.1384
336.3152	0.1404
336.5252	0.1365
336.7352	0.1349
336.9452	0.1373
337.1552	0.1382
337.3652	0.1348
337.5751	0.137
337.7851	0.1391
337.995	0.1351
338.2049	0.1419
338.4148	0.1384
338.6247	0.141
338.8346	0.1395
339.0445	0.1362
339.2543	0.1403
339.4642	0.1414
339.674	0.1334
339.8838	0.1472
340.0936	0.1435
340.3034	0.1392
340.5132	0.1397
340.7229	0.1457
340.9327	0.1473
341.1424	0.142
341.3522	0.1358
341.5619	0.1484
341.7716	0.1443
341.9813	0.1494
342.1909	0.1505
342.4006	0.1489
342.6102	0.15
342.8199	0.1477
343.0295	0.1442
343.2391	0.147
343.4487	0.1504
343.6583	0.1581
343.8679	0.1527
344.0774	0.1529
344.287	0.1529
344.4965	0.1543
344.706	0.1617
344.9155	0.1586
345.125	0.1535
345.3345	0.1676
345.544	0.1583
345.7534	0.1598
345.9629	0.1626
346.1723	0.164
346.3817	0.1593
346.5911	0.1599
346.8005	0.1651
347.0099	0.1612
347.2193	0.1687
347.4286	0.1707
347.638	0.1644
347.8473	0.1685
348.0566	0.1649
348.2659	0.1658
348.4752	0.1656
348.6845	0.171
348.8937	0.1701
349.103	0.1673
349.3122	0.1637
349.5214	0.174
349.7306	0.1798
349.9398	0.1631
350.149	0.1695
350.3582	0.1729
350.5674	0.1751
350.7765	0.1699
350.9856	0.1731
351.1948	0.1722
351.4039	0.1785
351.613	0.17
351.822	0.1855
352.0311	0.1763
352.2402	0.1781
352.4492	0.1784
352.6582	0.1824
352.8672	0.1786
353.0762	0.1784
353.2852	0.1814
353.4942	0.1876
353.7032	0.177
353.9121	0.1817
354.1211	0.1838
354.33	0.1861
354.5389	0.1798
354.7478	0.1807
354.9567	0.1815
355.1655	0.1817
355.3744	0.1863
355.5833	0.1777
355.7921	0.1889
356.0009	0.1825
356.2097	0.1841
356.4185	0.1787
356.6273	0.1913
356.8361	0.1923
357.0448	0.1853
357.2536	0.1865
357.4623	0.1872
357.671	0.1937
357.8797	0.1917
358.0884	0.187
358.2971	0.2002
358.5057	0.2012
358.7144	0.1932
358.923	0.1976
359.1316	0.1967
359.3402	0.1982
359.5488	0.1944
359.7574	0.2005
359.966	0.2003
360.1746	0.1988
360.3831	0.2108
360.5916	0.2033
360.8002	0.2079
361.0087	0.1991
361.2172	0.2036
361.4256	0.2027
361.6341	0.2139
361.8426	0.2102
362.051	0.2178
362.2594	0.2057
362.4678	0.2102
362.6762	0.2104
362.8846	0.2123
363.093	0.2129
363.3014	0.2141
363.5097	0.2118
363.718	0.2129
363.9264	0.2185
364.1347	0.2216
364.343	0.2183
364.5513	0.2228
364.7595	0.2265
364.9678	0.2178
365.176	0.2186
365.3842	0.2261
365.5925	0.2243
365.8007	0.2296
366.0089	0.2388
366.217	0.2342
366.4252	0.2277
366.6333	0.238
366.8415	0.2326
367.0496	0.231
367.2577	0.2337
367.4658	0.2306
367.6739	0.221
367.882	0.235
368.09	0.2308
368.2981	0.2381
368.5061	0.2369
368.7141	0.2449
368.9221	0.2465
369.1301	0.2406
369.3381	0.2501
369.5461	0.2539
369.754	0.254
369.962	0.2381
370.1699	0.2522
370.3778	0.2494
370.5857	0.2517
370.7936	0.2545
371.0015	0.2498
371.2093	0.2478
371.4172	0.255
371.625	0.2532
371.8328	0.2515
372.0406	0.26
372.2484	0.2493
372.4562	0.2651
372.664	0.2532
372.8717	0.2607
373.0795	0.2625
373.2872	0.2668
373.4949	0.2626
373.7026	0.256
373.9103	0.2633
374.118	0.2653
374.3256	0.2756
374.5333	0.2621
374.7409	0.2668
374.9485	0.2676
375.1561	0.2705
375.3637	0.258
375.5713	0.2679
375.7789	0.2694
375.9864	0.2694
376.194	0.2828
376.4015	0.2751
376.609	0.2751
376.8165	0.282
377.024	0.2658
377.2315	0.2791
377.4389	0.2712
377.6464	0.2775
377.8538	0.2703
378.0612	0.272
378.2686	0.2703
378.476	0.2823
378.6834	0.2813
378.8908	0.2842
379.0981	0.2874
379.3055	0.2817
379.5128	0.2747
379.7201	0.2838
379.9274	0.2757
380.1347	0.2807
380.342	0.296
380.5492	0.2876
380.7565	0.2872
380.9637	0.2935
381.1709	0.2846
381.3781	0.2874
381.5853	0.2815
381.7925	0.2878
381.9997	0.3004
382.2068	0.2913
382.4139	0.2959
382.6211	0.3038
382.8282	0.3038
383.0353	0.297
383.2424	0.2983
383.4494	0.2923
383.6565	0.2935
383.8635	0.2948
384.0706	0.3132
384.2776	0.2938
384.4846	0.302
384.6916	0.2974
384.8986	0.3029
385.1055	0.2997
385.3125	0.3055
385.5194	0.3059
385.7263	0.2957
385.9333	0.3036
386.1402	0.3083
386.347	0.3028
386.5539	0.3003
386.7608	0.3046
386.9676	0.3009
387.1744	0.2975
387.3813	0.2977
387.5881	0.3074
387.7948	0.3007
388.0016	0.3031
388.2084	0.2977
388.4151	0.2961
388.6219	0.3055
388.8286	0.2985
389.0353	0.3094
389.242	0.3007
389.4487	0.2847
389.6553	0.2884
389.862	0.2851
390.0686	0.3058
390.2753	0.2913
390.4819	0.3014
390.6885	0.2899
390.8951	0.2798
391.1016	0.2916
391.3082	0.2886
391.5147	0.2861
391.7213	0.2852
391.9278	0.2822
392.1343	0.2883
392.3408	0.2897
392.5473	0.2779
392.7537	0.2832
392.9602	0.2882
393.1666	0.2777
393.373	0.2707
393.5794	0.2717
393.7858	0.277
393.9922	0.2821
394.1986	0.2773
394.4049	0.272
394.6113	0.2739
394.8176	0.2739
395.0239	0.2706
395.2302	0.2632
395.4365	0.2692
395.6428	0.2746
395.8491	0.2545
396.0553	0.2613
396.2615	0.2594
396.4678	0.2605
396.674	0.265
396.8802	0.2694
397.0863	0.2667
397.2925	0.2603
397.4987	0.2534
397.7048	0.2621
397.9109	0.2561
398.117	0.2605
398.3231	0.2606
398.5292	0.2553
398.7353	0.2523
398.9413	0.26
399.1474	0.2606
399.3534	0.2582
399.5594	0.2588
399.7654	0.2545
399.9714	0.2498
400.1774	0.2572
400.3833	0.2624
400.5893	0.256
400.7952	0.263
401.0011	0.2542
401.207	0.2577
401.4129	0.259
401.6188	0.2511
401.8247	0.2663
402.0305	0.25
402.2364	0.2568
402.4422	0.2526
402.648	0.259
402.8538	0.2568
403.0596	0.2418
403.2654	0.2527
403.4711	0.2511
403.6768	0.2479
403.8826	0.2493
404.0883	0.2562
404.294	0.2596
404.4997	0.2615
404.7054	0.2576
404.911	0.2569
405.1167	0.255
405.3223	0.2537
405.5279	0.2524
405.7335	0.2467
405.9391	0.2513
406.1447	0.2653
406.3502	0.255
406.5558	0.2506
406.7613	0.2518
406.9668	0.2493
407.1724	0.2586
407.3778	0.2613
407.5833	0.2447
407.7888	0.2541
407.9942	0.2546
408.1997	0.2594
408.4051	0.261
408.6105	0.2643
408.8159	0.2504
409.0213	0.2503
409.2267	0.2594
409.432	0.2566
409.6374	0.2631
409.8427	0.2572
410.048	0.2571
410.2533	0.2545
410.4586	0.242
410.6639	0.2618
410.8691	0.2472
411.0744	0.2557
411.2796	0.2583
411.4848	0.2596
411.69	0.2505
411.8952	0.2587
412.1004	0.2493
412.3056	0.242
412.5107	0.2496
412.7158	0.2646
412.921	0.2571
413.1261	0.247
413.3312	0.2485
413.5362	0.2618
413.7413	0.255
413.9464	0.255
414.1514	0.2473
414.3564	0.2519
414.5614	0.2467
414.7664	0.2449
414.9714	0.2425
415.1764	0.2571
415.3813	0.2417
415.5863	0.2482
415.7912	0.2482
415.9961	0.2455
416.201	0.2619
416.4059	0.247
416.6108	0.2601
416.8156	0.2467
417.0205	0.251
417.2253	0.2474
417.4301	0.2545
417.6349	0.2375
417.8397	0.2454
418.0445	0.2396
418.2492	0.2366
418.454	0.2421
418.6587	0.2503
418.8634	0.2407
419.0681	0.2479
419.2728	0.24
419.4775	0.2621
419.6822	0.242
419.8868	0.2371
420.0915	0.238
420.2961	0.2269
420.5007	0.2322
420.7053	0.2358
420.9099	0.2379
421.1144	0.2271
421.319	0.2357
421.5235	0.237
421.728	0.2422
421.9325	0.2264
422.137	0.2342
422.3415	0.2158
422.546	0.2275
422.7504	0.2302
422.9549	0.234
423.1593	0.2142
423.3637	0.2275
423.5681	0.2396
423.7725	0.2241
423.9769	0.2343
424.1812	0.2169
424.3856	0.2153
424.5899	0.2208
424.7942	0.217
424.9985	0.2183
425.2028	0.2322
425.4071	0.2142
425.6113	0.2231
425.8156	0.222
426.0198	0.2099
426.224	0.2188
426.4282	0.2108
426.6324	0.2169
426.8366	0.2006
427.0407	0.2151
427.2449	0.2113
427.449	0.2094
427.6531	0.2182
427.8572	0.203
428.0613	0.2062
428.2654	0.2091
428.4694	0.1998
428.6735	0.1945
428.8775	0.2061
429.0815	0.1937
429.2855	0.1951
429.4895	0.2014
429.6935	0.1899
429.8975	0.1955
430.1014	0.186
430.3053	0.1961
430.5093	0.1801
430.7132	0.1847
430.9171	0.1818
431.1209	0.1787
431.3248	0.1761
431.5286	0.1771
431.7325	0.1832
431.9363	0.1716
432.1401	0.1732
432.3439	0.1814
432.5477	0.1699
432.7514	0.1713
432.9552	0.1665
433.1589	0.1595
433.3627	0.1715
433.5664	0.1586
433.7701	0.1654
433.9737	0.1616
434.1774	0.1602
434.3811	0.1492
434.5847	0.1503
434.7883	0.1527
434.9919	0.1486
435.1955	0.1569
435.3991	0.1473
435.6027	0.1456
435.8062	0.1553
436.0098	0.1354
436.2133	0.1414
436.4168	0.1377
436.6203	0.1398
436.8238	0.1324
437.0272	0.134
437.2307	0.1265
437.4341	0.1234
437.6375	0.131
437.841	0.1223
438.0443	0.1337
438.2477	0.1229
438.4511	0.12
438.6545	0.1161
438.8578	0.1247
439.0611	0.1295
439.2644	0.1321
439.4677	0.1208
439.671	0.1137
439.8743	0.1137
440.0775	0.111
440.2808	0.1114
440.484	0.1047
440.6872	0.1044
440.8904	0.0907
441.0936	0.1019
441.2967	0.097
441.4999	0.0978
441.703	0.0955
441.9062	0.1033
442.1093	0.1072
442.3124	0.0983
442.5155	0.0955
442.7185	0.0869
442.9216	0.0868
443.1246	0.0942
443.3276	0.0921
443.5307	0.0844
443.7337	0.0788
443.9366	0.0789
444.1396	0.073
444.3426	0.0754
444.5455	0.0763
444.7484	0.0763
444.9513	0.0771
445.1542	0.0746
445.3571	0.0708
445.56	0.072
445.7628	0.072
445.9657	0.0724
446.1685	0.0737
446.3713	0.0701
446.5741	0.0709
446.7769	0.0682
446.9797	0.0683
447.1824	0.0589
447.3852	0.0535
447.5879	0.0586
447.7906	0.0527
447.9933	0.0595
448.196	0.0486
448.3986	0.061
448.6013	0.0548
448.8039	0.0659
449.0066	0.0594
449.2092	0.0599
449.4118	0.056
449.6143	0.051
449.8169	0.0501
450.0195	0.0533
450.222	0.05
450.4245	0.047
450.627	0.045
450.8295	0.0414
451.032	0.0421
451.2345	0.0385
451.4369	0.042
451.6394	0.047
451.8418	0.0403
452.0442	0.0424
452.2466	0.0394
452.449	0.0453
452.6513	0.0361
452.8537	0.0296
453.056	0.0334
453.2583	0.0351
453.4607	0.0313
453.663	0.0377
453.8652	0.026
454.0675	0.037
454.2697	0.0294
454.472	0.027
454.6742	0.0374
454.8764	0.0367
455.0786	0.0271
455.2808	0.0225
455.4829	0.0327
455.6851	0.0263
455.8872	0.0219
456.0893	0.0212
456.2915	0.0252
456.4935	0.033
456.6956	0.0204
456.8977	0.0274
457.0997	0.0249
457.3018	0.011
457.5038	0.0249
457.7058	0.0269
457.9078	0.0202
458.1098	0.0352
458.3117	0.0343
458.5137	0.0138
458.7156	0.0222
458.9175	0.0296
459.1194	0.0225
459.3213	0.0188
459.5232	0.0245
459.725	0.0212
459.9269	0.0184
460.1287	0.019
460.3305	0.0279
460.5323	0.0247
460.7341	0.0196
460.9359	0.0095
461.1376	0.0199
461.3394	0.0242
461.5411	0.0277
461.7428	0.0188
461.9445	0.0236
462.1462	0.0149
462.3479	0.0141
462.5495	0.0177
462.7512	0.0209
462.9528	0.0136
463.1544	0.011
463.356	0.0145
463.5576	0.0143
463.7592	0.0206
463.9607	0.0144
464.1623	0.0134
464.3638	0.0085
464.5653	0.0158
464.7668	0.0133
464.9683	0.0233
465.1697	0.0177
465.3712	0.0039
465.5726	0.0059
465.7741	0.0127
465.9755	0.0096
466.1769	0.0048
466.3782	0.0047
466.5796	0.0144
466.7809	0.0187
466.9823	0.0092
467.1836	0.0062
467.3849	0.0104
467.5862	0.003
467.7875	0.0097
467.9887	0.0174
468.19	0.0102
468.3912	0.0147
468.5924	0.0006
468.7936	0.0103
468.9948	0.0095
469.196	0.0104
469.3972	0.0059
469.5983	0.007
469.7994	0.0117
470.0006	0.0123
470.2017	0.0139
470.4027	0.0188
470.6038	0.01
470.8049	0.0141
471.0059	0.0064
471.2069	0.0103
471.408	0.0184
471.6089	0.0073
471.8099	0.0217
472.0109	0.0067
472.2119	0.0196
472.4128	0.0025
472.6137	0.0093
472.8146	0.0076
473.0155	0.0163
473.2164	0.0091
473.4173	-0.0025
473.6181	0.0001
473.819	0.0005
474.0198	0.0029
474.2206	-0.0098
474.4214	0.0098
474.6222	-0.0031
474.8229	0.0063
475.0237	0.0172
475.2244	0.0121
475.4251	0.0029
475.6258	0.0026
475.8265	0.0019
476.0272	0.0073
476.2278	0.0091
476.4285	0.0099
476.6291	0.0116
476.8297	0.0111
477.0303	0.0075
477.2309	0.0069
477.4315	0.0083
477.632	0.0005
477.8326	0.0077
478.0331	0.0089
478.2336	0.003
478.4341	0.0043
478.6346	-0.0032
478.8351	-0.0004
479.0355	0.0134
479.236	0.0132
479.4364	0.0025
479.6368	0.01
479.8372	0.0084
480.0376	0.0083
480.2379	0.0024
480.4383	0.0143
480.6386	-0.0047
480.8389	0.0039
481.0392	0.0057
481.2395	0.013
481.4398	0.0088
481.6401	0.0066
481.8403	0.001
482.0405	0.0072
482.2408	0.0085
482.441	0.0108
482.6411	0.0038
482.8413	0.0068
483.0415	0.0093
483.2416	0.0079
483.4417	0.0067
483.6419	-0.0006
483.8419	0.0048
484.042	0.0024
484.2421	-0.0005
484.4422	0.0055
484.6422	0.0051
484.8422	0.0061
485.0422	0.0049
485.2422	0.0028
485.4422	0.0025
485.6422	0.0031
485.8421	0.0074
486.042	0.0088
486.242	0.0006
486.4419	0.0072
486.6417	0.0074
486.8416	0.0081
487.0415	0.003
487.2413	0.0011
487.4411	0.0119
487.641	-0
487.8408	0.0103
488.0405	0.0075
488.2403	0.0039
488.4401	0.0046
488.6398	0.0095
488.8395	0.0105
489.0392	0.0003
489.2389	0.0054
489.4386	-0.0067
489.6383	0.0157
489.8379	-0.0003
490.0376	0.0055
490.2372	0.0035
490.4368	0.0081
490.6364	-0.0088
490.836	0.0066
491.0355	-0.0084
491.2351	0.006
491.4346	0.0061
491.6341	0.0028
491.8336	0.0104
492.0331	0.0027
492.2326	0.0069
492.432	0.0096
492.6315	0.012
492.8309	0.0114
493.0303	0.0038
493.2297	0.0106
493.4291	0.0035
493.6284	0.0102
493.8278	0.0041
494.0271	0.0125
494.2264	0.0067
494.4257	0.0058
494.625	0.0007
494.8243	0.0034
495.0236	0.0068
495.2228	0.0164
495.422	0.009
495.6213	0.0096
495.8205	0.004
496.0196	0.0043
496.2188	0.0045
496.418	0.0052
496.6171	0.0013
496.8162	0.0065
497.0153	0.0078
497.2144	0.0116
497.4135	-0.0032
497.6126	0.0008
497.8116	0.001
498.0107	0.005
498.2097	0.0026
498.4087	0.0039
498.6077	0.0017
498.8067	0.0076
499.0056	-0.0011
499.2046	0.006
499.4035	0.0009
499.6024	-0.0019
499.8013	0.0171
500.0002	0.003
500.199	0.0152
500.3979	-0.001
500.5967	0.0099
500.7956	0.0039
500.9944	0.0044
501.1932	0.0133
501.3919	0.0118
501.5907	0.0064
501.7895	0.0024
501.9882	-0.0024
502.1869	0.014
502.3856	-0.0004
502.5843	0.0076
502.783	0.0042
502.9816	0.0068
503.1803	0.0008
503.3789	0.0109
503.5775	0.0042
503.7761	-0.0022
503.9747	0.0088
504.1732	-0.0045
504.3718	0.0215
504.5703	0.0068
504.7689	-0.0024
504.9674	0.0034
505.1658	-0.0027
505.3643	0.0092
505.5628	0.0063
505.7612	0.0102
505.9597	-0.0113
506.1581	0.0011
506.3565	0.0096
506.5549	0.0006
506.7532	0.0004
506.9516	0.0084
507.1499	0.0041
507.3482	0.0022
507.5465	0.0091
507.7448	0.0058
507.9431	0.0132
508.1414	0.0029
508.3396	0.0047
508.5379	-0.0054
508.7361	0.0058
508.9343	0.0088
509.1325	0.0105
509.3306	-0.0004
509.5288	-0.0088
509.7269	0.0127
509.9251	0.0089
510.1232	0.0137
510.3213	0.0112
510.5193	0.0053
510.7174	0
510.9154	0.0134
511.1135	0.006
511.3115	0.0035
511.5095	0.0076
511.7075	0.0036
511.9055	0.006
512.1034	0.0061
512.3014	0.0063
512.4993	0.0025
512.6972	0.0056
512.8951	0.0084
513.093	0.0068
513.2908	0.0114
513.4887	0.0038
513.6865	0.0052
513.8844	0.0126
514.0822	-0.0021
514.2799	0.0026
514.4777	-0.0002
514.6755	0.0052
514.8732	-0.0056
515.0709	0.0118
515.2687	0.0137
515.4664	0.0199
515.664	0.0034
515.8617	0.0156
516.0594	0.0026
516.257	0.0095
516.4546	0.0166
516.6522	0.0091
516.8498	0.0011
517.0474	-0.0019
517.2449	0.0059
517.4425	0.009
517.64	0.0149
517.8375	0.0074
518.035	0.002
518.2325	-0.0093
518.43	0.0065
518.6274	0.0165
518.8249	-0.0017
519.0223	0.0158
519.2197	0
519.4171	-0.0007
519.6145	0.0091
519.8118	0.0029
520.0092	-0.0017
520.2065	0.0163
520.4038	-0.0006
520.6011	0.0139
520.7984	0.0141
520.9956	0.0051
521.1929	0.0094
521.3901	0.012
521.5874	0.0177
521.7846	-0.0011
521.9818	-0.0041
522.1789	-0
522.3761	0.0124
522.5732	0.0093
522.7704	-0.0027
522.9675	0.0004
523.1646	-0
523.3617	0.0116
523.5587	0.01
523.7558	0.0048
523.9528	0.0079
524.1498	-0.0022
524.3468	0.0038
524.5438	0.0078
524.7408	-0
524.9378	0.0053
525.1347	0.0105
525.3316	0.0037
525.5285	-0.0047
525.7254	0.0132
525.9223	0.0118
526.1192	0.0073
526.316	0.0099
526.5129	0.0025
526.7097	-0.0031
526.9065	0.0113
527.1033	0.0039
527.3	0.0043
527.4968	0.0034
527.6935	-0.0005
527.8903	0.0055
528.087	0.0064
528.2837	0.0152
528.4804	0.0021
528.677	0.0007
528.8737	-0.0067
529.0703	0.0015
529.2669	0.0031
529.4635	-0.0065
529.6601	-0.0041
529.8567	0.0057
530.0532	0.0087
530.2498	0.0041
530.4463	-0.0058
530.6428	0.0025
530.8393	0.0163
531.0358	-0.0037
531.2322	0.0094
531.4287	0.0078
531.6251	-0.0093
531.8215	-0.0008
532.0179	0.0053
532.2143	0.0091
532.4107	0.0131
532.607	-0.0072
532.8034	0.0037
532.9997	0.0044
533.196	0.0065
533.3923	0.0097
533.5886	0.0075
533.7848	0.0071
533.9811	0.0073
534.1773	0.0012
534.3735	0.0083
534.5697	0.0063
534.7659	0.0071
534.9621	0.014
535.1582	0.0086
535.3544	0.0087
535.5505	0.0112
535.7466	0.0065
535.9427	-0.0015
536.1387	-0.0072
536.3348	0.0135
536.5308	0.0136
536.7269	-0.004
536.9229	-0.0062
537.1189	0.0104
537.3148	-0.0025
537.5108	0.0092
537.7068	0.0133
537.9027	-0.0015
538.0986	0.0134
538.2945	0.0053
538.4904	-0.0083
538.6863	0.0042
538.8821	0.0107
539.078	0.0048
539.2738	0.0038
539.4696	0.0008
539.6654	-0.0028
539.8611	0.0036
540.0569	0.0036
540.2526	0.0049
540.4484	-0.0067
540.6441	0.0052
540.8398	0.0166
541.0355	0.0008
541.2311	0.007
541.4268	0.0083
541.6224	0.017
541.818	0.0065
542.0136	0.01
542.2092	0.0149
542.4048	0.0047
542.6003	-0.0011
542.7959	0.0081
542.9914	0.0025
543.1869	0.0004
543.3824	0.0044
543.5779	0.0156
543.7734	0.0167
543.9688	0.0117
544.1642	0.0047
544.3596	0.0132
544.555	0
544.7504	0.0088
544.9458	0.0028
545.1411	0.0042
545.3365	0.0125
545.5318	0.0037
545.7271	0.0141
545.9224	0.0103
546.1177	0.0082
546.3129	0.0099
546.5081	-0.0024
546.7034	0.0037
546.8986	0.0076
547.0938	0.0119
547.289	0.0068
547.4841	0.0065
547.6793	0.0011
547.8744	0.0094
548.0695	0.0016
548.2646	0.0151
548.4597	0.005
548.6548	0.0037
548.8498	0.0116
549.0448	0.0017
549.2399	0.017
549.4349	0.0044
549.6298	0.0016
549.8248	-0.0059
550.0198	0.0189
550.2147	0.0033
550.4096	-0.0006
550.6045	-0.0036
550.7994	0.0117
550.9943	0.0037
551.1892	-0.0007
551.384	0.0139
551.5788	0.0056
551.7737	0.0081
551.9685	0.01
552.1632	-0.0034
552.358	-0.0007
552.5528	0.0054
552.7475	0.0121
552.9422	0.0124
553.1369	0.0121
553.3316	0.0099
553.5263	0.0056
553.7209	-0.0006
553.9156	0.0041
554.1102	0.0071
554.3048	-0.0007
554.4994	0.0016
554.694	0.0016
554.8885	-0.0007
555.0831	0.0083
555.2776	0.0047
555.4721	0.0141
555.6666	0.0068
555.8611	0.008
556.0555	0.0058
556.25	0.0058
556.4444	-0.0013
556.6388	0.0016
556.8332	0.0034
557.0276	0.0056
557.222	0.0004
557.4163	-0.0026
557.6107	0.0064
557.805	-0.0054
557.9993	0.0079
558.1936	0.0006
558.3879	0.0038
558.5821	-0.0011
558.7764	0.0009
558.9706	0.0044
559.1648	0.0003
559.359	-0.0001
559.5532	0.0064
559.7473	-0.0089
559.9415	0.0057
560.1356	0.0168
560.3297	0.004
560.5238	0.0097
560.7179	0.0026
560.9119	0.0034
561.106	-0.0065
561.3	0.0021
561.494	-0.0115
561.688	0.0004
561.882	-0.0022
562.076	0.0075
562.2699	0.0113
562.4639	0.0175
562.6578	0.0093
562.8517	0.0053
563.0456	0.0037
563.2395	0.0063
563.4333	0.009
563.6272	-0.0006
563.821	0.0037
564.0148	0.0073
564.2086	0.0058
564.4024	0.0045
564.5961	0.0116
564.7899	0.0196
564.9836	0.0112
565.1773	0.0036
565.371	-0.0018
565.5647	0.0013
565.7584	0.0109
565.952	0.0092
566.1456	0.0028
566.3393	0.0171
566.5329	0.0063
566.7264	0.0015
566.92	0.005
567.1136	0.0002
567.3071	0.0018
567.5006	0.0054
567.6941	0.0026
567.8876	0.0055
568.0811	0.0245
568.2745	-0.0011
568.468	0.0088
568.6614	0.0087
568.8548	0.0043
569.0482	0.0109
569.2416	0.0035
569.4349	0.005
569.6283	0.0024
569.8216	0.009
570.0149	0.005
570.2082	0.011
570.4015	0.004
570.5947	0.0054
570.788	0.0078
570.9812	0.0013
571.1744	0.0056
571.3676	0.0026
571.5608	0.0068
571.754	0.0144
571.9471	0.0044
572.1402	0.0036
572.3333	0.0038
572.5264	0.0007
572.7195	0.0014
572.9126	0.0037
573.1057	0.0065
573.2987	0.004
573.4917	0.0008
573.6847	0.0037
573.8777	0.0067
574.0707	0.0064
574.2636	0.0042
574.4566	0.0002
574.6495	0.0006
574.8424	0.0053
575.0353	0.008
575.2281	0.0122
575.421	0.003
575.6138	0.0026
575.8067	0.0058
575.9995	0.0036
576.1923	0.0051
576.385	0.0049
576.5778	0.0082
576.7706	0.0049
576.9633	0.0103
577.156	0.0001
577.3487	0.0023
577.5414	0.0044
577.734	0.0017
577.9267	0.0066
578.1193	0.0065
578.3119	0.0019
578.5045	0.0043
578.6971	-0.0016
578.8897	0.0035
579.0822	0.0066
579.2747	0.0004
579.4673	0.0011
579.6598	0.0081
579.8522	0.0018
580.0447	0.0066
580.2372	0.0106
580.4296	0.007
580.622	0.0031
580.8144	0.0059
581.0068	0.0046
581.1992	0.0052
581.3915	-0
581.5839	0.0077
581.7762	0.0025
581.9685	0.0039
582.1608	0.0053
582.353	0.0023
582.5453	0.0053
582.7375	0.0062
582.9298	-0.0024
583.122	0.002
583.3142	0.0077
583.5063	0.0065
583.6985	-0.0004
583.8906	0.002
584.0827	0.0068
584.2749	0.0032
584.4669	0.0023
584.659	0.0066
584.8511	0.0112
585.0431	0.0045
585.2352	0.0062
585.4272	0.0075
585.6192	0.0086
585.8111	0.0039
586.0031	0.0015
586.195	0.0051
586.387	0.0016
586.5789	0.0103
586.7708	0.0063
586.9627	0.0041
587.1545	0.0082
587.3464	0.0058
587.5382	0.0065
587.73	0.0089
587.9218	0.0035
588.1136	0.0007
588.3053	0.0049
588.4971	0.005
588.6888	0.0041
588.8805	-0.004
589.0722	0.0122
589.2639	0.0019
589.4556	0.0076
589.6472	0.0052
589.8389	0.0083
590.0305	0.0021
590.2221	0.0053
590.4137	-0.0027
590.6052	0.0038
590.7968	0.0087
590.9883	0.0007
591.1798	0.0054
591.3713	0.0058
591.5628	0.0033
591.7543	-0.001
591.9458	0.0026
592.1372	0.0019
592.3286	0.0032
592.52	0.0013
592.7114	0.0057
592.9028	0.0089
593.0941	0.0028
593.2855	0.0053
593.4768	0.0095
593.6681	0.0062
593.8594	0.0098
594.0506	0.0042
594.2419	0.0026
594.4331	0.0022
594.6244	-0.0018
594.8156	0.0028
595.0067	0.0041
595.1979	0.0005
595.3891	0.0025
595.5802	0.0155
595.7713	0.0083
595.9624	0.0099
596.1535	-0.0006
596.3446	-0.0046
596.5357	0.0131
596.7267	0.0058
596.9177	0.0022
597.1087	0.0061
597.2997	0.0108
597.4907	0.0001
597.6817	0.0098
597.8726	0.0071
598.0635	0
598.2544	0.007
598.4453	0.0073
598.6362	0.0005
598.827	0.0021
599.0179	0.0056
599.2087	0.0107
599.3995	0.0068
599.5903	0.0065
599.7811	0.0106
599.9718	0.0011
600.1626	0.0065
600.3533	0.002
600.544	-0.0011
600.7347	0.0074
600.9254	0.0109
601.116	0.001
601.3067	0.002
601.4973	0.0059
601.6879	0.0079
601.8785	0.0065
602.0691	0.0006
602.2596	0.006
602.4502	0.0089
602.6407	0.006
602.8312	0.0033
603.0217	0.0051
603.2122	0.003
603.4027	0.005
603.5931	-0.0006
603.7835	0.0096
603.9739	0.003
604.1643	0.014
604.3547	0.0105
604.5451	0.0105
604.7354	0.0001
604.9257	0.0011
605.116	-0.0011
605.3063	0.006
605.4966	-0.0022
605.6869	0.0082
605.8771	0.0118
606.0673	0.0077
606.2575	0.0073
606.4477	0.0099
606.6379	-0.0039
606.8281	0.0083
607.0182	0.0071
607.2083	0.0116
607.3985	0.0017
607.5885	0.0023
607.7786	0.0079
607.9687	0.0056
608.1587	0.0098
608.3488	0.0077
608.5388	-0.0012
608.7288	0.0045
608.9187	0.0063
609.1087	0.0047
609.2986	0.01
609.4886	-0.0006
609.6785	0.0077
609.8684	0.0018
610.0582	-0.0015
610.2481	-0.0023
610.4379	0.0061
610.6278	0.0061
610.8176	0.0086
611.0074	0.01
611.1971	0.0065
611.3869	0.0068
611.5766	-0.0025
611.7664	0.0101
611.9561	0.0088
612.1458	0.007
612.3354	0.0017
612.5251	0.0028
612.7147	0.0049
612.9044	-0.0006
613.094	0.0073
613.2836	0.003
613.4731	0.0007
613.6627	0.0109
613.8522	0.0178
614.0417	0.0103
614.2313	0.0097
614.4207	0.0006
614.6102	0.0094
614.7997	0.01
614.9891	0.0014
615.1785	0.0022
615.3679	0.0115
615.5573	0.0035
615.7467	-0.0054
615.9361	0.0014
616.1254	0.0098
616.3147	-0.0005
616.504	0.0115
616.6933	0.0046
616.8826	-0.0041
617.0718	0.0108
617.2611	-0.0013
617.4503	-0.0004
617.6395	0.0118
617.8287	0.0114
618.0179	0.0048
618.207	0.0106
618.3961	0.0012
618.5853	0.0026
618.7744	0.0081
618.9634	0.0104
619.1525	0.0034
619.3416	0.0009
619.5306	0.009
619.7196	0.0083
619.9086	0.0013
620.0976	-0.0102
620.2866	-0.0015
620.4755	-0.006
620.6645	0.0112
620.8534	0.0079
621.0423	0.0006
621.2312	0.0021
621.42	0.0081
621.6089	0.0056
621.7977	0.0075
621.9865	0.002
622.1753	-0.0079
622.3641	-0.0003
622.5529	-0
622.7416	-0.0013
622.9303	-0.0045
623.1191	0.011
623.3078	0.0062
623.4964	0.0116
623.6851	0.0022
623.8737	0.0026
624.0624	-0.0098
624.251	0.0012
624.4396	0.0097
624.6282	0.0132
624.8167	0.0038
625.0053	0.0022
625.1938	0.0057
625.3823	0.0133
625.5708	-0.0036
625.7593	-0.0046
625.9477	0.0213
626.1362	0.0077
626.3246	0.0041
626.513	0.0132
626.7014	0.006
626.8898	0.0149
627.0781	0.0117
627.2665	0.0078
627.4548	-0.0092
627.6431	0.012
627.8314	0.0148
628.0197	0.0072
628.2079	0.0035
628.3962	0.0119
628.5844	0.0068
628.7726	0.0028
628.9608	0.0095
629.1489	0.0123
629.3371	0.0032
629.5252	0.0083
629.7134	-0.002
629.9015	0.0089
630.0895	-0.0046
630.2776	0.0045
630.4657	0.0152
630.6537	0.0057
630.8417	-0.0154
631.0297	0.0085
631.2177	-0.0018
631.4057	0.0049
631.5936	0.0063
631.7815	0.0018
631.9695	0.0113
632.1574	0.0028
632.3452	0.0024
632.5331	0.0153
632.7209	0.0093
632.9088	-0.0088
633.0966	0.028
633.2844	0.0022
633.4722	0.0074
633.6599	0.0233
633.8477	0.0114
634.0354	0.0025
634.2231	-0.0184
634.4108	-0.009
634.5985	0.0178
634.7861	0.0003
634.9738	0.0069
635.1614	-0.0032
635.349	-0.0012
635.5366	0.0063
635.7242	0.0192
635.9117	0.0029
636.0993	0.0073
636.2868	0.0097
636.4743	0.0089
636.6618	0.0007
636.8492	0.0181
637.0367	0.0054
637.2241	0.0055
637.4115	0.0377
637.5989	-0.0043
637.7863	0.0369
637.9737	0.0067
638.161	0.0002
638.3484	-0.0098
638.5357	0.0196
638.723	0.0196
638.9103	-0.0088
639.0975	-0.0001
639.2848	0.0031
639.472	0.013
639.6592	-0.0014
639.8464	-0.0113
640.0336	0.0223
640.2208	0.0046
640.4079	0.0017
640.595	-0.0054
640.7821	0.0211
640.9692	-0.0073
641.1563	0.0035
641.3434	0.0019
641.5304	0.0196
641.7174	0.017
641.9044	0.0021
642.0914	0.0143
642.2784	0.0097
642.4653	0.0084
642.6523	0.0025
642.8392	-0.0115
643.0261	0.0146
643.213	0.0061
643.3999	0.0096
643.5867	-0.0027
643.7735	0.0008
643.9604	0.0024
644.1472	0.0045
644.3339	-0.0074
644.5207	0.0036
644.7075	-0.0015
644.8942	0.0111
645.0809	0.0121
645.2676	-0.025
645.4543	0.006
645.6409	0.0128
645.8276	0.0169
646.0142	0.0166
646.2008	0.0101
646.3874	-0.0121
646.574	0.001
646.7605	0.013
646.9471	0.0185
647.1336	-0.0361
647.3201	0.0011
647.5066	-0.0003
647.6931	-0.0074
647.8795	0.0072
648.0659	-0.0033
648.2524	0.0157
648.4388	0.0049
648.6252	0.0075
648.8115	0.0038
648.9979	0.0091
649.1842	0.0076
649.3705	0.0122
649.5568	-0.0274
649.7431	0.007
649.9294	-0.0098
650.1156	-0.0052
650.3018	0.0174
650.488	0.0009
650.6742	0.0138
650.8604	0.0124
651.0466	0.0085
651.2327	0.0058
651.4188	0.0021
651.6049	0.0069
651.791	0.008
651.9771	-0.0024
652.1632	0.0051
652.3492	-0.0026
652.5352	0.0156
652.7212	0.0048
652.9072	-0.0074
653.0932	0.0211
653.2791	0.0178
653.465	0.0049
653.651	0.0184
653.8369	-0.0022
654.0227	-0.0014
654.2086	-0.0039
654.3944	0.0158
654.5803	0.0026
654.7661	-0.0021
654.9519	-0.0037
655.1377	-0
655.3234	-0
655.5092	-0
655.6949	-0
655.8806	-0
656.0663	-0
656.2519	-0
656.4376	-0
656.6232	-0
656.8088	-0
656.9945	-0
657.18	-0
657.3656	-0
657.5511	-0
657.7367	-0
657.9222	-0
658.1077	-0
658.2932	-0
658.4786	-0
658.6641	-0
658.8495	-0
659.0349	-0
659.2203	-0
659.4057	-0
659.591	0.1403
659.7764	0.0245
659.9617	0.0084
660.147	0.0047
660.3323	-0.0125
660.5176	0.0019
660.7028	-0.0147
660.888	0.0031
661.0733	0.0063
661.2585	-0.0026
661.4436	0.0167
661.6288	0.0159
661.8139	-0.0021
661.9991	-0.0147
662.1842	-0.0098
662.3693	0.0059
662.5544	0.0022
662.7394	0.0167
662.9245	0.0107
663.1095	-0.0077
663.2945	-0.0071
663.4795	-0.0029
663.6644	-0.0245
663.8494	0.0027
664.0343	-0.0042
664.2193	-0.002
664.4042	-0.0006
664.589	0.0164
664.7739	-0.0157
664.9587	-0.0178
665.1436	-0.0141
665.3284	0.0154
665.5132	-0.0246
665.698	0.0179
665.8827	0.0109
666.0675	-0.011
666.2522	0.0073
666.4369	-0.0069
666.6216	0.0094
666.8063	0.0132
666.9909	-0.0029
667.1756	-0.0224
667.3602	-0.0159
667.5448	0.0018
667.7294	0.0021
667.9139	-0.0234
668.0985	0.021
668.283	-0.0099
668.4675	0.0058
668.652	0.026
668.8365	0.0069
669.0209	0.0037
669.2054	-0.0068
669.3898	-0.0024
669.5742	0.0276
669.7586	0.0271
669.943	0.0002
670.1273	-0.0196
670.3117	0.0179
670.496	0.0073
670.6803	0.01
670.8646	-0.019
671.0488	0.0245
671.2331	-0.0188
671.4173	0.015
671.6015	0.0015
671.7857	0.0078
671.9699	0.0037
672.1541	0.0006
672.3382	-0.0065
672.5223	0.0049
672.7064	-0.0154
672.8905	-0.0118
673.0746	0.0057
673.2587	0.0228
673.4427	-0.0025
673.6267	0.0174
673.8107	0.018
673.9947	0.01
674.1787	0.01
674.3626	0.0084
674.5465	0.0263
674.7304	-0.0085
674.9143	0.0002
675.0982	0.0105
675.2821	-0.0124
675.4659	-0.0183
675.6497	0.0135
675.8335	-0.0031
676.0173	0.0045
676.2011	-0.0007
676.3849	0.0059
676.5686	0.0163
676.7523	-0.0119
676.936	0.0109
677.1197	0.0065
677.3034	0.034
677.487	-0.0045
677.6706	0.0003
677.8542	0.0049
678.0378	0.0131
678.2214	-0.0074
678.405	0.0041
678.5885	0.0174
678.772	0.0162
678.9555	0.0035
679.139	0.0057
679.3225	0.0014
679.5059	-0.0047
679.6894	0.0117
679.8728	-0.0009
680.0562	0.0063
680.2395	-0.0179
680.4229	-0.0099
680.6062	-0.0047
680.7896	-0.0185
680.9729	0.0271
681.1562	-0.0176
681.3394	0.0031
681.5227	0.012
681.7059	0.0086
681.8891	-0.0219
682.0723	-0.0022
682.2555	-0.0109
682.4387	0.0179
682.6218	0.0357
682.805	0.0153
682.9881	0.0218
683.1712	0.0071
683.3542	0.0085
683.5373	-0.0098
683.7203	0.0084
683.9034	-0.0021
684.0864	-0.0024
684.2694	0.0154
684.4523	0.0001
684.6353	-0.0054
684.8182	0.0005
685.0011	0.0082
685.184	0.0283
685.3669	0.0299
685.5498	0.0008
685.7326	-0.0025
685.9154	0.0005
686.0982	0.0204
686.281	0.0071
686.4638	0.0101
686.6465	0.0148
686.8293	-0.0159
687.012	-0.0009
687.1947	0.0012
687.3774	0.0285
687.56	-0.01
687.7427	-0.0025
687.9253	-0.0074
688.1079	-0.0048
688.2905	-0.0079
688.4731	0.0059
688.6556	-0.0032
688.8382	-0.0254
689.0207	0.0014
689.2032	0.0263
689.3857	-0.0038
689.5681	-0.0073
689.7506	0.0206
689.933	-0.0141
690.1154	0.0122
690.2978	-0.0076
690.4802	0.0081
690.6626	-0.0026
690.8449	0.0171
691.0272	-0.0061
691.2095	-0.0168
691.3918	0.0152
691.5741	0.0103
691.7563	0.0008
691.9386	0.0233
692.1208	0.0103
692.303	-0.0061
692.4852	0.002
692.6673	0.0151
692.8495	0.0128
693.0316	0.01
693.2137	0.0105
693.3958	0.0151
693.5778	0.0139
693.7599	0.0048
693.9419	-0.0352
694.1239	0.0074
694.3059	0.0135
694.4879	0.0008
694.6699	-0.0176
694.8518	0.0261
695.0337	0.0215
695.2157	0.031
695.3975	-0.0143
695.5794	-0.0419
695.7613	0.0026
695.9431	-0.0084
696.1249	0.0313
696.3067	-0.0127
696.4885	0.0077
696.6703	-0.0141
696.852	0.0001
697.0337	0.0171
697.2154	0.0059
697.3971	0.0259
697.5788	0.0205
697.7605	-0.0185
697.9421	0.0169
698.1237	0.0073
698.3053	-0.0044
698.4869	-0.0099
698.6685	-0.0113
698.85	0.0094
699.0315	-0.0033
699.213	0.0205
699.3945	-0.0138
699.576	0.0008
699.7575	0.0207
699.9389	0.0088
700.1203	-0.001
700.3017	0.0041
700.4831	0.0289
700.6645	0.0116
700.8458	0.0034
701.0271	0.0218
701.2084	0.0105
701.3897	0.013
701.571	-0.0132
701.7523	0.035
701.9335	0.0073
702.1147	0.0169
702.2959	-0.0101
702.4771	-0.0037
702.6583	-0.0061
702.8394	-0.0279
703.0205	-0.0008
703.2016	0.0119
703.3827	-0.0175
703.5638	0.0051
703.7449	0.0349
703.9259	0.0186
704.1069	-0.0059
704.2879	0.0069
704.4689	0.0011
704.6499	0.0165
704.8308	0.0077
705.0117	-0.0033
705.1927	0.0112
705.3735	0.0199
705.5544	0.0061
705.7353	0.0065
705.9161	-0.0332
706.0969	0.003
706.2777	-0.0033
706.4585	0.0166
706.6393	-0.0012
706.82	0.0237
707.0007	-0.0153
707.1815	-0.0141
707.3621	0.0198
707.5428	0.0115
707.7235	0.0117
707.9041	0.0135
708.0847	0.0012
708.2653	0.0075
708.4459	0.0128
708.6265	-0.0085
708.807	0.0298
708.9875	-0.0236
709.168	-0.01
709.3485	0.0022
709.529	-0.0026
709.7095	-0.0083
709.8899	-0.0079
710.0703	0.015
710.2507	-0.0198
710.4311	-0.0295
710.6115	0.0316
710.7918	0.0353
710.9721	0.0037
711.1524	-0.0151
711.3327	-0.0049
711.513	-0.0321
711.6932	-0.0006
711.8735	0.0324
712.0537	-0.003
712.2339	0.0055
712.4141	0.0364
712.5942	-0.0239
712.7744	0.031
712.9545	0.0128
713.1346	0.0401
713.3147	-0.0074
713.4947	-0.0072
713.6748	0.0174
713.8548	0.0122
714.0348	-0.0044
714.2148	-0.0035
714.3948	-0.0004
714.5748	0.0098
714.7547	-0.0027
714.9346	0.0258
715.1145	0.0089
715.2944	-0.0172
715.4743	0.0283
715.6541	-0.0174
715.834	0.0193
716.0138	0.0167
716.1936	0.0374
716.3733	0.0277
716.5531	-0.0197
716.7328	0.0177
716.9126	-0.0008
717.0923	-0.0274
717.2719	-0.0011
717.4516	0.0034
717.6312	-0.0165
717.8109	0.0335
717.9905	0.0158
718.1701	0.0147
718.3496	0.0006
718.5292	0.0063
718.7087	-0.002
718.8882	0.0156
719.0677	-0.006
719.2472	-0.0116
719.4267	-0.0009
719.6061	-0.0304
719.7856	0.0309
719.965	-0.0196
720.1443	0.0006
720.3237	0.0074
720.5031	0.0087
720.6824	0.0212
720.8617	0.012
721.041	0.0311
721.2203	-0.0102
721.3995	-0.0059
721.5788	0.0138
721.758	0.0023
721.9372	-0.0006
722.1164	0.0002
722.2956	-0.0063
722.4747	0.0117
722.6538	-0.0037
722.8329	0.0388
723.012	-0.0011
723.1911	0.0015
723.3702	0.0164
723.5492	0.0084
723.7282	0.0107
723.9072	0.0154
724.0862	-0.0082
724.2652	0.0111
724.4441	-0.0079
724.623	-0.0002
724.8019	-0.0204
724.9808	0.0215
725.1597	0.0091
725.3385	0.0012
725.5174	0.0277
725.6962	0.0172
725.875	0.0002
726.0538	-0.0081
726.2325	0.0116
726.4112	-0.0224
726.59	-0.0086
726.7687	-0.0076
726.9474	0.0121
727.126	0.0196
727.3047	-0.0122
727.4833	0.0063
727.6619	-0.0101
727.8405	-0.0043
728.0191	0.0287
728.1976	0.0062
728.3762	0.0093
728.5547	-0.0077
728.7332	0.0128
728.9116	0.0136
729.0901	0.0055
729.2686	0.0078
729.447	-0.013
729.6254	0.0191
729.8038	-0.0027
729.9821	-0.0162
730.1605	0.0165
730.3388	-0.0051
730.5171	0.0195
730.6954	-0.0065
730.8737	0.0159
731.0519	-0.0006
731.2302	0.0248
731.4084	-0.0056
731.5866	-0.0013
731.7648	0.0059
731.9429	0.0077
732.1211	-0.0127
732.2992	-0.0129
732.4773	-0.0077
732.6554	-0.0141
732.8335	0.014
733.0115	0.0062
733.1896	-0.0047
733.3676	0.0137
733.5456	0.0042
733.7235	0.0111
733.9015	0.0003
734.0794	0.0043
734.2574	-0.0393
734.4353	0.0066
734.6131	-0.0157
734.791	-0.0139
734.9689	-0.0055
735.1467	-0.0183
735.3245	0.0199
735.5023	0.0061
735.68	-0.0074
735.8578	0.0053
736.0355	0.0015
736.2132	0.0199
736.3909	0.023
736.5686	-0.0023
736.7463	-0.0131
736.9239	0.0168
737.1015	0.0118
737.2791	0.0037
737.4567	0.0308
737.6343	0.0041
737.8118	0.0109
737.9894	-0.0075
738.1669	-0.0018
738.3444	0.0295
738.5218	-0.0164
738.6993	0.0145
738.8767	-0.0029
739.0541	0.0011
739.2315	0.0063
739.4089	0.0231
739.5863	-0.0215
739.7636	-0.0036
739.9409	-0.0074
740.1182	0.0219
740.2955	0.0254
740.4728	-0.0109
740.65	-0.0299
740.8272	0.0281
741.0044	-0.0184
741.1816	0.0458
741.3588	-0.0449
741.5359	-0.0126
741.7131	0.0178
741.8902	0.0141
742.0673	-0.0076
742.2444	0.0058
742.4214	-0.014
742.5985	0.0198
742.7755	-0.0096
742.9525	-0.0186
743.1295	-0.0247
743.3064	0.0091
743.4834	0.0042
743.6603	0.0449
743.8372	-0.0483
744.0141	0.0135
744.191	0.0031
744.3678	-0.0439
744.5446	-0.0148
744.7215	0.0083
744.8982	0.0021
745.075	0.0679
745.2518	-0.0154
745.4285	0.0213
745.6052	-0.0301
745.7819	-0.0308
745.9586	0.0286
746.1353	-0.0058
746.3119	-0.0021
746.4885	0.0413
746.6651	-0.02
746.8417	-0.0098
747.0183	0.023
747.1948	-0.0113
747.3714	-0.0007
747.5479	0.029
747.7244	-0.0125
747.9008	-0.0156
748.0773	0.0484
748.2537	0.0003
748.4301	0.0216
748.6065	-0.0007
748.7829	-0.0261
748.9593	0.0079
749.1356	0.0074
749.3119	-0.003
749.4882	0.0067
749.6645	-0.0041
749.8408	-0.0043
750.017	0.0106
750.1933	-0.0197
750.3695	0.0008
750.5457	-0.0099
750.7218	-0.0077
750.898	-0.0259
751.0741	0.0234
751.2502	0.0076
751.4263	0.0008
751.6024	-0.0018
751.7784	-0.0044
751.9545	-0.006
752.1305	-0.004
752.3065	0.0258
752.4825	-0.0209
752.6584	0.0157
752.8344	-0.0046
753.0103	-0.0115
753.1862	0.003
753.3621	0.0015
753.5379	-0.0055
753.7138	-0.0002
753.8896	0.0023
754.0654	0.0031
754.2412	0.0047
754.417	0.0215
754.5927	0.0165
754.7685	0.0183
754.9442	0.0017
755.1199	0.0349
755.2956	0.0097
755.4712	0.0107
755.6469	0.001
755.8225	0.0198
755.9981	0.0076
756.1736	0.0058
756.3492	-0.0045
756.5248	0.0238
756.7003	-0.0257
756.8758	-0.0048
757.0513	0.0066
757.2267	-0.0028
757.4022	-0.0011
757.5776	0.0041
757.753	0.0158
757.9284	0.0121
758.1038	0.0017
758.2791	0.0188
758.4545	-0.0199
758.6298	0.0015
758.8051	0.0069
758.9803	0.0151
759.1556	-0.0129
759.3308	-0.0206
759.506	-0.0129
759.6812	0.0077
759.8564	-0.0127
760.0316	-0.0124
760.2067	0.0146
760.3819	0.0064
760.557	0.0005
760.732	-0.0088
760.9071	0.0125
761.0821	-0.025
761.2572	0.0082
761.4322	0.014
761.6072	0.0005
761.7821	-0.0234
761.9571	0.0045
762.132	0.0237
762.3069	0.0281
762.4818	0.0232
762.6567	-0.0074
762.8316	0.0189
763.0064	0.0161
763.1812	0.0048
763.356	-0.015
763.5308	-0.0008
763.7055	0.0071
763.8803	-0.0291
764.055	-0.0062
764.2297	-0.0006
764.4044	0.0113
764.579	0.0038
764.7537	0.0094
764.9283	0.014
765.1029	-0.0087
765.2775	0.0085
765.4521	-0.0013
765.6266	0.0002
765.8011	0.0084
765.9756	0.0304
766.1501	-0.0127
766.3246	0.0202
766.4991	0.0114
766.6735	0.029
766.8479	0.03
767.0223	0.0192
767.1967	-0.0255
767.371	-0.0028
767.5454	0.0121
767.7197	0.0285
767.894	0.0075
768.0683	-0.0066
768.2425	-0.0054
768.4168	0.0147
768.591	0.0276
768.7652	0.0179
768.9394	-0.0249
769.1135	-0.0155
769.2877	0.0006
769.4618	0.0309
769.6359	-0.0218
769.81	0.0152
769.984	0.0143
770.1581	-0.0032
770.3321	0.0293
770.5061	-0.0069
770.6801	-0.0041
770.8541	0.0117
771.028	0.0345
771.202	0.0375
771.3759	0.0123
771.5498	-0.0044
771.7236	0.0102
771.8975	0.0236
772.0713	0.0076
772.2451	0.0106
772.4189	-0.006
772.5927	-0.0372
772.7665	-0.0212
772.9402	0.0071
773.1139	0.0154
773.2876	0.0058
773.4613	-0.0222
773.635	0.037
773.8086	0.033
773.9822	0.0218
774.1558	0.0313
774.3294	0.0292
774.503	0.0087
774.6765	0.0365
774.8501	-0.0157
775.0236	0.0011
775.1971	-0.0117
775.3705	-0.0172
775.544	-0.0747
775.7174	0.0129
775.8908	0.0119
776.0642	0.0079
776.2376	-0.0004
776.4109	0.027
776.5843	-0.0276
776.7576	0.0375
776.9309	0.0361
777.1041	-0.037
777.2774	0.0421
777.4506	-0.0294
777.6238	-0.0268
777.797	0.006
777.9702	-0.0183
778.1434	-0.0089
778.3165	-0.0266
778.4896	-0.0215
778.6627	0.0093
778.8358	0.0032
779.0089	-0.0315
779.1819	0.0117
779.3549	0.0114
779.5279	-0.0316
779.7009	0.043
779.8739	0.0244
780.0468	-0.008
780.2197	0.0159
780.3926	-0.0201
780.5655	0.022
780.7384	0.0039
780.9112	0.0238
781.0841	0.0115
781.2569	0.0172
781.4297	0.0122
781.6024	0.0011
781.7752	0.0412
781.9479	0.033
782.1206	0.017
782.2933	0.0153
782.466	0.0165
782.6386	0.0026
782.8113	-0.0256
782.9839	-0.0159
783.1565	0.0206
783.329	-0.0111
783.5016	-0.0037
783.6741	-0.0106
783.8466	0.0274
784.0191	0.0024
784.1916	-0.0323
784.3641	-0.0646
784.5365	0.047
784.7089	-0.0263
784.8813	0.0667
785.0537	0.0257
785.2261	-0.0062
785.3984	0.023
785.5707	-0.0113
785.743	-0.0108
785.9153	-0.0135
786.0876	-0.0298
786.2598	-0.025
786.432	0.032
786.6042	0.0423
786.7764	-0.0091
786.9486	-0.0092
787.1207	0.039
787.2928	-0.0036
787.4649	0.0029
787.637	0.0033
787.8091	-0.0214
787.9811	0.0573
788.1532	-0.0121
788.3252	-0.0026
788.4972	-0.0052
788.6691	-0.0055
788.8411	0.01
789.013	0.0452
789.1849	-0.0225
789.3568	0.0148
789.5287	0.0406
789.7005	0.0268
789.8723	-0.0277
790.0442	-0.0642
790.2159	-0.0157
790.3877	0.0158
790.5595	0.0547
790.7312	0.0055
790.9029	0.0215
791.0746	0.0348
791.2463	-0.004
791.4179	0.0037
791.5896	-0.0488
791.7612	0.0035
791.9328	-0.041
792.1044	-0.0028
792.2759	-0.02
792.4474	0.0124
792.619	0.0251
792.7905	0.075
792.9619	0.0569
793.1334	0.0689
793.3048	0.0996
793.4762	0.0391
793.6476	0.0012
793.819	-0.0179
793.9904	-0.0003
794.1617	-0.0168
794.333	0.0091
794.5043	0.022
794.6756	-0.0037
794.8469	0.0267
795.0181	-0.0103
795.1893	0.0497
795.3605	0.0307
795.5317	-0.0145
795.7029	0.0318
795.874	-0.0178
796.0452	0.0388
796.2163	0.0332
796.3873	0.1014
796.5584	0.1289
796.7294	-0.0007
796.9005	0.0295
797.0715	-0.0117
797.2425	0.0373
797.4134	0.0569
797.5844	-0.014
797.7553	-0.1268
797.9262	0.0294
798.0971	-0.0067
798.2679	0.023
798.4388	0.0346
798.6096	-0.0007
798.7804	0.0442
798.9512	0.0148
799.122	0.011
799.2927	0.0737
799.4635	-0.0266
799.6342	-0.0143
799.8049	0.0382
799.9755	-0.0321
800.1462	0.009
800.3168	-0.0085
800.4874	-0.0615
800.658	0.0138
800.8286	0.0182
800.9991	0.0914
801.1696	-0.0108
801.3402	-0.1023
801.5106	-0.0864
801.6811	-0.0233
801.8516	0.0683
802.022	0.0343
802.1924	-0.0718
802.3628	-0.022
802.5332	0.0854
802.7035	0.0749
802.8739	-0.0199
803.0442	-0.0245
803.2145	0.0699
803.3847	-0.0292
803.555	0.0206
803.7252	-0.0366
803.8954	-0.0278
804.0656	0.095
804.2358	0.0101
804.4059	0.0482
804.5761	-0.0028
804.7462	0.0078
804.9163	-0.007
805.0864	0.0353
805.2564	-0.0558
805.4264	-0.072
805.5965	0.0165
805.7665	-0.0495
805.9364	0.0039
806.1064	-0.0386
806.2763	0.0129
806.4462	0.0302
806.6161	-0.0142
806.786	0.0025
806.9559	-0.0577
807.1257	-0.0005
807.2955	-0.0351
807.4653	-0.0349
807.6351	0.0581
807.8048	-0.0322
807.9746	0.0302
808.1443	0.0215
808.314	0.0149
808.4837	0.0522
808.6533	0.0135
808.8229	-0.0089
808.9926	-0.0383
809.1622	0.0463
809.3317	0.0009
809.5013	-0.0525
809.6708	-0.0553
809.8403	0.1108
810.0098	0.0117
810.1793	0.0475
810.3488	-0.0216
810.5182	0.1459
810.6876	-0.0235
810.857	0.0429
811.0264	-0.0577
811.1958	0.1368
811.3651	-0.0285
811.5344	0.0918
811.7037	0.0402
811.873	0.0127
812.0422	-0.1606
812.2115	-0.026
812.3807	-0.0893
812.5499	-0.1023
812.7191	-0.0846
812.8882	-0.1395
813.0574	0.0367
813.2265	-0.0014
813.3956	0.0662
813.5646	0.0647
813.7337	-0.0319
813.9027	-0.0863
814.0718	0.039
814.2407	0.1556
814.4097	0.0176
814.5787	0.0709
814.7476	0.0037
814.9165	-0.0053
815.0854	0.0144
815.2543	0.0922
815.4232	0.0216
815.592	0.0784
815.7608	-0.0404
815.9296	-0.12
816.0984	0.0873
816.2671	-0.0563
816.4359	0.1478
816.6046	-0.0164
816.7733	-0.0681
816.942	-0.0346
817.1106	0.0549
817.2793	-0.1124
817.4479	-0.0035
817.6165	0.0401
817.785	-0.0209
817.9536	-0.0732
818.1221	0.0422
818.2906	-0.2241
818.4591	0.0263
818.6276	-0.0583
818.7961	-0.0202
818.9645	-0.0063
819.1329	0.0418
819.3013	-0.0927
819.4697	0.1443
819.638	0.045
819.8064	0.0016
819.9747	0.1178
820.143	-0.1128
820.3113	-0.0838
820.4795	0.0296
820.6477	0.1783
820.816	-0.0294
820.9842	0.1283
821.1523	0.0998
821.3205	-0.007
821.4886	0.0031
821.6567	-0.0779
821.8248	0.0729
821.9929	-0.1581
822.1609	0.0869
822.329	-0.0568
822.497	0.0735
822.665	0.0283
822.833	0.0212
823.0009	-0.0322
823.1688	0.1355
823.3367	0.0497
823.5046	0.0384
823.6725	-0.0681
823.8404	0.3329
824.0082	-0.0386
824.176	-0.2531
824.3438	0.2346
824.5116	0.0491
824.6793	0.1023
824.847	-0.0254
825.0147	-0.0187
825.1824	0.1369
825.3501	0.1173
825.5177	-0.1062
825.6854	-0.1867
825.853	-0.0478
826.0206	-0.0773
826.1881	0.095
826.3557	-0.0486
826.5232	0.0743
826.6907	0.033
826.8582	-0.1007
827.0257	0.1444
827.1931	0.0701
827.3605	0.0421
827.528	-0.065
827.6953	-0.1248
827.8627	-0.0205
828.03	0.0114
828.1974	-0.0945
828.3647	0.0014
828.532	0.0984
828.6992	0.0755
828.8665	-0.1352
829.0337	0.1083
829.2009	-0.0322
829.3681	-0.0552
829.5352	-0.2701
829.7024	0.0839
829.8695	0.0174
830.0366	0.0718
830.2037	0.0013
830.3707	-0.0878
830.5378	0.0375
830.7048	-0.0204
830.8718	0.029
831.0388	0.1785
831.2057	1.6144
831.3727	-0.3928
831.5396	0.4597
831.7065	-1.0397
831.8734	0.0358
832.0402	0.0845
832.2071	-0.7291
832.3739	-0.166
832.5407	-1.8033
832.7075	-0.2539
832.8742	0.4131
833.041	-0.053
833.2077	0.3743
833.3744	-0.066
833.541	-0.0204
833.7077	0.1094
833.8743	0.0704
834.0409	0.0524
834.2075	0.1851
834.3741	-0.2109
834.5407	-0.1296
834.7072	0.1268
834.8737	0.0577
835.0402	0.1086
835.2067	-0.0975
835.3731	0.1203
835.5395	-0.134
835.706	-0.3254
835.8723	-0.1336
836.0387	0.0358
836.2051	0.1965
836.3714	0.0866
836.5377	0.0461
836.704	0.0355
836.8703	-0.3369
837.0365	-0.9269
837.2027	-0.0629
837.3689	0.1256
837.5351	-0.0674
837.7013	-0.1095
837.8674	-0.2999
838.0335	-0.0994
838.1997	0.2511
838.3657	-0
838.5318	-0.3927
838.6978	-0
838.8639	-0.2372
839.0299	-0.1416
839.1958	0.2348
839.3618	-0.1007
839.5277	0.0161
839.6937	-0.2205
839.8596	0.0887
840.0254	0.0988
840.1913	0.7796
840.3571	-0.2245
840.523	-0
840.6888	0.2457
840.8545	-0.6562
841.0203	-0.0131
841.186	0.0858
841.3517	0.0875
841.5174	0.1681
841.6831	-0.0032
841.8488	1.1015
842.0144	-0
842.18	0.21
842.3456	-0.7069
842.5112	-0
842.6767	-0.1319
842.8422	0.161
843.0077	-0.0779
843.1732	-0.1192
843.3387	0.8068
843.5042	0.4672
843.6696	0.672
843.835	-0.1778
844.0004	-0.3489
844.1657	-0
844.3311	-0.3993
844.4964	-0.7483
844.6617	0.5966
844.827	1.5746
844.9923	0.0767
845.1575	-0.2234
845.3227	-0.4147
845.4879	-0.3003
845.6531	-0.0308
845.8183	0.4449
845.9834	0.0539
846.1485	-0.0026
846.3136	0.0177
846.4787	-0.1161
846.6438	-0.09
846.8088	0.5571
846.9738	-0
847.1388	0.1617
847.3038	-0.0684
847.4687	0.7394
847.6337	-0
847.7986	0.3688
847.9635	0.051
848.1284	0.4454
848.2932	-0.0338
848.458	-0
848.6228	-0
848.7876	-0
848.9524	-0.3733
849.1172	-1.6335
849.2819	-0
849.4466	0.4384
849.6113	0.0947
849.7759	-0
849.9406	-0.2304
850.1052	-0.9789
850.2698	-0
850.4344	0.8451
850.599	-0.1641
850.7635	0.8538
850.928	0.0216
851.0925	0.3434
851.257	0.7289
851.4215	0.7013
851.5859	0.3971
851.7503	-0.0283
851.9147	0.3797
852.0791	0.0597
852.2434	0.1151
852.4078	-0
852.5721	0.1201
852.7364	0.2026
852.9007	-0.1802
853.0649	-0
853.2291	0.0546
853.3934	-0.0186
853.5575	0.3965
853.7217	0.2978
853.8859	-0
854.05	-0.4184
854.2141	0.1309
854.3782	-0.2264
854.5423	-0.2474
854.7063	-0.1896
854.8703	0.0968
855.0343	0.0799
855.1983	0.2152
855.3623	0.0396
855.5262	-0
855.6901	0.1217
855.854	-0.0029
856.0179	0.3239
856.1818	0.4166
856.3456	0.2902
856.5094	-0.5726
856.6732	-0.0221
856.837	-0.9319
857.0008	2.0128
857.1645	0.3336
857.3282	-0.4498
857.4919	-0.2145
857.6556	-0.2874
857.8192	-0.0845
857.9828	-0.3778
858.1465	-0
858.31	-0
858.4736	-0.4582
858.6372	0.9504
858.8007	-0.1431
858.9642	0.1964
859.1277	-0
859.2911	-0.6003
859.4546	-0
859.618	-0.0424
859.7814	-0
859.9448	-0.1797
860.1081	-0
860.2715	-0.5528
860.4348	0.4094
860.5981	0.1615
860.7614	-0.4424
860.9246	0.1098
861.0879	0.38
861.2511	-0
861.4143	-0
861.5774	-0.4161
861.7406	0.2894
861.9037	-0.9468
862.0668	-0.8839
862.2299	0.6059
862.393	-0
862.556	-0
862.7191	-0.5323
862.8821	0.0669
863.0451	0.1423
863.208	-0
863.371	-0.7573
863.5339	0.281
863.6968	0.5262
863.8597	-0
864.0225	-0.0498
864.1854	-0.2349
864.3482	-0.8685
864.511	0.0687
864.6737	-0
864.8365	-0.0906
864.9992	-0
865.1619	-0.2999
865.3246	-1.9814
865.4873	-0
865.65	1.2788
865.8126	-0.1213
865.9752	-0.3953
866.1378	0.1757
866.3004	-0.0075
866.4629	-0.5528
866.6254	-0.1147
866.7879	-0.1349
866.9504	1.0555
867.1129	0.8451
867.2753	0.3649
867.4377	0.2776
867.6001	-0
867.7625	0.8914
867.9249	0.1212
868.0872	0.1533
868.2495	-0
868.4118	-0
868.5741	-0.3236
868.7363	-0
868.8986	-0
869.0608	0.5356
869.223	-0.6001
869.3851	0.2773
869.5473	-0.2049
869.7094	1.1555
869.8715	-0
870.0336	0.0311
870.1957	-0.1581
870.3577	-0
870.5197	-0.0579
870.6817	-0.8635
870.8437	0.7796
871.0057	-0
871.1676	0.1759
871.3295	-0.3595
871.4914	-0
871.6533	0.2877
871.8151	0.3609
871.977	0.7036
872.1388	-0.4164
872.3006	0.781
872.4623	-1.0272
872.6241	-0
872.7858	-0.0341
872.9475	-0
873.1092	0.0053
873.2709	0.8507
873.4325	-2.0128
873.5941	-0
873.7557	0.5635
873.9173	-0.3077
874.0789	0.1541
874.2404	-0
874.4019	-0.0472
874.5634	-0
874.7249	-0
874.8863	0.9584
875.0478	-0.141
875.2092	1.0036
875.3706	0.8627
875.5319	-0
875.6933	0.5272
875.8546	-0
876.0159	-0
876.1772	-0.4968
876.3385	0.045
876.4997	0.1554
876.6609	-0.4204
876.8221	-0
876.9833	-0
877.1445	0.8373
877.3056	-0.7942
877.4667	-0
877.6278	-0
877.7889	-0
877.9499	-0.0443
878.111	-0.2846
878.272	-0.1706
878.433	-0.3271
878.5939	-0
878.7549	0.2883
878.9158	0.7378
879.0767	-0
879.2376	-0
879.3984	0.2615
879.5593	0.2789
879.7201	-1.3828
879.8809	-0.3254
880.0417	-0.3215
880.2024	0.2781
880.3632	-0.7563
880.5239	-0.4503
880.6846	-0.3903
880.8452	0.3804
881.0059	-1.0363
881.1665	0.1756
881.3271	0.7775
881.4877	0.138
881.6483	-1.2452
881.8088	-0
881.9693	-0
882.1298	-0
882.2903	-0
