Data from D4ACN5uM440nmA_Absorbance_13-50-26-722.txt Node
Date: Fri Feb 21 13:50:26 GMT 2025
User: LASERRRRR
Spectrometer: FLMT03099
Trigger mode: 0
Integration Time (sec): 1.500000E-2
Scans to average: 1
Electric dark correction enabled: true
Nonlinearity correction enabled: false
Boxcar width: 0
XAxis mode: Wavelengths
Number of Pixels in Spectrum: 3648
>>>>>Begin Spectral Data<<<<<
179.3399	-0
179.5586	-0
179.7771	-0
179.9957	0.1253
180.2143	-0
180.4329	0.827
180.6514	-0
180.8699	-0
181.0885	-0
181.307	0.1799
181.5255	0.1487
181.744	-0.3817
181.9625	0.3803
182.181	-0
182.3994	-0.9194
182.6179	-0.3068
182.8363	-0.0067
183.0547	-0.2247
183.2732	0.2809
183.4916	0.1768
183.71	0.1653
183.9284	0.3891
184.1467	0.2773
184.3651	0.0295
184.5835	0.2367
184.8018	0.3312
185.0201	0.312
185.2385	0.2569
185.4568	0.5469
185.6751	0.2622
185.8934	0.1422
186.1117	0.0038
186.3299	0.13
186.5482	0.3111
186.7664	0.317
186.9847	-0.0284
187.2029	0.0383
187.4211	0.1696
187.6393	0.2908
187.8575	0.5113
188.0757	0.4157
188.2939	0.0881
188.512	0.3336
188.7302	0.0128
188.9483	0.415
189.1665	0.5196
189.3846	0.235
189.6027	0.2403
189.8208	0.3389
190.0389	0.1537
190.257	0.0718
190.475	-0.0486
190.6931	0.0618
190.9111	0.0614
191.1292	0.2594
191.3472	0.3124
191.5652	0.4143
191.7832	0.3103
192.0012	0.1788
192.2192	0.1732
192.4371	0.1124
192.6551	0.18
192.873	0.1209
193.091	0.122
193.3089	0.2617
193.5268	0.1315
193.7447	0.2
193.9626	0.3125
194.1805	0.2793
194.3984	0.205
194.6162	0.2313
194.8341	0.3324
195.0519	0.3118
195.2697	0.243
195.4875	0.3519
195.7054	0.2502
195.9231	0.2665
196.1409	0.2968
196.3587	0.3534
196.5765	0.3894
196.7942	0.335
197.012	0.3556
197.2297	0.3447
197.4474	0.4309
197.6651	0.3706
197.8828	0.3734
198.1005	0.4896
198.3182	0.3943
198.5358	0.3981
198.7535	0.39
198.9711	0.391
199.1888	0.3878
199.4064	0.3894
199.624	0.3794
199.8416	0.363
200.0592	0.3695
200.2767	0.4114
200.4943	0.4099
200.7119	0.3965
200.9294	0.4399
201.1469	0.4318
201.3645	0.4193
201.582	0.3775
201.7995	0.4075
202.017	0.3979
202.2344	0.3988
202.4519	0.4112
202.6694	0.4203
202.8868	0.3953
203.1042	0.4359
203.3217	0.3934
203.5391	0.3624
203.7565	0.3655
203.9739	0.3889
204.1913	0.3577
204.4086	0.3641
204.626	0.3408
204.8433	0.3709
205.0607	0.3499
205.278	0.3502
205.4953	0.3521
205.7126	0.3481
205.9299	0.3215
206.1472	0.3461
206.3644	0.383
206.5817	0.3218
206.7989	0.3242
207.0162	0.3235
207.2334	0.3477
207.4506	0.3108
207.6678	0.3121
207.885	0.2849
208.1022	0.3044
208.3194	0.2988
208.5365	0.3031
208.7537	0.303
208.9708	0.3014
209.1879	0.2858
209.405	0.2662
209.6222	0.2871
209.8392	0.286
210.0563	0.2856
210.2734	0.2875
210.4905	0.2695
210.7075	0.2633
210.9245	0.2841
211.1416	0.2884
211.3586	0.2773
211.5756	0.2543
211.7926	0.2592
212.0096	0.2548
212.2265	0.254
212.4435	0.2605
212.6604	0.2426
212.8774	0.2535
213.0943	0.261
213.3112	0.2449
213.5281	0.2499
213.745	0.2572
213.9619	0.2538
214.1788	0.2547
214.3956	0.2487
214.6125	0.2517
214.8293	0.2558
215.0461	0.244
215.2629	0.2558
215.4798	0.2328
215.6965	0.2365
215.9133	0.2285
216.1301	0.2316
216.3469	0.2535
216.5636	0.238
216.7803	0.2446
216.9971	0.2556
217.2138	0.2441
217.4305	0.2407
217.6472	0.247
217.8639	0.2671
218.0805	0.2374
218.2972	0.2519
218.5138	0.2591
218.7305	0.259
218.9471	0.243
219.1637	0.2576
219.3803	0.2467
219.5969	0.2398
219.8135	0.2632
220.0301	0.2632
220.2466	0.256
220.4632	0.2606
220.6797	0.2581
220.8962	0.2566
221.1127	0.2675
221.3292	0.2663
221.5457	0.2706
221.7622	0.2627
221.9787	0.2904
222.1951	0.2682
222.4116	0.2689
222.628	0.2854
222.8444	0.2776
223.0608	0.2704
223.2772	0.2676
223.4936	0.2674
223.71	0.2905
223.9264	0.2778
224.1427	0.2811
224.3591	0.279
224.5754	0.2828
224.7917	0.3082
225.008	0.2909
225.2243	0.2961
225.4406	0.2886
225.6569	0.3013
225.8732	0.3273
226.0894	0.3035
226.3057	0.3076
226.5219	0.315
226.7381	0.3245
226.9543	0.3096
227.1705	0.314
227.3867	0.3226
227.6029	0.3249
227.8191	0.3334
228.0352	0.3357
228.2513	0.3517
228.4675	0.3381
228.6836	0.3339
228.8997	0.3404
229.1158	0.3563
229.3319	0.3565
229.548	0.3639
229.764	0.3547
229.9801	0.3779
230.1961	0.3548
230.4121	0.3669
230.6282	0.3786
230.8442	0.3906
231.0602	0.3816
231.2761	0.3839
231.4921	0.3944
231.7081	0.391
231.924	0.4033
232.14	0.4102
232.3559	0.4008
232.5718	0.4094
232.7877	0.415
233.0036	0.4151
233.2195	0.4145
233.4353	0.4143
233.6512	0.42
233.867	0.408
234.0829	0.4268
234.2987	0.4235
234.5145	0.4398
234.7303	0.4371
234.9461	0.4343
235.1619	0.4453
235.3776	0.4375
235.5934	0.4404
235.8091	0.4475
236.0249	0.4426
236.2406	0.4398
236.4563	0.4472
236.672	0.4442
236.8877	0.4524
237.1034	0.4409
237.319	0.4499
237.5347	0.4482
237.7503	0.4401
237.966	0.4549
238.1816	0.45
238.3972	0.4526
238.6128	0.4612
238.8284	0.4567
239.0439	0.461
239.2595	0.4699
239.475	0.4539
239.6906	0.455
239.9061	0.466
240.1216	0.4652
240.3371	0.4653
240.5526	0.4615
240.7681	0.46
240.9836	0.4554
241.199	0.4583
241.4145	0.4439
241.6299	0.4555
241.8453	0.4474
242.0607	0.4416
242.2761	0.4348
242.4915	0.4285
242.7069	0.4176
242.9223	0.4207
243.1376	0.4099
243.353	0.3978
243.5683	0.4006
243.7836	0.3884
243.9989	0.3842
244.2142	0.3787
244.4295	0.3722
244.6448	0.369
244.86	0.3546
245.0753	0.3532
245.2905	0.3485
245.5057	0.3509
245.721	0.3392
245.9362	0.3269
246.1514	0.3308
246.3665	0.3174
246.5817	0.3055
246.7969	0.2986
247.012	0.3012
247.2271	0.2996
247.4423	0.2884
247.6574	0.2824
247.8725	0.2753
248.0876	0.2768
248.3026	0.2721
248.5177	0.2597
248.7328	0.2537
248.9478	0.2504
249.1628	0.2575
249.3779	0.2443
249.5929	0.25
249.8079	0.2416
250.0228	0.2331
250.2378	0.234
250.4528	0.2335
250.6677	0.2251
250.8827	0.2188
251.0976	0.22
251.3125	0.2151
251.5274	0.2103
251.7423	0.2078
251.9572	0.2059
252.172	0.2085
252.3869	0.2153
252.6017	0.2056
252.8166	0.2055
253.0314	0.1994
253.2462	0.1997
253.461	0.1974
253.6758	0.1957
253.8906	0.1962
254.1053	0.1951
254.3201	0.1937
254.5348	0.1831
254.7496	0.1814
254.9643	0.1903
255.179	0.1857
255.3937	0.1886
255.6083	0.1907
255.823	0.1887
256.0377	0.1852
256.2523	0.1842
256.467	0.1867
256.6816	0.1833
256.8962	0.1804
257.1108	0.183
257.3254	0.1845
257.54	0.1767
257.7545	0.1844
257.9691	0.1875
258.1836	0.1755
258.3981	0.1802
258.6127	0.1794
258.8272	0.1811
259.0417	0.1693
259.2561	0.1739
259.4706	0.1742
259.6851	0.1788
259.8995	0.174
260.114	0.1833
260.3284	0.1782
260.5428	0.1828
260.7572	0.1771
260.9716	0.1847
261.186	0.1774
261.4003	0.1743
261.6147	0.1744
261.829	0.1806
262.0433	0.1794
262.2577	0.1854
262.472	0.1852
262.6863	0.184
262.9005	0.1742
263.1148	0.1755
263.3291	0.1792
263.5433	0.1829
263.7576	0.1869
263.9718	0.1816
264.186	0.1791
264.4002	0.1847
264.6144	0.1896
264.8286	0.1863
265.0427	0.1853
265.2569	0.1823
265.471	0.1885
265.6851	0.1901
265.8993	0.1831
266.1134	0.185
266.3275	0.1902
266.5415	0.1894
266.7556	0.1904
266.9697	0.1849
267.1837	0.1877
267.3978	0.1925
267.6118	0.1837
267.8258	0.1882
268.0398	0.1849
268.2538	0.1887
268.4677	0.1825
268.6817	0.1867
268.8957	0.174
269.1096	0.1779
269.3235	0.1848
269.5374	0.1829
269.7514	0.1839
269.9652	0.1832
270.1791	0.1802
270.393	0.1816
270.6068	0.1886
270.8207	0.1794
271.0345	0.1812
271.2483	0.1794
271.4622	0.1801
271.676	0.1821
271.8897	0.1801
272.1035	0.1887
272.3173	0.1767
272.531	0.1815
272.7448	0.1797
272.9585	0.1777
273.1722	0.1821
273.3859	0.1835
273.5996	0.1842
273.8133	0.1836
274.0269	0.1869
274.2406	0.1837
274.4542	0.1816
274.6679	0.1902
274.8815	0.1928
275.0951	0.1913
275.3087	0.1942
275.5223	0.1892
275.7358	0.19
275.9494	0.1921
276.1629	0.1982
276.3765	0.1934
276.59	0.1874
276.8035	0.1952
277.017	0.1962
277.2305	0.1901
277.444	0.1946
277.6574	0.2012
277.8709	0.1982
278.0843	0.196
278.2978	0.2004
278.5112	0.1976
278.7246	0.1923
278.938	0.1947
279.1513	0.1918
279.3647	0.1934
279.5781	0.1907
279.7914	0.1907
280.0047	0.1935
280.2181	0.1894
280.4314	0.1924
280.6447	0.1979
280.8579	0.1866
281.0712	0.1907
281.2845	0.1925
281.4977	0.1928
281.711	0.1859
281.9242	0.1878
282.1374	0.1875
282.3506	0.1899
282.5638	0.1874
282.7769	0.1855
282.9901	0.1803
283.2033	0.1858
283.4164	0.1871
283.6295	0.1837
283.8426	0.1791
284.0557	0.1859
284.2688	0.1881
284.4819	0.1831
284.695	0.1941
284.908	0.182
285.1211	0.1838
285.3341	0.181
285.5471	0.1909
285.7601	0.1869
285.9731	0.1875
286.1861	0.1856
286.3991	0.1889
286.612	0.1871
286.825	0.1889
287.0379	0.1905
287.2508	0.1861
287.4637	0.1864
287.6766	0.1828
287.8895	0.1826
288.1024	0.1888
288.3152	0.1895
288.5281	0.183
288.7409	0.1831
288.9538	0.1855
289.1666	0.1832
289.3794	0.1861
289.5922	0.1814
289.8049	0.1846
290.0177	0.1834
290.2304	0.1815
290.4432	0.1885
290.6559	0.1883
290.8686	0.1919
291.0813	0.1873
291.294	0.1896
291.5067	0.1871
291.7194	0.1899
291.932	0.1858
292.1447	0.1844
292.3573	0.1876
292.5699	0.19
292.7825	0.1843
292.9951	0.1843
293.2077	0.1801
293.4203	0.1881
293.6328	0.1864
293.8454	0.1926
294.0579	0.1853
294.2704	0.1895
294.4829	0.1856
294.6954	0.1842
294.9079	0.1867
295.1204	0.1815
295.3328	0.1894
295.5453	0.1884
295.7577	0.1846
295.9701	0.1882
296.1825	0.1905
296.3949	0.1844
296.6073	0.1769
296.8197	0.183
297.0321	0.1872
297.2444	0.1822
297.4567	0.187
297.6691	0.1844
297.8814	0.1831
298.0937	0.1833
298.306	0.1831
298.5182	0.1849
298.7305	0.1837
298.9428	0.1855
299.155	0.1822
299.3672	0.1871
299.5794	0.1877
299.7916	0.1896
300.0038	0.1896
300.216	0.1844
300.4282	0.1897
300.6403	0.1899
300.8525	0.1864
301.0646	0.1851
301.2767	0.1874
301.4888	0.1872
301.7009	0.1872
301.913	0.188
302.125	0.183
302.3371	0.1896
302.5491	0.1872
302.7612	0.1916
302.9732	0.1937
303.1852	0.1877
303.3972	0.1871
303.6092	0.1876
303.8211	0.1823
304.0331	0.1836
304.245	0.1866
304.457	0.1859
304.6689	0.1878
304.8808	0.18
305.0927	0.1856
305.3046	0.1816
305.5164	0.1793
305.7283	0.1791
305.9401	0.1766
306.152	0.1746
306.3638	0.1778
306.5756	0.1782
306.7874	0.1741
306.9992	0.1727
307.2109	0.1736
307.4227	0.1667
307.6344	0.1727
307.8462	0.1634
308.0579	0.1711
308.2696	0.1686
308.4813	0.169
308.693	0.1581
308.9046	0.1636
309.1163	0.1594
309.328	0.1613
309.5396	0.1583
309.7512	0.156
309.9628	0.1512
310.1744	0.151
310.386	0.1493
310.5976	0.1495
310.8091	0.1557
311.0207	0.1536
311.2322	0.1465
311.4437	0.1444
311.6552	0.1485
311.8667	0.1498
312.0782	0.1494
312.2897	0.1487
312.5012	0.1426
312.7126	0.1373
312.924	0.1442
313.1355	0.1397
313.3469	0.1398
313.5583	0.139
313.7696	0.1395
313.981	0.1474
314.1924	0.1361
314.4037	0.1357
314.6151	0.1447
314.8264	0.1428
315.0377	0.136
315.249	0.139
315.4603	0.1353
315.6716	0.136
315.8828	0.1377
316.0941	0.1399
316.3053	0.1342
316.5165	0.1365
316.7277	0.1325
316.9389	0.1388
317.1501	0.1299
317.3613	0.1334
317.5724	0.1347
317.7836	0.1283
317.9947	0.1315
318.2058	0.1342
318.417	0.1301
318.6281	0.1274
318.8391	0.1292
319.0502	0.1289
319.2613	0.1347
319.4723	0.1326
319.6834	0.1328
319.8944	0.1301
320.1054	0.127
320.3164	0.1214
320.5274	0.1304
320.7383	0.1344
320.9493	0.1282
321.1602	0.1311
321.3712	0.1315
321.5821	0.129
321.793	0.1322
322.0039	0.1341
322.2148	0.1216
322.4257	0.1277
322.6365	0.1296
322.8474	0.1376
323.0582	0.1368
323.269	0.1367
323.4798	0.1337
323.6906	0.1262
323.9014	0.1321
324.1122	0.1284
324.3229	0.137
324.5337	0.1339
324.7444	0.1358
324.9551	0.1351
325.1658	0.1295
325.3765	0.1404
325.5872	0.1352
325.7979	0.1334
326.0085	0.1348
326.2192	0.1339
326.4298	0.1348
326.6404	0.1434
326.851	0.1397
327.0616	0.1449
327.2722	0.1418
327.4828	0.1361
327.6933	0.1509
327.9039	0.1445
328.1144	0.1423
328.3249	0.1422
328.5354	0.1389
328.7459	0.1461
328.9564	0.1402
329.1669	0.1456
329.3773	0.151
329.5878	0.143
329.7982	0.145
330.0086	0.141
330.219	0.1405
330.4294	0.1434
330.6398	0.1519
330.8502	0.1474
331.0605	0.1487
331.2708	0.1378
331.4812	0.1432
331.6915	0.1496
331.9018	0.144
332.1121	0.157
332.3224	0.1503
332.5326	0.1403
332.7429	0.1512
332.9531	0.1454
333.1633	0.1437
333.3735	0.1453
333.5837	0.1496
333.7939	0.1501
334.0041	0.149
334.2143	0.1486
334.4244	0.1543
334.6346	0.1415
334.8447	0.1434
335.0548	0.1479
335.2649	0.1478
335.475	0.1484
335.685	0.147
335.8951	0.1424
336.1051	0.145
336.3152	0.1496
336.5252	0.1505
336.7352	0.147
336.9452	0.1497
337.1552	0.1438
337.3652	0.1403
337.5751	0.1525
337.7851	0.1417
337.995	0.1494
338.2049	0.1433
338.4148	0.1493
338.6247	0.1493
338.8346	0.1485
339.0445	0.1517
339.2543	0.1464
339.4642	0.1518
339.674	0.1475
339.8838	0.1482
340.0936	0.1505
340.3034	0.1489
340.5132	0.1449
340.7229	0.1538
340.9327	0.1641
341.1424	0.1495
341.3522	0.1472
341.5619	0.1489
341.7716	0.1514
341.9813	0.1561
342.1909	0.1602
342.4006	0.1564
342.6102	0.153
342.8199	0.1544
343.0295	0.1554
343.2391	0.1568
343.4487	0.1606
343.6583	0.1638
343.8679	0.162
344.0774	0.1521
344.287	0.1642
344.4965	0.1696
344.706	0.1632
344.9155	0.1608
345.125	0.161
345.3345	0.1717
345.544	0.1673
345.7534	0.1666
345.9629	0.1676
346.1723	0.1689
346.3817	0.1706
346.5911	0.1716
346.8005	0.1793
347.0099	0.1726
347.2193	0.1783
347.4286	0.1788
347.638	0.1786
347.8473	0.1788
348.0566	0.1784
348.2659	0.175
348.4752	0.1716
348.6845	0.1754
348.8937	0.1826
349.103	0.1774
349.3122	0.1824
349.5214	0.1781
349.7306	0.1886
349.9398	0.1771
350.149	0.1821
350.3582	0.1825
350.5674	0.1855
350.7765	0.1848
350.9856	0.1838
351.1948	0.1801
351.4039	0.1852
351.613	0.1827
351.822	0.1842
352.0311	0.1846
352.2402	0.1805
352.4492	0.181
352.6582	0.1833
352.8672	0.1828
353.0762	0.1849
353.2852	0.1838
353.4942	0.1869
353.7032	0.1803
353.9121	0.1854
354.1211	0.1818
354.33	0.1817
354.5389	0.1879
354.7478	0.1807
354.9567	0.1875
355.1655	0.1857
355.3744	0.1796
355.5833	0.18
355.7921	0.1886
356.0009	0.1889
356.2097	0.1728
356.4185	0.1792
356.6273	0.1832
356.8361	0.1897
357.0448	0.1857
357.2536	0.1866
357.4623	0.1891
357.671	0.1895
357.8797	0.1917
358.0884	0.1825
358.2971	0.1832
358.5057	0.188
358.7144	0.1881
358.923	0.1951
359.1316	0.1843
359.3402	0.1971
359.5488	0.1893
359.7574	0.1975
359.966	0.1898
360.1746	0.1892
360.3831	0.2008
360.5916	0.1955
360.8002	0.2012
361.0087	0.1969
361.2172	0.1979
361.4256	0.1928
361.6341	0.2043
361.8426	0.1967
362.051	0.204
362.2594	0.1957
362.4678	0.1995
362.6762	0.2023
362.8846	0.194
363.093	0.2018
363.3014	0.2067
363.5097	0.1976
363.718	0.2119
363.9264	0.2116
364.1347	0.2079
364.343	0.2083
364.5513	0.2085
364.7595	0.2213
364.9678	0.2056
365.176	0.2131
365.3842	0.2149
365.5925	0.2082
365.8007	0.2172
366.0089	0.2208
366.217	0.2174
366.4252	0.214
366.6333	0.2217
366.8415	0.2207
367.0496	0.2198
367.2577	0.2271
367.4658	0.211
367.6739	0.2154
367.882	0.2214
368.09	0.2157
368.2981	0.2247
368.5061	0.2247
368.7141	0.2254
368.9221	0.2307
369.1301	0.2284
369.3381	0.234
369.5461	0.2292
369.754	0.2263
369.962	0.2246
370.1699	0.2379
370.3778	0.2456
370.5857	0.2294
370.7936	0.2353
371.0015	0.2302
371.2093	0.2377
371.4172	0.2341
371.625	0.2345
371.8328	0.2341
372.0406	0.2424
372.2484	0.2372
372.4562	0.2398
372.664	0.2378
372.8717	0.2405
373.0795	0.2436
373.2872	0.2463
373.4949	0.2435
373.7026	0.2381
373.9103	0.2309
374.118	0.2467
374.3256	0.2424
374.5333	0.2454
374.7409	0.2428
374.9485	0.2487
375.1561	0.2519
375.3637	0.2341
375.5713	0.2597
375.7789	0.2481
375.9864	0.2458
376.194	0.2534
376.4015	0.2542
376.609	0.2546
376.8165	0.2495
377.024	0.2542
377.2315	0.2545
377.4389	0.2443
377.6464	0.2506
377.8538	0.2628
378.0612	0.2555
378.2686	0.2558
378.476	0.2675
378.6834	0.2537
378.8908	0.2623
379.0981	0.2585
379.3055	0.2648
379.5128	0.2518
379.7201	0.2647
379.9274	0.2626
380.1347	0.2576
380.342	0.2659
380.5492	0.2801
380.7565	0.2723
380.9637	0.2685
381.1709	0.2635
381.3781	0.274
381.5853	0.2572
381.7925	0.2679
381.9997	0.2711
382.2068	0.2701
382.4139	0.2607
382.6211	0.2724
382.8282	0.2782
383.0353	0.2691
383.2424	0.2644
383.4494	0.2618
383.6565	0.2706
383.8635	0.2744
384.0706	0.2793
384.2776	0.2775
384.4846	0.277
384.6916	0.2733
384.8986	0.2758
385.1055	0.2769
385.3125	0.2708
385.5194	0.274
385.7263	0.2785
385.9333	0.2826
386.1402	0.272
386.347	0.2756
386.5539	0.2691
386.7608	0.2732
386.9676	0.2765
387.1744	0.2796
387.3813	0.2721
387.5881	0.2646
387.7948	0.2872
388.0016	0.2835
388.2084	0.2732
388.4151	0.2744
388.6219	0.2706
388.8286	0.2775
389.0353	0.2679
389.242	0.2689
389.4487	0.2636
389.6553	0.2691
389.862	0.2624
390.0686	0.2736
390.2753	0.2697
390.4819	0.2632
390.6885	0.2758
390.8951	0.2611
391.1016	0.2681
391.3082	0.2672
391.5147	0.2678
391.7213	0.257
391.9278	0.2627
392.1343	0.2575
392.3408	0.2596
392.5473	0.259
392.7537	0.2634
392.9602	0.2553
393.1666	0.2583
393.373	0.2534
393.5794	0.2569
393.7858	0.2549
393.9922	0.2483
394.1986	0.2555
394.4049	0.2531
394.6113	0.2464
394.8176	0.2456
395.0239	0.2437
395.2302	0.2548
395.4365	0.2429
395.6428	0.242
395.8491	0.2481
396.0553	0.2439
396.2615	0.2418
396.4678	0.2493
396.674	0.2371
396.8802	0.2417
397.0863	0.2365
397.2925	0.2468
397.4987	0.2281
397.7048	0.2447
397.9109	0.2281
398.117	0.2317
398.3231	0.2305
398.5292	0.2285
398.7353	0.2359
398.9413	0.2258
399.1474	0.2345
399.3534	0.2331
399.5594	0.233
399.7654	0.2275
399.9714	0.2368
400.1774	0.2286
400.3833	0.2266
400.5893	0.2242
400.7952	0.2336
401.0011	0.2348
401.207	0.2331
401.4129	0.2311
401.6188	0.2195
401.8247	0.2365
402.0305	0.2272
402.2364	0.2304
402.4422	0.2324
402.648	0.2353
402.8538	0.2279
403.0596	0.2209
403.2654	0.2338
403.4711	0.2348
403.6768	0.2293
403.8826	0.2307
404.0883	0.2326
404.294	0.2308
404.4997	0.2341
404.7054	0.2292
404.911	0.2263
405.1167	0.229
405.3223	0.2271
405.5279	0.2213
405.7335	0.2308
405.9391	0.2196
406.1447	0.2307
406.3502	0.2266
406.5558	0.233
406.7613	0.2321
406.9668	0.2183
407.1724	0.222
407.3778	0.2284
407.5833	0.2198
407.7888	0.2283
407.9942	0.224
408.1997	0.2326
408.4051	0.2284
408.6105	0.2287
408.8159	0.2234
409.0213	0.2293
409.2267	0.2348
409.432	0.2209
409.6374	0.2335
409.8427	0.227
410.048	0.2315
410.2533	0.2248
410.4586	0.2293
410.6639	0.2263
410.8691	0.2269
411.0744	0.2281
411.2796	0.2293
411.4848	0.2286
411.69	0.2286
411.8952	0.2316
412.1004	0.2279
412.3056	0.2249
412.5107	0.2269
412.7158	0.2419
412.921	0.2352
413.1261	0.2284
413.3312	0.2343
413.5362	0.2344
413.7413	0.2333
413.9464	0.2138
414.1514	0.2242
414.3564	0.2255
414.5614	0.2195
414.7664	0.2153
414.9714	0.217
415.1764	0.2265
415.3813	0.2229
415.5863	0.2133
415.7912	0.2237
415.9961	0.2208
416.201	0.2297
416.4059	0.225
416.6108	0.2269
416.8156	0.2183
417.0205	0.2209
417.2253	0.2132
417.4301	0.2256
417.6349	0.2253
417.8397	0.2156
418.0445	0.2216
418.2492	0.2191
418.454	0.2154
418.6587	0.2196
418.8634	0.2263
419.0681	0.2082
419.2728	0.2198
419.4775	0.2303
419.6822	0.2127
419.8868	0.2119
420.0915	0.2198
420.2961	0.2069
420.5007	0.2268
420.7053	0.2113
420.9099	0.2074
421.1144	0.2082
421.319	0.2093
421.5235	0.2019
421.728	0.2061
421.9325	0.2113
422.137	0.2102
422.3415	0.2064
422.546	0.2011
422.7504	0.2005
422.9549	0.2128
423.1593	0.1959
423.3637	0.1965
423.5681	0.2021
423.7725	0.2017
423.9769	0.2027
424.1812	0.1949
424.3856	0.1983
424.5899	0.1968
424.7942	0.1977
424.9985	0.1851
425.2028	0.1961
425.4071	0.2018
425.6113	0.198
425.8156	0.1924
426.0198	0.1917
426.224	0.1909
426.4282	0.1813
426.6324	0.1894
426.8366	0.1888
427.0407	0.1933
427.2449	0.1764
427.449	0.1894
427.6531	0.2019
427.8572	0.1829
428.0613	0.1912
428.2654	0.1893
428.4694	0.171
428.6735	0.1727
428.8775	0.1832
429.0815	0.1814
429.2855	0.1733
429.4895	0.1763
429.6935	0.1691
429.8975	0.1656
430.1014	0.1721
430.3053	0.1702
430.5093	0.1696
430.7132	0.1586
430.9171	0.1658
431.1209	0.166
431.3248	0.1655
431.5286	0.1623
431.7325	0.1713
431.9363	0.1551
432.1401	0.1599
432.3439	0.1638
432.5477	0.1424
432.7514	0.1522
432.9552	0.1581
433.1589	0.148
433.3627	0.1503
433.5664	0.1459
433.7701	0.1492
433.9737	0.1508
434.1774	0.1508
434.3811	0.1378
434.5847	0.1375
434.7883	0.1369
434.9919	0.1305
435.1955	0.1404
435.3991	0.1387
435.6027	0.1324
435.8062	0.1368
436.0098	0.1236
436.2133	0.1271
436.4168	0.1282
436.6203	0.121
436.8238	0.1195
437.0272	0.1182
437.2307	0.128
437.4341	0.1223
437.6375	0.1228
437.841	0.1042
438.0443	0.1187
438.2477	0.1114
438.4511	0.104
438.6545	0.1093
438.8578	0.1084
439.0611	0.1097
439.2644	0.1097
439.4677	0.1075
439.671	0.0928
439.8743	0.0994
440.0775	0.0934
440.2808	0.0946
440.484	0.0911
440.6872	0.0968
440.8904	0.0809
441.0936	0.1007
441.2967	0.0845
441.4999	0.0818
441.703	0.0881
441.9062	0.0849
442.1093	0.0994
442.3124	0.0874
442.5155	0.0864
442.7185	0.0697
442.9216	0.0824
443.1246	0.0806
443.3276	0.0791
443.5307	0.0762
443.7337	0.0838
443.9366	0.0751
444.1396	0.0742
444.3426	0.072
444.5455	0.0746
444.7484	0.0704
444.9513	0.0671
445.1542	0.0715
445.3571	0.0651
445.56	0.064
445.7628	0.0647
445.9657	0.0654
446.1685	0.0722
446.3713	0.0712
446.5741	0.0746
446.7769	0.0643
446.9797	0.0552
447.1824	0.0596
447.3852	0.0444
447.5879	0.0562
447.7906	0.0536
447.9933	0.0557
448.196	0.0513
448.3986	0.0428
448.6013	0.0439
448.8039	0.0549
449.0066	0.0552
449.2092	0.0528
449.4118	0.0541
449.6143	0.0504
449.8169	0.0529
450.0195	0.0425
450.222	0.0495
450.4245	0.0527
450.627	0.0418
450.8295	0.0373
451.032	0.0478
451.2345	0.044
451.4369	0.0375
451.6394	0.0374
451.8418	0.0426
452.0442	0.0389
452.2466	0.032
452.449	0.0279
452.6513	0.0306
452.8537	0.0288
453.056	0.0286
453.2583	0.0292
453.4607	0.0252
453.663	0.0315
453.8652	0.0234
454.0675	0.0308
454.2697	0.0346
454.472	0.0393
454.6742	0.0295
454.8764	0.0378
455.0786	0.0299
455.2808	0.0271
455.4829	0.0337
455.6851	0.0264
455.8872	0.0169
456.0893	0.0279
456.2915	0.024
456.4935	0.0332
456.6956	0.0237
456.8977	0.0207
457.0997	0.0352
457.3018	0.0236
457.5038	0.0263
457.7058	0.0268
457.9078	0.0235
458.1098	0.0249
458.3117	0.028
458.5137	0.0178
458.7156	0.0211
458.9175	0.0217
459.1194	0.0187
459.3213	0.0202
459.5232	0.0215
459.725	0.0162
459.9269	0.0169
460.1287	0.0173
460.3305	0.0182
460.5323	0.0119
460.7341	0.014
460.9359	0.0146
461.1376	0.0176
461.3394	0.0219
461.5411	0.02
461.7428	0.0218
461.9445	0.024
462.1462	0.0227
462.3479	0.0096
462.5495	0.0183
462.7512	0.0282
462.9528	0.0132
463.1544	0.014
463.356	0.0092
463.5576	0.0282
463.7592	0.0169
463.9607	0.0097
464.1623	0.0114
464.3638	0.0033
464.5653	0.0069
464.7668	0.0215
464.9683	0.0169
465.1697	0.0093
465.3712	0.0117
465.5726	0.0017
465.7741	0.0116
465.9755	0.0067
466.1769	0.0094
466.3782	0.0104
466.5796	0.0114
466.7809	0.0152
466.9823	0.0126
467.1836	0.004
467.3849	0.0047
467.5862	0.0014
467.7875	0.0039
467.9887	0.0165
468.19	0.007
468.3912	0.007
468.5924	0.0016
468.7936	0.01
468.9948	0.0085
469.196	0.0086
469.3972	0.0009
469.5983	0.0033
469.7994	0.0206
470.0006	0.0116
470.2017	0.0112
470.4027	0.0196
470.6038	0.0129
470.8049	0.0071
471.0059	0.0114
471.2069	0.0034
471.408	0.0029
471.6089	0.0012
471.8099	0.0151
472.0109	0.0139
472.2119	0.0174
472.4128	0.0069
472.6137	0.0087
472.8146	0.0043
473.0155	0.0149
473.2164	0.0092
473.4173	0.0021
473.6181	0.0045
473.819	0.0091
474.0198	-0.0024
474.2206	-0.0063
474.4214	0.0073
474.6222	-0.0022
474.8229	-0.0039
475.0237	0.0077
475.2244	0.0141
475.4251	0.0033
475.6258	-0.0049
475.8265	0.0043
476.0272	0.0059
476.2278	0.0072
476.4285	0.0023
476.6291	0.0082
476.8297	0.0018
477.0303	-0.0003
477.2309	0.0041
477.4315	0.0101
477.632	0.0032
477.8326	0.003
478.0331	0.0133
478.2336	0.0102
478.4341	0.0113
478.6346	0.0022
478.8351	0.0049
479.0355	0.0079
479.236	0.0155
479.4364	0.0078
479.6368	-0
479.8372	0.0069
480.0376	-0.003
480.2379	0.0108
480.4383	0.0092
480.6386	-0.0072
480.8389	-0.0079
481.0392	-0.0013
481.2395	0.0124
481.4398	0.0053
481.6401	0.0086
481.8403	0.0054
482.0405	0.0045
482.2408	0.0042
482.441	0.0109
482.6411	-0.0001
482.8413	-0.0008
483.0415	0.0058
483.2416	0.0015
483.4417	-0.0057
483.6419	-0.0066
483.8419	-0
484.042	0.0056
484.2421	-0.003
484.4422	0.0075
484.6422	0.0058
484.8422	-0.0005
485.0422	0.0013
485.2422	0.0006
485.4422	0.0027
485.6422	0.0034
485.8421	-0.0016
486.042	0.0081
486.242	0.0005
486.4419	0.0075
486.6417	0.0006
486.8416	0.0021
487.0415	-0.0059
487.2413	-0.0002
487.4411	-0.0004
487.641	-0.0053
487.8408	0.0039
488.0405	0.009
488.2403	-0.001
488.4401	0.0042
488.6398	0.0053
488.8395	0.0001
489.0392	0.0081
489.2389	0.0075
489.4386	-0.0066
489.6383	0.0048
489.8379	0.0002
490.0376	-0.0039
490.2372	0.0001
490.4368	-0.0004
490.6364	-0.0084
490.836	0.0009
491.0355	-0.0019
491.2351	-0.0046
491.4346	-0.0032
491.6341	-0.001
491.8336	0.0014
492.0331	-0.0037
492.2326	0.0159
492.432	-0.0029
492.6315	0.0043
492.8309	-0.0016
493.0303	0.0034
493.2297	0.0111
493.4291	-0.0014
493.6284	0.0088
493.8278	-0.0004
494.0271	0.0086
494.2264	0.0004
494.4257	0.0088
494.625	-0.0055
494.8243	-0.0015
495.0236	0.004
495.2228	0.0013
495.422	0.0001
495.6213	0.0031
495.8205	0.0001
496.0196	0.0044
496.2188	0.0052
496.418	0.0026
496.6171	0.0008
496.8162	0.0044
497.0153	0.0088
497.2144	0.003
497.4135	0.0035
497.6126	0.0052
497.8116	-0.0043
498.0107	0.0009
498.2097	0.0051
498.4087	-0.0045
498.6077	0.0015
498.8067	-0.0007
499.0056	0.0046
499.2046	0.0016
499.4035	0.004
499.6024	-0.0036
499.8013	0.0095
500.0002	0.0045
500.199	0.0037
500.3979	-0.005
500.5967	0.0017
500.7956	0.0035
500.9944	0.0026
501.1932	0.0066
501.3919	0.0048
501.5907	0.0027
501.7895	-0.0018
501.9882	0.0096
502.1869	-0.0022
502.3856	0.0012
502.5843	-0.0005
502.783	-0.0006
502.9816	0.0102
503.1803	0.0087
503.3789	0.0015
503.5775	0.0028
503.7761	-0.0053
503.9747	0.0073
504.1732	-0.0014
504.3718	0.0141
504.5703	0.0003
504.7689	-0.0064
504.9674	0.0016
505.1658	0.0051
505.3643	0.0013
505.5628	0.0011
505.7612	0.0124
505.9597	0.0014
506.1581	0.0004
506.3565	-0.0068
506.5549	-0.0057
506.7532	-0.003
506.9516	-0.0025
507.1499	0.0029
507.3482	0.0042
507.5465	0.0081
507.7448	0.0011
507.9431	0.0082
508.1414	-0.009
508.3396	0.0042
508.5379	-0.0008
508.7361	-0.0003
508.9343	0.0044
509.1325	0.001
509.3306	-0.0015
509.5288	-0.0054
509.7269	0.0025
509.9251	0.0013
510.1232	0.0076
510.3213	0.0033
510.5193	0.0001
510.7174	-0.0038
510.9154	0.0038
511.1135	-0.0017
511.3115	0.0007
511.5095	0.0026
511.7075	-0.0102
511.9055	-0.0014
512.1034	-0.0049
512.3014	0.0038
512.4993	-0.0021
512.6972	-0.0047
512.8951	-0.0009
513.093	-0.0026
513.2908	0.0136
513.4887	-0.0006
513.6865	0.0024
513.8844	0.01
514.0822	0.0009
514.2799	-0.009
514.4777	-0.005
514.6755	-0.0015
514.8732	-0.005
515.0709	0.0044
515.2687	-0.0017
515.4664	0.0021
515.664	0.0051
515.8617	0.0004
516.0594	0.0065
516.257	-0.0002
516.4546	0.0099
516.6522	-0.0037
516.8498	-0.0017
517.0474	0.0052
517.2449	0.0083
517.4425	0.0019
517.64	0.0002
517.8375	0.0037
518.035	0.0028
518.2325	-0.0101
518.43	-0.0023
518.6274	-0.0041
518.8249	-0.0072
519.0223	0.0078
519.2197	-0.0017
519.4171	-0.003
519.6145	0.0022
519.8118	-0.0095
520.0092	0.0029
520.2065	0.0038
520.4038	-0.0015
520.6011	0.0076
520.7984	0.0095
520.9956	-0.0005
521.1929	-0.0005
521.3901	0.0035
521.5874	-0.0034
521.7846	-0
521.9818	-0.002
522.1789	-0.0112
522.3761	-0.0028
522.5732	-0.0079
522.7704	-0.0086
522.9675	-0.0152
523.1646	-0.0007
523.3617	0.006
523.5587	0.0038
523.7558	-0.0071
523.9528	0.0101
524.1498	-0.0058
524.3468	0.0022
524.5438	0.0036
524.7408	-0.0039
524.9378	0.0052
525.1347	0.0075
525.3316	-0.0007
525.5285	-0.004
525.7254	0.0015
525.9223	0.0097
526.1192	0.0092
526.316	0.006
526.5129	-0.0023
526.7097	-0.009
526.9065	0.0032
527.1033	-0.0009
527.3	-0.0061
527.4968	0.0054
527.6935	-0.0065
527.8903	-0.0042
528.087	0.0007
528.2837	0.0081
528.4804	-0.0068
528.677	-0.0078
528.8737	-0.0002
529.0703	-0.0047
529.2669	0.0039
529.4635	0.001
529.6601	-0.0073
529.8567	-0.0092
530.0532	0.003
530.2498	-0.0047
530.4463	-0.0122
530.6428	0.0031
530.8393	0.015
531.0358	-0.0079
531.2322	-0.005
531.4287	0.0007
531.6251	-0.0166
531.8215	-0.0002
532.0179	-0.0021
532.2143	0.0077
532.4107	0.002
532.607	-0.0057
532.8034	-0.0097
532.9997	-0.0006
533.196	-0.0001
533.3923	0.0028
533.5886	-0.0048
533.7848	-0.0034
533.9811	0.0035
534.1773	0.0031
534.3735	0.007
534.5697	-0.0013
534.7659	-0.0024
534.9621	0.0004
535.1582	0.0046
535.3544	0.0028
535.5505	0.0074
535.7466	-0.0034
535.9427	0.0025
536.1387	-0.0056
536.3348	0.0023
536.5308	0.0089
536.7269	-0.0033
536.9229	0.0008
537.1189	0.0067
537.3148	-0.0079
537.5108	0.0029
537.7068	0.0042
537.9027	-0.0044
538.0986	0.0028
538.2945	0.0028
538.4904	-0.0103
538.6863	-0.0024
538.8821	0.0152
539.078	0.0043
539.2738	0.0027
539.4696	-0.0048
539.6654	0.0065
539.8611	-0.0087
540.0569	-0.0023
540.2526	0.0101
540.4484	-0.0047
540.6441	-0.0013
540.8398	0.0069
541.0355	0.0012
541.2311	-0
541.4268	0.0113
541.6224	0.0122
541.818	0.0031
542.0136	0.0064
542.2092	0.0039
542.4048	0.002
542.6003	0.003
542.7959	0.0078
542.9914	0.0024
543.1869	0.0012
543.3824	0.0008
543.5779	0.0085
543.7734	0.0066
543.9688	0.0111
544.1642	-0.0044
544.3596	0.0079
544.555	-0.0024
544.7504	0.0072
544.9458	0.0081
545.1411	-0.0004
545.3365	0.0032
545.5318	0.0019
545.7271	0.009
545.9224	-0.0078
546.1177	0.003
546.3129	0.0013
546.5081	-0.0036
546.7034	0.0049
546.8986	-0.0031
547.0938	0.0046
547.289	0.0087
547.4841	0.0031
547.6793	0.0031
547.8744	-0.0002
548.0695	-0.0069
548.2646	0.0001
548.4597	-0.0085
548.6548	0.0172
548.8498	0.0006
549.0448	-0.0027
549.2399	0.011
549.4349	0.0041
549.6298	-0.0031
549.8248	0.0046
550.0198	0.009
550.2147	0.0039
550.4096	0.0007
550.6045	0.0034
550.7994	0.0006
550.9943	0.0044
551.1892	-0.0142
551.384	0.0139
551.5788	0.0034
551.7737	0.0063
551.9685	0.0002
552.1632	0.0055
552.358	-0.0027
552.5528	0.0066
552.7475	0.0077
552.9422	0.0083
553.1369	0.0049
553.3316	0.0018
553.5263	0.0087
553.7209	0.0095
553.9156	0.0051
554.1102	0.0013
554.3048	-0.0044
554.4994	0.0039
554.694	0.008
554.8885	0.0062
555.0831	-0.0029
555.2776	0.0017
555.4721	0.0019
555.6666	0.007
555.8611	0.0042
556.0555	0.0055
556.25	0.0051
556.4444	0.0014
556.6388	0.0002
556.8332	-0
557.0276	0.0033
557.222	-0.0076
557.4163	-0.0015
557.6107	0.0041
557.805	0.0004
557.9993	0.0018
558.1936	-0.0042
558.3879	0.0001
558.5821	-0.0037
558.7764	-0.0026
558.9706	-0.005
559.1648	0.0057
559.359	-0.0059
559.5532	-0.0057
559.7473	-0.0035
559.9415	0.0026
560.1356	0.015
560.3297	-0.0048
560.5238	0.0047
560.7179	-0.0006
560.9119	0.007
561.106	-0.0024
561.3	0.0003
561.494	-0.0121
561.688	-0.0056
561.882	-0.0021
562.076	-0.0025
562.2699	0.0069
562.4639	0.0071
562.6578	0.009
562.8517	0.0055
563.0456	-0.0005
563.2395	0.0086
563.4333	-0.0024
563.6272	0.0041
563.821	-0.0031
564.0148	0.0032
564.2086	0.0059
564.4024	0.0113
564.5961	0.0009
564.7899	0.0107
564.9836	-0.0023
565.1773	0.0073
565.371	-0.0011
565.5647	0.0002
565.7584	0.017
565.952	0.0045
566.1456	0.0026
566.3393	0.0044
566.5329	-0.0057
566.7264	0.0104
566.92	0.0009
567.1136	-0.0025
567.3071	-0.0024
567.5006	0.0058
567.6941	-0.0005
567.8876	0.0011
568.0811	0.0129
568.2745	-0.0067
568.468	0.0073
568.6614	0.0029
568.8548	0.0033
569.0482	0.0069
569.2416	0.0035
569.4349	0.0015
569.6283	0.0059
569.8216	0.0066
570.0149	0.0029
570.2082	0.0115
570.4015	0.0059
570.5947	0.0009
570.788	0.0059
570.9812	0.0017
571.1744	0.0036
571.3676	0.0048
571.5608	0.0027
571.754	0.0128
571.9471	0.0056
572.1402	0.0043
572.3333	0.0069
572.5264	0.0076
572.7195	0.0007
572.9126	0.0017
573.1057	0.0036
573.2987	0.0065
573.4917	0.0067
573.6847	0.0017
573.8777	0.0086
574.0707	0.0073
574.2636	0.004
574.4566	-0.0002
574.6495	0.0046
574.8424	0.0044
575.0353	0.0043
575.2281	0.0093
575.421	-0.0004
575.6138	0.0026
575.8067	0.0086
575.9995	0.0016
576.1923	0.0067
576.385	0.0049
576.5778	0.0127
576.7706	0.0065
576.9633	0.0058
577.156	-0.0042
577.3487	0.0018
577.5414	-0.0014
577.734	0.0028
577.9267	0.0063
578.1193	0.0058
578.3119	0.0045
578.5045	0.0066
578.6971	0.0029
578.8897	0.008
579.0822	0.0125
579.2747	0.0056
579.4673	0.0063
579.6598	0.0102
579.8522	0.0043
580.0447	0.0075
580.2372	0.0121
580.4296	0.0104
580.622	0.0007
580.8144	0.0029
581.0068	0.0021
581.1992	0.0051
581.3915	0.0001
581.5839	0.0049
581.7762	0.0031
581.9685	0.0046
582.1608	0.0052
582.353	0.004
582.5453	0.0062
582.7375	0.0082
582.9298	0.0014
583.122	-0.0002
583.3142	0.0074
583.5063	0.0033
583.6985	0.0008
583.8906	0.0079
584.0827	0.005
584.2749	-0.0029
584.4669	0.0045
584.659	0.006
584.8511	0.0108
585.0431	0.0078
585.2352	0.0013
585.4272	0.0055
585.6192	0.0017
585.8111	0.0067
586.0031	-0.0011
586.195	0.0004
586.387	0.0026
586.5789	0.0078
586.7708	0.0039
586.9627	0.0053
587.1545	0.0039
587.3464	0.0068
587.5382	0.0023
587.73	0.0069
587.9218	0.0069
588.1136	0.004
588.3053	0.0035
588.4971	0.0072
588.6888	0.0008
588.8805	0.0009
589.0722	0.0088
589.2639	0.0071
589.4556	0.0111
589.6472	0.0079
589.8389	0.0046
590.0305	-0.0022
590.2221	0.0088
590.4137	0.0069
590.6052	-0.0046
590.7968	0.0065
590.9883	0.0072
591.1798	0.0041
591.3713	-0.0004
591.5628	0.0086
591.7543	0.0001
591.9458	0.0072
592.1372	0.0052
592.3286	0.0039
592.52	0.0014
592.7114	0.0018
592.9028	0.0055
593.0941	0.0025
593.2855	0.0078
593.4768	0.0145
593.6681	0.004
593.8594	0.0099
594.0506	0.0048
594.2419	0.0027
594.4331	0.0022
594.6244	0.0018
594.8156	0.0056
595.0067	-0.0029
595.1979	0.0022
595.3891	0.004
595.5802	0.0044
595.7713	0.0036
595.9624	0.0113
596.1535	-0.0002
596.3446	0.0084
596.5357	0.0062
596.7267	0.0042
596.9177	0.0017
597.1087	-0
597.2997	0.004
597.4907	-0.0042
597.6817	0.0107
597.8726	0.0047
598.0635	0
598.2544	0.0033
598.4453	0.0045
598.6362	0.004
598.827	-0.0009
599.0179	0.0026
599.2087	0.0117
599.3995	0.0066
599.5903	0.0092
599.7811	0.0089
599.9718	0.003
600.1626	0.0022
600.3533	-0.001
600.544	0.0045
600.7347	0.003
600.9254	0.0105
601.116	0.0087
601.3067	0.0071
601.4973	0.0054
601.6879	0.0059
601.8785	0.0052
602.0691	0.0046
602.2596	0.0119
602.4502	0.0031
602.6407	0.0053
602.8312	0.0034
603.0217	0.0043
603.2122	0.003
603.4027	0.0037
603.5931	0.0022
603.7835	0.0073
603.9739	0.0057
604.1643	0.0077
604.3547	-0.0017
604.5451	0.0128
604.7354	0.0031
604.9257	0.0021
605.116	-0.0012
605.3063	0.0028
605.4966	0.001
605.6869	0.0079
605.8771	0.0008
606.0673	0.0044
606.2575	0.0004
606.4477	0.0049
606.6379	-0.0021
606.8281	0.0051
607.0182	0.0034
607.2083	0.0007
607.3985	0.0027
607.5885	0.0031
607.7786	0.0066
607.9687	0.0107
608.1587	0.0101
608.3488	0.0035
608.5388	-0.001
608.7288	-0.0013
608.9187	0.0048
609.1087	0.0129
609.2986	0.0073
609.4886	-0.0016
609.6785	0.0051
609.8684	0.0026
610.0582	0.0027
610.2481	0.0013
610.4379	0.0022
610.6278	0.0065
610.8176	0.0075
611.0074	0.0083
611.1971	0.0053
611.3869	0.0079
611.5766	-0.0103
611.7664	0.009
611.9561	0.0045
612.1458	0.0084
612.3354	0.0039
612.5251	0.0068
612.7147	0.011
612.9044	-0.0017
613.094	0.0074
613.2836	0.0008
613.4731	0.0096
613.6627	0.0066
613.8522	0.0103
614.0417	0.0079
614.2313	0.0026
614.4207	0.0016
614.6102	0.0111
614.7997	0.0168
614.9891	0.0134
615.1785	-0.0004
615.3679	0.0018
615.5573	0.0077
615.7467	-0.002
615.9361	0.0068
616.1254	0.0073
616.3147	0.0008
616.504	-0.0053
616.6933	0.0021
616.8826	0.0036
617.0718	0.007
617.2611	-0
617.4503	0.0034
617.6395	0.0066
617.8287	0.0061
618.0179	0.0064
618.207	0.0146
618.3961	0.0021
618.5853	0.0105
618.7744	0.0053
618.9634	0.0103
619.1525	0.0016
619.3416	-0.0017
619.5306	0.0118
619.7196	0.0092
619.9086	0.0043
620.0976	-0.0032
620.2866	0.0085
620.4755	0.0033
620.6645	0.0163
620.8534	0.0042
621.0423	0.0005
621.2312	-0.0019
621.42	0.0064
621.6089	0.0035
621.7977	0.0026
621.9865	0.0015
622.1753	0.0062
622.3641	-0.0057
622.5529	-0.0034
622.7416	0.0058
622.9303	-0.0002
623.1191	-0.0005
623.3078	-0.0023
623.4964	0.0025
623.6851	0.0052
623.8737	0.0084
624.0624	-0.0123
624.251	0.0107
624.4396	-0.0027
624.6282	0.0066
624.8167	-0
625.0053	0.0113
625.1938	-0.005
625.3823	0.0123
625.5708	0.0035
625.7593	0.0008
625.9477	0.0076
626.1362	-0.0016
626.3246	-0.0008
626.513	0.022
626.7014	0.0099
626.8898	0.0117
627.0781	0.0026
627.2665	0.0013
627.4548	-0.0086
627.6431	0.0139
627.8314	0.0129
628.0197	0.0057
628.2079	0.0021
628.3962	0.0003
628.5844	0.0072
628.7726	-0.0036
628.9608	0.0026
629.1489	0.0055
629.3371	-0.0034
629.5252	0.0003
629.7134	-0.0065
629.9015	0.0115
630.0895	-0.0046
630.2776	0.0009
630.4657	-0.0015
630.6537	-0.0067
630.8417	-0.0026
631.0297	0.0047
631.2177	-0.0008
631.4057	0.0077
631.5936	0.0132
631.7815	0.0086
631.9695	0.0113
632.1574	0.0073
632.3452	0.0093
632.5331	-0.0017
632.7209	0.0066
632.9088	-0.0057
633.0966	0.0368
633.2844	0.0169
633.4722	0.0042
633.6599	0.0196
633.8477	-0.0074
634.0354	0.0155
634.2231	0.0003
634.4108	0.0031
634.5985	0.0142
634.7861	-0.0112
634.9738	-0.0015
635.1614	0.0097
635.349	0.0044
635.5366	-0.0018
635.7242	0.0008
635.9117	0.0016
636.0993	0.003
636.2868	0.0134
636.4743	0.0087
636.6618	-0.0088
636.8492	0.0022
637.0367	0.0058
637.2241	-0.0018
637.4115	0.0193
637.5989	0.0093
637.7863	0.0252
637.9737	0.0078
638.161	0.0127
638.3484	-0.004
638.5357	-0.0001
638.723	0.0196
638.9103	-0.0057
639.0975	-0.0024
639.2848	0.0041
639.472	0.0037
639.6592	-0.0058
639.8464	0.0026
640.0336	0.015
640.2208	0.0023
640.4079	0.0037
640.595	0.0057
640.7821	0.0126
640.9692	-0.0077
641.1563	0.0074
641.3434	0.0182
641.5304	0.0239
641.7174	0.0036
641.9044	-0.0009
642.0914	0.028
642.2784	-0.0161
642.4653	0.0022
642.6523	0.0032
642.8392	-0.0058
643.0261	0.0094
643.213	0.0102
643.3999	0.0179
643.5867	0.0102
643.7735	-0.0171
643.9604	0.0157
644.1472	0.0068
644.3339	0.0195
644.5207	-0.0107
644.7075	-0.0027
644.8942	-0.0041
645.0809	0.0175
645.2676	0.0063
645.4543	0.0085
645.6409	0.0099
645.8276	0.0197
646.0142	0.0018
646.2008	0.0085
646.3874	-0.011
646.574	0.0124
646.7605	0.0227
646.9471	-0.0142
647.1336	-0.0185
647.3201	-0.0136
647.5066	0.0115
647.6931	0.0007
647.8795	0.0188
648.0659	0.0106
648.2524	0.0102
648.4388	0.0051
648.6252	0.0168
648.8115	0.0006
648.9979	0.0028
649.1842	0.0165
649.3705	0.0148
649.5568	-0.0023
649.7431	-0.0143
649.9294	-0.0062
650.1156	-0.0047
650.3018	0.0075
650.488	0.0127
650.6742	0.0358
650.8604	0.0142
651.0466	0.0076
651.2327	0.0104
651.4188	0.0086
651.6049	0.0079
651.791	0.003
651.9771	0.012
652.1632	0.0192
652.3492	0.0051
652.5352	0.0186
652.7212	-0.0063
652.9072	-0.0021
653.0932	0.0102
653.2791	-0.0025
653.465	0.0018
653.651	0.0068
653.8369	0.0113
654.0227	0.0004
654.2086	0.0091
654.3944	0.009
654.5803	0.0135
654.7661	0.0034
654.9519	0.0028
655.1377	0.0001
655.3234	0.0001
655.5092	0.0001
655.6949	0.0001
655.8806	0.0001
656.0663	0.0001
656.2519	0.0001
656.4376	0.0001
656.6232	0.0001
656.8088	0.0001
656.9945	0.0001
657.18	0.0001
657.3656	0.0001
657.5511	0.0001
657.7367	0.0001
657.9222	0.0001
658.1077	0.0001
658.2932	0.0001
658.4786	0.0001
658.6641	0.0001
658.8495	0.0001
659.0349	0.0001
659.2203	0.0001
659.4057	0.0001
659.591	0.1554
659.7764	0.0234
659.9617	0.0129
660.147	0.0193
660.3323	0.0001
660.5176	0.0094
660.7028	-0.011
660.888	0.0156
661.0733	0.0195
661.2585	-0.0076
661.4436	0.0163
661.6288	0.014
661.8139	-0.0076
661.9991	-0.009
662.1842	-0.0066
662.3693	0.0142
662.5544	0.0147
662.7394	0.0157
662.9245	0.0002
663.1095	-0.0091
663.2945	-0.0074
663.4795	0.0059
663.6644	-0.0317
663.8494	0.0187
664.0343	-0.0001
664.2193	-0.0076
664.4042	0.0074
664.589	0.0244
664.7739	0.0113
664.9587	-0.0065
665.1436	-0.0006
665.3284	-0.0092
665.5132	-0.0009
665.698	0.0231
665.8827	0.0078
666.0675	-0.015
666.2522	0.003
666.4369	0.0195
666.6216	0.0129
666.8063	0.0267
666.9909	0.0094
667.1756	0.015
667.3602	-0.0066
667.5448	0.0084
667.7294	0.0218
667.9139	-0.0097
668.0985	0.0147
668.283	-0.0062
668.4675	0.0226
668.652	0.0097
668.8365	-0.008
669.0209	-0.0001
669.2054	-0.0014
669.3898	0.0095
669.5742	0.0395
669.7586	-0.0025
669.943	0.0147
670.1273	-0.0082
670.3117	0.0098
670.496	0.0176
670.6803	0.0219
670.8646	-0.0184
671.0488	0.0288
671.2331	-0.0065
671.4173	0.0094
671.6015	-0.005
671.7857	-0.0002
671.9699	0.0201
672.1541	-0.0028
672.3382	0.0109
672.5223	-0.0113
672.7064	0.0061
672.8905	-0.0028
673.0746	0.0227
673.2587	0.0053
673.4427	0.0034
673.6267	0.0211
673.8107	0.0166
673.9947	0.013
674.1787	0.0088
674.3626	-0.0066
674.5465	0.0118
674.7304	-0.0027
674.9143	0.0113
675.0982	0.0211
675.2821	0.0092
675.4659	0.0071
675.6497	0.0178
675.8335	0.0017
676.0173	-0.0116
676.2011	0.0138
676.3849	0.0213
676.5686	0.0184
676.7523	0.0253
676.936	0.0107
677.1197	0.0057
677.3034	0.0117
677.487	0.0202
677.6706	0.0125
677.8542	0.0143
678.0378	0.0155
678.2214	-0.0054
678.405	0.0133
678.5885	0.0193
678.772	0.0082
678.9555	-0.0015
679.139	0.0115
679.3225	-0.0021
679.5059	0.0009
679.6894	0.0053
679.8728	-0.0019
680.0562	-0.0085
680.2395	0.0044
680.4229	-0.0063
680.6062	0.011
680.7896	-0.0121
680.9729	0.0088
681.1562	0.015
681.3394	-0.0005
681.5227	0.0056
681.7059	0.0069
681.8891	-0.0075
682.0723	-0.016
682.2555	-0.0105
682.4387	0.018
682.6218	0.0117
682.805	0.0162
682.9881	0.0267
683.1712	0.0206
683.3542	0.0285
683.5373	-0.0136
683.7203	0.0231
683.9034	-0.0073
684.0864	-0.0103
684.2694	0.0003
684.4523	-0.0014
684.6353	0.0018
684.8182	-0.0079
685.0011	0.0021
685.184	0.0029
685.3669	0.0219
685.5498	-0.0089
685.7326	-0.0073
685.9154	-0.0116
686.0982	0.0236
686.281	0.0036
686.4638	0.014
686.6465	0.0085
686.8293	-0.0126
687.012	0.0055
687.1947	0.0031
687.3774	-0.0058
687.56	-0.0037
687.7427	0.0259
687.9253	-0.0001
688.1079	0.0082
688.2905	-0.0129
688.4731	0.0255
688.6556	-0.0136
688.8382	-0.0183
689.0207	0.0134
689.2032	0.0172
689.3857	-0.0022
689.5681	-0.0121
689.7506	0.0093
689.933	-0.0191
690.1154	0.0205
690.2978	0.0103
690.4802	-0.0029
690.6626	-0.001
690.8449	0.0039
691.0272	-0.0116
691.2095	-0.0232
691.3918	0.0067
691.5741	0.0024
691.7563	0.0078
691.9386	0.0207
692.1208	-0.0015
692.303	0.008
692.4852	0.0028
692.6673	-0.0084
692.8495	-0.0023
693.0316	0.0006
693.2137	0.0133
693.3958	0.0247
693.5778	0.0094
693.7599	0.0045
693.9419	-0.0118
694.1239	0.0145
694.3059	0.0076
694.4879	-0.0082
694.6699	-0.0052
694.8518	0.0072
695.0337	0.0207
695.2157	0.0238
695.3975	-0.0023
695.5794	0.0074
695.7613	0.016
695.9431	-0.0118
696.1249	0.0197
696.3067	-0.0003
696.4885	0.0307
696.6703	0.0062
696.852	-0.0027
697.0337	0.0081
697.2154	0.0032
697.3971	0.0069
697.5788	0.0108
697.7605	0.0033
697.9421	0.0239
698.1237	0.0178
698.3053	-0.004
698.4869	0.0034
698.6685	-0.0075
698.85	0.0374
699.0315	0.0094
699.213	0.0101
699.3945	-0.0203
699.576	0.0323
699.7575	0.0311
699.9389	-0.0207
700.1203	-0.0084
700.3017	-0.0117
700.4831	0.0278
700.6645	0.0074
700.8458	-0.0064
701.0271	0.0308
701.2084	-0.0056
701.3897	-0.0122
701.571	-0.019
701.7523	0.0058
701.9335	0.0024
702.1147	0.0148
702.2959	-0.0038
702.4771	-0.0051
702.6583	-0.0061
702.8394	-0.0276
703.0205	0.0377
703.2016	0.0112
703.3827	-0.0123
703.5638	0.0204
703.7449	0.0407
703.9259	0.0221
704.1069	0.0007
704.2879	0.0306
704.4689	0.0029
704.6499	0.0194
704.8308	-0.0043
705.0117	-0.0007
705.1927	0.0113
705.3735	-0.018
705.5544	-0.0134
705.7353	-0.0262
705.9161	-0.0184
706.0969	0.0075
706.2777	0.009
706.4585	-0.0029
706.6393	0.028
706.82	0.001
707.0007	0.0065
707.1815	0.0068
707.3621	0.0277
707.5428	0.0137
707.7235	0.0021
707.9041	-0.0003
708.0847	-0.0073
708.2653	0.0169
708.4459	0.0029
708.6265	-0.0214
708.807	0.0075
708.9875	0.0136
709.168	-0.0085
709.3485	-0.0015
709.529	0.0027
709.7095	-0.013
709.8899	-0.0017
710.0703	0.0166
710.2507	-0.0102
710.4311	-0.0267
710.6115	0.0039
710.7918	0.0085
710.9721	0.0172
711.1524	0.0021
711.3327	-0.041
711.513	0.0108
711.6932	0.0028
711.8735	0.0299
712.0537	-0.0258
712.2339	-0.0221
712.4141	0.0301
712.5942	-0.013
712.7744	0.015
712.9545	0.0122
713.1346	0.0558
713.3147	0.0064
713.4947	-0.0023
713.6748	0.0185
713.8548	0.0239
714.0348	0.0252
714.2148	0.0158
714.3948	0.0031
714.5748	0.0096
714.7547	0.0101
714.9346	0.0311
715.1145	0.0012
715.2944	-0.014
715.4743	0.0292
715.6541	-0.0355
715.834	0.0064
716.0138	0.0138
716.1936	-0.0044
716.3733	-0.0032
716.5531	-0.0045
716.7328	0.021
716.9126	-0.0027
717.0923	-0.0228
717.2719	0.0392
717.4516	0.0139
717.6312	0.0023
717.8109	0.0271
717.9905	0.0443
718.1701	0.0263
718.3496	0.0216
718.5292	0.0098
718.7087	-0.0072
718.8882	0.0231
719.0677	0.0125
719.2472	-0.0112
719.4267	0.0286
719.6061	-0.014
719.7856	0.0301
719.965	0.0131
720.1443	0.001
720.3237	0.0151
720.5031	0.0242
720.6824	-0.0125
720.8617	0.0021
721.041	0.0305
721.2203	-0.0089
721.3995	0.0271
721.5788	-0.0025
721.758	0.0099
721.9372	0.0175
722.1164	-0.0048
722.2956	0.0038
722.4747	0.0096
722.6538	-0.0063
722.8329	0.0264
723.012	-0.0031
723.1911	0.0193
723.3702	0.0316
723.5492	0.0068
723.7282	-0.0001
723.9072	0.0284
724.0862	-0.0015
724.2652	0.0241
724.4441	-0.0018
724.623	0.0234
724.8019	0.0074
724.9808	-0.0011
725.1597	-0.0021
725.3385	0.0012
725.5174	0.005
725.6962	0.0064
725.875	0.024
726.0538	0.0161
726.2325	0.0258
726.4112	-0.0163
726.59	0.0022
726.7687	-0.0227
726.9474	0.0308
727.126	0.0232
727.3047	-0.004
727.4833	0.0136
727.6619	-0.0065
727.8405	-0.0093
728.0191	0.045
728.1976	-0.0085
728.3762	-0.0008
728.5547	-0.0041
728.7332	0.025
728.9116	-0.0088
729.0901	0.0192
729.2686	-0.0001
729.447	-0.0017
729.6254	0.0037
729.8038	0.0101
729.9821	-0.0222
730.1605	0.0047
730.3388	0.0094
730.5171	0.0122
730.6954	-0.0135
730.8737	-0.0013
731.0519	-0.0008
731.2302	0.0224
731.4084	-0.0102
731.5866	0.0031
731.7648	0.0029
731.9429	0.0192
732.1211	-0.0004
732.2992	0.0028
732.4773	-0.0063
732.6554	-0.0211
732.8335	0.0296
733.0115	0.0187
733.1896	0.001
733.3676	0.0386
733.5456	-0.003
733.7235	-0.0073
733.9015	-0.0052
734.0794	-0.0062
734.2574	-0.0175
734.4353	0.0383
734.6131	-0.0116
734.791	-0.0029
734.9689	-0.0133
735.1467	-0.0379
735.3245	0.0278
735.5023	-0.0057
735.68	-0.0119
735.8578	0.0319
736.0355	0.011
736.2132	-0.0051
736.3909	0.0123
736.5686	0.007
736.7463	-0.0171
736.9239	0.0046
737.1015	-0.0217
737.2791	0.0227
737.4567	0.0182
737.6343	-0.0001
737.8118	0.0153
737.9894	-0.0019
738.1669	0.0186
738.3444	0.0442
738.5218	-0.0116
738.6993	0.0143
738.8767	0.0105
739.0541	-0.008
739.2315	0.0068
739.4089	0.0155
739.5863	-0.0144
739.7636	0.0093
739.9409	-0.0063
740.1182	-0.0077
740.2955	-0.0001
740.4728	-0.0079
740.65	-0.0085
740.8272	0.0314
741.0044	-0.0198
741.1816	-0.015
741.3588	-0.0055
741.5359	-0.0081
741.7131	-0.0037
741.8902	-0.0258
742.0673	-0.0304
742.2444	0.017
742.4214	0.0052
742.5985	-0.0059
742.7755	0.0148
742.9525	-0.0203
743.1295	0.0064
743.3064	-0.0247
743.4834	0.0094
743.6603	0.0475
743.8372	-0.0219
744.0141	0.0301
744.191	0.0161
744.3678	-0.0239
744.5446	-0.0276
744.7215	0.0325
744.8982	0.0059
745.075	0.0665
745.2518	0.0049
745.4285	0.0196
745.6052	-0.0231
745.7819	0.0145
745.9586	-0.0077
746.1353	-0.021
746.3119	-0.009
746.4885	0.0246
746.6651	0.0103
746.8417	-0.001
747.0183	0.0302
747.1948	0.0055
747.3714	-0.0062
747.5479	0.0378
747.7244	-0.008
747.9008	-0.003
748.0773	0.0345
748.2537	0.0065
748.4301	0.0305
748.6065	-0.023
748.7829	-0.0092
748.9593	-0.0181
749.1356	0.0016
749.3119	0.0184
749.4882	0.0207
749.6645	-0.007
749.8408	-0.011
750.017	0.0298
750.1933	-0.0216
750.3695	0.0155
750.5457	-0.0038
750.7218	-0.0176
750.898	0.0053
751.0741	0.0215
751.2502	0.0099
751.4263	0.0002
751.6024	-0.0091
751.7784	-0.0081
751.9545	0.0156
752.1305	0.0244
752.3065	0.0105
752.4825	0.0055
752.6584	-0.0029
752.8344	0.0058
753.0103	-0.0023
753.1862	0.014
753.3621	-0.0098
753.5379	-0.0168
753.7138	0.0091
753.8896	0.0152
754.0654	-0.0163
754.2412	0.0333
754.417	0.0344
754.5927	0.0443
754.7685	0.0417
754.9442	0.0048
755.1199	0.015
755.2956	0.0187
755.4712	-0.0045
755.6469	-0.003
755.8225	0.0135
755.9981	0.0119
756.1736	0.0036
756.3492	0.0011
756.5248	0.0182
756.7003	-0.0105
756.8758	-0.0112
757.0513	0.0011
757.2267	0.0056
757.4022	-0.0153
757.5776	-0.0088
757.753	0.0214
757.9284	0.0075
758.1038	0.0121
758.2791	0.0241
758.4545	-0.022
758.6298	0.0015
758.8051	0.009
758.9803	0.0076
759.1556	0.0061
759.3308	-0.0139
759.506	-0.0005
759.6812	0.0216
759.8564	-0.0067
760.0316	-0.009
760.2067	0.0302
760.3819	-0.0013
760.557	-0.0063
760.732	0.0097
760.9071	0.0215
761.0821	-0.0152
761.2572	0.0105
761.4322	0.0092
761.6072	-0.0042
761.7821	-0.0268
761.9571	0.0372
762.132	-0.0158
762.3069	0.0129
762.4818	0.0161
762.6567	0.0028
762.8316	0.0318
763.0064	0.0086
763.1812	0.0152
763.356	-0.0149
763.5308	0.0124
763.7055	-0.0029
763.8803	-0.0076
764.055	0.0055
764.2297	-0.0022
764.4044	0.0086
764.579	-0.0028
764.7537	0.0011
764.9283	0.0082
765.1029	0.0128
765.2775	0.0158
765.4521	-0.0009
765.6266	0.009
765.8011	-0.0141
765.9756	0.0301
766.1501	0.0045
766.3246	0.0058
766.4991	0.013
766.6735	0.0249
766.8479	0.02
767.0223	0.0233
767.1967	-0.013
767.371	0.0145
767.5454	0.0156
767.7197	0.0224
767.894	0.0064
768.0683	0.0285
768.2425	0.0167
768.4168	0.0165
768.591	0.008
768.7652	0.0063
768.9394	-0.0174
769.1135	-0.0036
769.2877	0.0096
769.4618	0.0319
769.6359	-0.0072
769.81	0.0362
769.984	-0.002
770.1581	0.0229
770.3321	0.0065
770.5061	-0.0176
770.6801	0.0096
770.8541	0.0254
771.028	0.0286
771.202	0.0319
771.3759	0.0229
771.5498	-0.0014
771.7236	-0.0274
771.8975	0.0364
772.0713	0.02
772.2451	-0.0145
772.4189	0.0172
772.5927	-0.0168
772.7665	-0.0095
772.9402	0.0268
773.1139	-0.0116
773.2876	-0.0056
773.4613	0.0289
773.635	0.0366
773.8086	0.0147
773.9822	0.0107
774.1558	0.0301
774.3294	-0.011
774.503	0.0181
774.6765	0.0366
774.8501	0.0018
775.0236	0.0456
775.1971	-0.0071
775.3705	0.014
775.544	-0.0079
775.7174	0.0284
775.8908	0.0094
776.0642	0.0614
776.2376	0.0335
776.4109	0.004
776.5843	-0.0389
776.7576	-0.0328
776.9309	0.0073
777.1041	-0.0327
777.2774	-0.0125
777.4506	0.011
777.6238	-0.0183
777.797	0.0019
777.9702	0.0192
778.1434	0.0117
778.3165	-0.013
778.4896	-0.035
778.6627	0.0148
778.8358	-0.0166
779.0089	-0.0403
779.1819	0.0321
779.3549	-0.0222
779.5279	-0.018
779.7009	0.0382
779.8739	0.0427
780.0468	-0.0058
780.2197	0.0438
780.3926	-0.0074
780.5655	0.0102
780.7384	-0.0178
780.9112	0.0274
781.0841	0.0054
781.2569	0.0003
781.4297	-0.0083
781.6024	0.0295
781.7752	0.0742
781.9479	0.0347
782.1206	0.0067
782.2933	0.0032
782.466	0.0052
782.6386	0.0288
782.8113	-0.0178
782.9839	0.0004
783.1565	0.0335
783.329	-0.02
783.5016	0.0096
783.6741	0.0004
783.8466	0.0171
784.0191	0.0582
784.1916	0.0166
784.3641	-0.0243
784.5365	0.0208
784.7089	0.0073
784.8813	0.0071
785.0537	0.0288
785.2261	0.0163
785.3984	0.0402
785.5707	-0.0025
785.743	-0.0081
785.9153	-0.0039
786.0876	-0.0108
786.2598	0.0243
786.432	-0.0054
786.6042	0.0635
786.7764	-0.025
786.9486	-0.0225
787.1207	0.0642
787.2928	0.0253
787.4649	-0.0034
787.637	-0.0226
787.8091	0.0313
787.9811	0.0277
788.1532	0.0062
788.3252	0.0033
788.4972	0.0161
788.6691	0.0499
788.8411	-0.0265
789.013	-0.0089
789.1849	-0.021
789.3568	0.0005
789.5287	0.0506
789.7005	-0.04
789.8723	0.0016
790.0442	-0.0245
790.2159	-0.0331
790.3877	0.0456
790.5595	-0.0075
790.7312	0.0108
790.9029	0.0121
791.0746	0.0019
791.2463	-0.0307
791.4179	-0.0435
791.5896	0.043
791.7612	0.0449
791.9328	-0.0487
792.1044	-0.0015
792.2759	-0.0636
792.4474	0.0174
792.619	-0.0182
792.7905	0.0528
792.9619	0.0059
793.1334	0.0272
793.3048	0.0723
793.4762	0.0284
793.6476	-0.0467
793.819	-0.0165
793.9904	-0.0396
794.1617	-0.0173
794.333	0.0181
794.5043	0.012
794.6756	-0.0082
794.8469	0.0236
795.0181	-0.0033
795.1893	0.0163
795.3605	0.0308
795.5317	-0.0287
795.7029	-0.0365
795.874	0.0149
796.0452	0.0194
796.2163	0.0417
796.3873	0.0702
796.5584	-0.0069
796.7294	0.0116
796.9005	-0.0528
797.0715	-0.0468
797.2425	0.0277
797.4134	0.0341
797.5844	0.0663
797.7553	-0.0594
797.9262	0.054
798.0971	0.0091
798.2679	-0.0123
798.4388	0.0743
798.6096	0.0134
798.7804	0.0609
798.9512	0.0772
799.122	0.0749
799.2927	0.0403
799.4635	-0.0122
799.6342	-0.0469
799.8049	0.016
799.9755	0.0043
800.1462	0.035
800.3168	0.0437
800.4874	-0.0865
800.658	0.0392
800.8286	0.0057
800.9991	-0.055
801.1696	-0.038
801.3402	-0.0125
801.5106	0.0411
801.6811	-0.0247
801.8516	0.1418
802.022	0.0089
802.1924	-0.068
802.3628	0.0318
802.5332	0.0284
802.7035	0.055
802.8739	-0.0671
803.0442	-0.071
803.2145	0.0478
803.3847	-0.0142
803.555	0.0222
803.7252	-0.0214
803.8954	0.0162
804.0656	0.018
804.2358	0.003
804.4059	0.1058
804.5761	0.0536
804.7462	-0.0241
804.9163	-0.0114
805.0864	-0.0483
805.2564	0.0013
805.4264	-0.0071
805.5965	0.1021
805.7665	0.0562
805.9364	-0.0391
806.1064	0.0273
806.2763	0.0412
806.4462	-0.014
806.6161	0.0249
806.786	-0.0003
806.9559	0.0216
807.1257	-0.0034
807.2955	-0.0015
807.4653	-0.0202
807.6351	0.0196
807.8048	0.0736
807.9746	0.0212
808.1443	-0.0608
808.314	-0.005
808.4837	0.0483
808.6533	0.0203
808.8229	-0.0363
808.9926	-0.0112
809.1622	0.0262
809.3317	-0.0888
809.5013	-0.057
809.6708	0.0078
809.8403	0.0244
810.0098	0.0138
810.1793	0.0526
810.3488	0.0231
810.5182	0.0976
810.6876	-0.0083
810.857	0.0313
811.0264	-0.0205
811.1958	0.0695
811.3651	0.0135
811.5344	0.0289
811.7037	0.1128
811.873	0.0471
812.0422	0.0324
812.2115	0.0406
812.3807	-0.1436
812.5499	0.0149
812.7191	-0.0908
812.8882	-0.054
813.0574	-0.0137
813.2265	0.0214
813.3956	0.0916
813.5646	0.1036
813.7337	0.029
813.9027	-0.0653
814.0718	0.0439
814.2407	0.096
814.4097	0.0796
814.5787	0.0624
814.7476	0.0454
814.9165	0.0772
815.0854	-0.0137
815.2543	-0.0301
815.4232	0.0377
815.592	0.0699
815.7608	-0.1721
815.9296	-0.0253
816.0984	0.0923
816.2671	-0.2165
816.4359	0.1934
816.6046	0.068
816.7733	-0.0877
816.942	-0.0342
817.1106	0.0933
817.2793	-0.0261
817.4479	-0.0559
817.6165	0.0165
817.785	0.1357
817.9536	-0.151
818.1221	-0.0286
818.2906	-0.0633
818.4591	0.0637
818.6276	0.0823
818.7961	0.0943
818.9645	0.0892
819.1329	-0.0563
819.3013	-0.1173
819.4697	-0.0333
819.638	0.0168
819.8064	0.0364
819.9747	0.0156
820.143	-0.0935
820.3113	-0.0756
820.4795	0.086
820.6477	0.0635
820.816	0.02
820.9842	0.0566
821.1523	-0.0341
821.3205	-0.0521
821.4886	-0.0618
821.6567	0.0065
821.8248	0.1525
821.9929	-0.1184
822.1609	0.1734
822.329	-0.0351
822.497	0.0458
822.665	0.0537
822.833	0.0298
823.0009	0.0753
823.1688	0.0292
823.3367	-0.2048
823.5046	0.0449
823.6725	-0.1492
823.8404	-0.1218
824.0082	-0.1119
824.176	-0.0534
824.3438	0.2243
824.5116	-0.0319
824.6793	0.1541
824.847	-0.0564
825.0147	0.0037
825.1824	0.0306
825.3501	-0.0066
825.5177	-0.0657
825.6854	0.0629
825.853	-0.0627
826.0206	-0.0188
826.1881	0.0868
826.3557	0.102
826.5232	0.0872
826.6907	-0.0259
826.8582	0.1748
827.0257	0.0934
827.1931	0.1935
827.3605	-0.0307
827.528	-0.0269
827.6953	-0.2577
827.8627	-0.1376
828.03	0.1225
828.1974	0.0676
828.3647	-0.0886
828.532	-0.098
828.6992	0.1533
828.8665	-0.1833
829.0337	-0.0704
829.2009	-0.0864
829.3681	0.0826
829.5352	-0.1955
829.7024	0.2506
829.8695	0.0102
830.0366	0.1125
830.2037	0.0719
830.3707	0.0513
830.5378	0.0266
830.7048	-0.1988
830.8718	0.1457
831.0388	-0.0174
831.2057	-0
831.3727	0.041
831.5396	0.0776
831.7065	-0.827
831.8734	0.2306
832.0402	0.2501
832.2071	-0
832.3739	-0.2168
832.5407	-0.827
832.7075	-0.4476
832.8742	0.2912
833.041	-0.0435
833.2077	-0.0966
833.3744	0.0836
833.541	0.0474
833.7077	0.0235
833.8743	-0.0778
834.0409	0.1331
834.2075	0.0967
834.3741	-0.2102
834.5407	-0.124
834.7072	0.0917
834.8737	0.3513
835.0402	-0.03
835.2067	-0.1605
835.3731	-0.2041
835.5395	0.01
835.706	-0.3704
835.8723	0.2656
836.0387	0.095
836.2051	0.2116
836.3714	-0.1505
836.5377	0.0847
836.704	0.2568
836.8703	-0.2647
837.0365	-0.8598
837.2027	0.1252
837.3689	0.28
837.5351	0.1251
837.7013	-0.199
837.8674	-0.4423
838.0335	-0.017
838.1997	-0.2758
838.3657	-0
838.5318	-0.4903
838.6978	0.6456
838.8639	-0.5365
839.0299	0.2993
839.1958	0.1071
839.3618	-0
839.5277	0.2351
839.6937	-0.1729
839.8596	-0.2362
840.0254	-0.1955
840.1913	-0.4012
840.3571	-0.1454
840.523	-0
840.6888	0.2161
840.8545	-0.4034
841.0203	0.1341
841.186	0.1154
841.3517	0.2071
841.5174	-0.162
841.6831	-0.0847
841.8488	0.8726
842.0144	-0
842.18	0.2429
842.3456	-0.6849
842.5112	-0
842.6767	0.1397
842.8422	0.084
843.0077	0.575
843.1732	-0.3578
843.3387	0.1925
843.5042	-0
843.6696	-0.3357
843.835	-0.2008
844.0004	-0.3435
844.1657	-0
844.3311	-0
844.4964	-0.2947
844.6617	1.1822
844.827	1.502
844.9923	0.0662
845.1575	-0.192
845.3227	-0.5519
845.4879	-0.1995
845.6531	-0.0543
845.8183	-0
845.9834	-0
846.1485	0.0475
846.3136	0.3731
846.4787	-0.1997
846.6438	-0.0542
846.8088	0.3401
846.9738	-0.2374
847.1388	0.3354
847.3038	0.2591
847.4687	-0
847.6337	-0.0515
847.7986	-0.1571
847.9635	0.0072
848.1284	-0
848.2932	-0.0179
848.458	-0
848.6228	0.1021
848.7876	-0
848.9524	0.2931
849.1172	-1.9738
849.2819	-0.1109
849.4466	0.7437
849.6113	0.1618
849.7759	-0
849.9406	-0.1382
850.1052	-0.083
850.2698	-0
850.4344	0.04
850.599	-0.2558
850.7635	0.2138
850.928	0.316
851.0925	0.1251
851.257	-0.0658
851.4215	-0
851.5859	-0.0355
851.7503	-0
851.9147	1.2016
852.0791	-0.204
852.2434	0.1251
852.4078	-0
852.5721	0.2316
852.7364	-0.0524
852.9007	-0.0444
853.0649	-0
853.2291	0.4946
853.3934	-0
853.5575	0.1291
853.7217	1.2969
853.8859	-0.5542
854.05	-0.4702
854.2141	0.699
854.3782	-0
854.5423	-0.0317
854.7063	-0.0635
854.8703	0.0798
855.0343	-0.0948
855.1983	0.1484
855.3623	0.0699
855.5262	-0
855.6901	0.3789
855.854	-0.0136
856.0179	-0
856.1818	0.5056
856.3456	0.4972
856.5094	-0.699
856.6732	-0
856.837	-0.2795
857.0008	-0
857.1645	-0.2869
857.3282	-0.282
857.4919	1.152
857.6556	-0.0317
857.8192	-0.1261
857.9828	-0.2054
858.1465	-0.0527
858.31	0.1097
858.4736	-0.5852
858.6372	-0.0514
858.8007	1.2563
858.9642	0.4173
859.1277	0.6509
859.2911	-0.2833
859.4546	-0
859.618	-0.0107
859.7814	-0
859.9448	-0
860.1081	-0
860.2715	-0
860.4348	1.2436
860.5981	-0
860.7614	-0
860.9246	0.0502
861.0879	0.0311
861.2511	-0
861.4143	0.0683
861.5774	0.3526
861.7406	0.0809
861.9037	-0
862.0668	-0.5671
862.2299	-0
862.393	-0.0876
862.556	-0
862.7191	-0.2038
862.8821	-0.0921
863.0451	0.2545
863.208	-0
863.371	-0.4071
863.5339	0.0876
863.6968	1.6461
863.8597	-0.2975
864.0225	-0.0273
864.1854	-0.0397
864.3482	-0
864.511	0.8833
864.6737	-0.2541
864.8365	0.9233
864.9992	-0
865.1619	-0.1481
865.3246	-1.7796
865.4873	-0.3734
865.65	0.5594
865.8126	0.083
865.9752	-0.0229
866.1378	0.3073
866.3004	-0.0198
866.4629	-1.6799
866.6254	-0
866.7879	0.4736
866.9504	-0
867.1129	-0
867.2753	0.1073
867.4377	0.3126
867.6001	-0.3321
867.7625	0.277
867.9249	1.3916
868.0872	0.4597
868.2495	-0
868.4118	-0
868.5741	-0.6336
868.7363	-0
868.8986	-0.7384
869.0608	-0.5765
869.223	-0.2078
869.3851	-0
869.5473	0.1139
869.7094	-0
869.8715	-0.8916
870.0336	0.0625
870.1957	-0
870.3577	0.1896
870.5197	-0.1688
870.6817	-0
870.8437	0.0701
871.0057	0.2262
871.1676	0.2854
871.3295	-0
871.4914	-1.3838
871.6533	-0.3649
871.8151	0.4611
871.977	0.0491
872.1388	0.699
872.3006	0.1034
872.4623	-0.502
872.6241	-0.2471
872.7858	0.1068
872.9475	-0
873.1092	0.1149
873.2709	0.2834
873.4325	-1.71
873.5941	-0.2245
873.7557	-0
873.9173	0.3599
874.0789	0.0125
874.2404	-0
874.4019	0.0544
874.5634	-0
874.7249	0.5208
874.8863	0.1242
875.0478	-0.0174
875.2092	0.7086
875.3706	0.3997
875.5319	0.5534
875.6933	-0.0185
875.8546	-0.1566
876.0159	-0.0101
876.1772	-0
876.3385	0.1911
876.4997	-0
876.6609	-0
876.8221	-0
876.9833	0.1721
877.1445	0.4213
877.3056	-0
877.4667	-0.9447
877.6278	-0
877.7889	0.0637
877.9499	-0
878.111	-0.6617
878.272	-0
878.433	-0.1827
878.5939	-0.3569
878.7549	-0.3886
878.9158	-0
879.0767	-0
879.2376	-0.2207
879.3984	0.1058
879.5593	0.2574
879.7201	-1.0062
879.8809	-0.2103
880.0417	-0.0441
880.2024	0.5038
880.3632	-0.515
880.5239	0.2462
880.6846	-0
880.8452	-0.0211
881.0059	-0
881.1665	-0.2387
881.3271	0.3575
881.4877	1.7331
881.6483	-1.212
881.8088	-0
881.9693	-0.807
882.1298	-0.807
882.2903	-0.807
