Data from D4ACN5uM440nmA_Absorbance_13-50-25-627.txt Node
Date: Fri Feb 21 13:50:25 GMT 2025
User: LASERRRRR
Spectrometer: FLMT03099
Trigger mode: 0
Integration Time (sec): 1.500000E-2
Scans to average: 1
Electric dark correction enabled: true
Nonlinearity correction enabled: false
Boxcar width: 0
XAxis mode: Wavelengths
Number of Pixels in Spectrum: 3648
>>>>>Begin Spectral Data<<<<<
179.3399	-0.2141
179.5586	-0.2141
179.7771	-0.2141
179.9957	0.0636
180.2143	-0
180.4329	-0
180.6514	-0
180.8699	0.5465
181.0885	0.8094
181.307	-0.2051
181.5255	0.3733
181.744	-0.2742
181.9625	1.0825
182.181	-0
182.3994	-0.5246
182.6179	-0
182.8363	-0.2504
183.0547	-0.0606
183.2732	0.1605
183.4916	0.1208
183.71	0.3179
183.9284	0.3206
184.1467	0.0068
184.3651	-0.1118
184.5835	0.2632
184.8018	0.289
185.0201	0.3326
185.2385	0.115
185.4568	0.2258
185.6751	0.2166
185.8934	0.6127
186.1117	-0.1277
186.3299	0.2799
186.5482	0.2163
186.7664	0.2488
186.9847	0.0448
187.2029	0.5003
187.4211	0.0935
187.6393	0.2939
187.8575	0.2509
188.0757	0.5046
188.2939	0.2849
188.512	0.1369
188.7302	0.6193
188.9483	0.5107
189.1665	0.5875
189.3846	0.583
189.6027	0.5234
189.8208	0.0649
190.0389	0.284
190.257	0.027
190.475	0.0628
190.6931	0.2702
190.9111	0.1495
191.1292	0.1642
191.3472	0.1965
191.5652	0.2409
191.7832	0.2433
192.0012	0.1118
192.2192	0.3762
192.4371	0.15
192.6551	0.1221
192.873	0.2428
193.091	0.1797
193.3089	0.171
193.5268	0.2111
193.7447	0.2612
193.9626	0.1444
194.1805	0.2208
194.3984	0.2304
194.6162	0.3427
194.8341	0.3281
195.0519	0.2099
195.2697	0.2658
195.4875	0.3485
195.7054	0.283
195.9231	0.2254
196.1409	0.402
196.3587	0.4648
196.5765	0.3555
196.7942	0.2903
197.012	0.372
197.2297	0.3573
197.4474	0.4026
197.6651	0.4028
197.8828	0.3535
198.1005	0.4053
198.3182	0.4073
198.5358	0.404
198.7535	0.3683
198.9711	0.375
199.1888	0.422
199.4064	0.3409
199.624	0.3926
199.8416	0.3525
200.0592	0.4073
200.2767	0.4237
200.4943	0.4844
200.7119	0.3931
200.9294	0.431
201.1469	0.4254
201.3645	0.4217
201.582	0.4012
201.7995	0.4416
202.017	0.4308
202.2344	0.46
202.4519	0.398
202.6694	0.4282
202.8868	0.4531
203.1042	0.4084
203.3217	0.3909
203.5391	0.3875
203.7565	0.3593
203.9739	0.3656
204.1913	0.369
204.4086	0.371
204.626	0.3787
204.8433	0.3442
205.0607	0.3736
205.278	0.3669
205.4953	0.3301
205.7126	0.3241
205.9299	0.37
206.1472	0.3622
206.3644	0.3443
206.5817	0.3567
206.7989	0.363
207.0162	0.3316
207.2334	0.3359
207.4506	0.3218
207.6678	0.3193
207.885	0.3072
208.1022	0.2892
208.3194	0.3146
208.5365	0.3122
208.7537	0.2942
208.9708	0.2905
209.1879	0.2931
209.405	0.2909
209.6222	0.2818
209.8392	0.2731
210.0563	0.2822
210.2734	0.2577
210.4905	0.2686
210.7075	0.2771
210.9245	0.2803
211.1416	0.2647
211.3586	0.2791
211.5756	0.2517
211.7926	0.2679
212.0096	0.257
212.2265	0.2515
212.4435	0.2604
212.6604	0.2612
212.8774	0.2517
213.0943	0.2617
213.3112	0.2568
213.5281	0.2656
213.745	0.2389
213.9619	0.2444
214.1788	0.2566
214.3956	0.2434
214.6125	0.2334
214.8293	0.2576
215.0461	0.249
215.2629	0.2701
215.4798	0.2383
215.6965	0.2558
215.9133	0.233
216.1301	0.256
216.3469	0.2404
216.5636	0.2553
216.7803	0.2454
216.9971	0.2551
217.2138	0.2473
217.4305	0.2399
217.6472	0.2469
217.8639	0.2579
218.0805	0.2646
218.2972	0.2387
218.5138	0.2666
218.7305	0.264
218.9471	0.2462
219.1637	0.2756
219.3803	0.2582
219.5969	0.2459
219.8135	0.266
220.0301	0.2514
220.2466	0.2578
220.4632	0.2617
220.6797	0.256
220.8962	0.259
221.1127	0.2645
221.3292	0.2672
221.5457	0.2744
221.7622	0.2796
221.9787	0.2758
222.1951	0.2659
222.4116	0.2641
222.628	0.2784
222.8444	0.2838
223.0608	0.2771
223.2772	0.276
223.4936	0.2718
223.71	0.2863
223.9264	0.2749
224.1427	0.2805
224.3591	0.2775
224.5754	0.2841
224.7917	0.2925
225.008	0.2999
225.2243	0.3036
225.4406	0.298
225.6569	0.3109
225.8732	0.3087
226.0894	0.3013
226.3057	0.3077
226.5219	0.3192
226.7381	0.321
226.9543	0.3139
227.1705	0.3193
227.3867	0.3186
227.6029	0.3174
227.8191	0.3402
228.0352	0.339
228.2513	0.3441
228.4675	0.3384
228.6836	0.3416
228.8997	0.3477
229.1158	0.359
229.3319	0.3536
229.548	0.3539
229.764	0.3563
229.9801	0.3763
230.1961	0.3803
230.4121	0.3682
230.6282	0.3796
230.8442	0.3873
231.0602	0.3862
231.2761	0.3838
231.4921	0.3902
231.7081	0.3889
231.924	0.3999
232.14	0.4073
232.3559	0.4125
232.5718	0.4066
232.7877	0.408
233.0036	0.4071
233.2195	0.409
233.4353	0.4173
233.6512	0.414
233.867	0.4166
234.0829	0.4269
234.2987	0.4186
234.5145	0.4232
234.7303	0.4342
234.9461	0.4423
235.1619	0.4428
235.3776	0.434
235.5934	0.4368
235.8091	0.4546
236.0249	0.449
236.2406	0.4459
236.4563	0.4417
236.672	0.4387
236.8877	0.4463
237.1034	0.4504
237.319	0.4504
237.5347	0.4431
237.7503	0.452
237.966	0.4513
238.1816	0.4565
238.3972	0.4587
238.6128	0.4714
238.8284	0.4656
239.0439	0.4595
239.2595	0.456
239.475	0.4617
239.6906	0.4564
239.9061	0.4604
240.1216	0.4635
240.3371	0.4523
240.5526	0.4541
240.7681	0.4688
240.9836	0.4571
241.199	0.4602
241.4145	0.4482
241.6299	0.4442
241.8453	0.4311
242.0607	0.4361
242.2761	0.4252
242.4915	0.4278
242.7069	0.4254
242.9223	0.4197
243.1376	0.4072
243.353	0.4024
243.5683	0.3972
243.7836	0.3954
243.9989	0.3751
244.2142	0.3737
244.4295	0.38
244.6448	0.3668
244.86	0.3559
245.0753	0.3564
245.2905	0.3359
245.5057	0.3416
245.721	0.3399
245.9362	0.3366
246.1514	0.3176
246.3665	0.3115
246.5817	0.2997
246.7969	0.3005
247.012	0.2946
247.2271	0.2913
247.4423	0.2873
247.6574	0.2822
247.8725	0.2706
248.0876	0.2696
248.3026	0.2673
248.5177	0.2635
248.7328	0.2563
248.9478	0.2495
249.1628	0.2494
249.3779	0.2322
249.5929	0.2386
249.8079	0.2401
250.0228	0.2326
250.2378	0.2295
250.4528	0.224
250.6677	0.2231
250.8827	0.2148
251.0976	0.2186
251.3125	0.2227
251.5274	0.2148
251.7423	0.2114
251.9572	0.2079
252.172	0.2101
252.3869	0.2053
252.6017	0.2003
252.8166	0.2002
253.0314	0.1979
253.2462	0.1979
253.461	0.1998
253.6758	0.1936
253.8906	0.1914
254.1053	0.1931
254.3201	0.1923
254.5348	0.1867
254.7496	0.1821
254.9643	0.191
255.179	0.1847
255.3937	0.191
255.6083	0.1926
255.823	0.1898
256.0377	0.1841
256.2523	0.1803
256.467	0.1849
256.6816	0.1865
256.8962	0.1837
257.1108	0.1799
257.3254	0.1807
257.54	0.1793
257.7545	0.1806
257.9691	0.1827
258.1836	0.1729
258.3981	0.1777
258.6127	0.1775
258.8272	0.1769
259.0417	0.1745
259.2561	0.1755
259.4706	0.1801
259.6851	0.1757
259.8995	0.1736
260.114	0.1788
260.3284	0.1705
260.5428	0.1774
260.7572	0.1753
260.9716	0.1855
261.186	0.1772
261.4003	0.1717
261.6147	0.1776
261.829	0.1767
262.0433	0.1785
262.2577	0.1772
262.472	0.177
262.6863	0.1864
262.9005	0.1788
263.1148	0.177
263.3291	0.182
263.5433	0.1757
263.7576	0.1831
263.9718	0.1802
264.186	0.1809
264.4002	0.179
264.6144	0.1885
264.8286	0.1841
265.0427	0.1798
265.2569	0.1827
265.471	0.1829
265.6851	0.1792
265.8993	0.1792
266.1134	0.181
266.3275	0.1853
266.5415	0.182
266.7556	0.1878
266.9697	0.1878
267.1837	0.1824
267.3978	0.1846
267.6118	0.1794
267.8258	0.1852
268.0398	0.1901
268.2538	0.1816
268.4677	0.1853
268.6817	0.1768
268.8957	0.1754
269.1096	0.174
269.3235	0.1787
269.5374	0.1784
269.7514	0.1802
269.9652	0.1769
270.1791	0.1733
270.393	0.178
270.6068	0.1761
270.8207	0.173
271.0345	0.1767
271.2483	0.1709
271.4622	0.179
271.676	0.1745
271.8897	0.1742
272.1035	0.1764
272.3173	0.1785
272.531	0.1723
272.7448	0.1725
272.9585	0.1683
273.1722	0.1717
273.3859	0.1755
273.5996	0.1744
273.8133	0.1775
274.0269	0.1701
274.2406	0.1779
274.4542	0.1758
274.6679	0.1805
274.8815	0.1836
275.0951	0.1877
275.3087	0.1836
275.5223	0.1779
275.7358	0.1837
275.9494	0.1809
276.1629	0.1875
276.3765	0.1813
276.59	0.1788
276.8035	0.1848
277.017	0.1914
277.2305	0.1864
277.444	0.1847
277.6574	0.1836
277.8709	0.1913
278.0843	0.1889
278.2978	0.19
278.5112	0.1798
278.7246	0.1798
278.938	0.1856
279.1513	0.1891
279.3647	0.187
279.5781	0.1816
279.7914	0.1865
280.0047	0.1871
280.2181	0.1845
280.4314	0.1828
280.6447	0.1952
280.8579	0.1846
281.0712	0.1868
281.2845	0.1816
281.4977	0.1845
281.711	0.1813
281.9242	0.1832
282.1374	0.1835
282.3506	0.1851
282.5638	0.1902
282.7769	0.1824
282.9901	0.1835
283.2033	0.183
283.4164	0.1822
283.6295	0.1847
283.8426	0.182
284.0557	0.1838
284.2688	0.188
284.4819	0.1743
284.695	0.1909
284.908	0.1861
285.1211	0.1854
285.3341	0.1809
285.5471	0.183
285.7601	0.1792
285.9731	0.1859
286.1861	0.1841
286.3991	0.1918
286.612	0.1888
286.825	0.1918
287.0379	0.1876
287.2508	0.1875
287.4637	0.1893
287.6766	0.1859
287.8895	0.1868
288.1024	0.1922
288.3152	0.1935
288.5281	0.1848
288.7409	0.1937
288.9538	0.1863
289.1666	0.1881
289.3794	0.1873
289.5922	0.182
289.8049	0.1873
290.0177	0.1926
290.2304	0.1879
290.4432	0.1967
290.6559	0.1901
290.8686	0.1901
291.0813	0.1856
291.294	0.189
291.5067	0.193
291.7194	0.1871
291.932	0.1838
292.1447	0.1866
292.3573	0.1938
292.5699	0.1859
292.7825	0.1912
292.9951	0.1866
293.2077	0.1896
293.4203	0.1913
293.6328	0.1886
293.8454	0.1927
294.0579	0.1898
294.2704	0.1916
294.4829	0.1869
294.6954	0.1903
294.9079	0.1855
295.1204	0.1846
295.3328	0.2008
295.5453	0.1905
295.7577	0.1935
295.9701	0.1918
296.1825	0.1919
296.3949	0.189
296.6073	0.1858
296.8197	0.1888
297.0321	0.1918
297.2444	0.1869
297.4567	0.1924
297.6691	0.1908
297.8814	0.1951
298.0937	0.1873
298.306	0.189
298.5182	0.1953
298.7305	0.1907
298.9428	0.1914
299.155	0.1849
299.3672	0.189
299.5794	0.1871
299.7916	0.1936
300.0038	0.1893
300.216	0.1854
300.4282	0.1915
300.6403	0.1933
300.8525	0.1918
301.0646	0.1862
301.2767	0.195
301.4888	0.1875
301.7009	0.1919
301.913	0.1915
302.125	0.1887
302.3371	0.1874
302.5491	0.1911
302.7612	0.1988
302.9732	0.1938
303.1852	0.1888
303.3972	0.199
303.6092	0.195
303.8211	0.1859
304.0331	0.1847
304.245	0.1852
304.457	0.1903
304.6689	0.1887
304.8808	0.1803
305.0927	0.1915
305.3046	0.1806
305.5164	0.1844
305.7283	0.1799
305.9401	0.1747
306.152	0.1795
306.3638	0.1775
306.5756	0.1801
306.7874	0.169
306.9992	0.1721
307.2109	0.1716
307.4227	0.1711
307.6344	0.1743
307.8462	0.1669
308.0579	0.1682
308.2696	0.1667
308.4813	0.1683
308.693	0.1654
308.9046	0.1663
309.1163	0.1596
309.328	0.1613
309.5396	0.1573
309.7512	0.1603
309.9628	0.1528
310.1744	0.1474
310.386	0.1516
310.5976	0.1501
310.8091	0.1553
311.0207	0.1497
311.2322	0.1455
311.4437	0.1453
311.6552	0.1461
311.8667	0.1489
312.0782	0.1466
312.2897	0.1469
312.5012	0.1352
312.7126	0.138
312.924	0.1381
313.1355	0.1377
313.3469	0.1378
313.5583	0.1349
313.7696	0.1357
313.981	0.1361
314.1924	0.1328
314.4037	0.1382
314.6151	0.1307
314.8264	0.1367
315.0377	0.1395
315.249	0.1345
315.4603	0.1269
315.6716	0.1266
315.8828	0.1316
316.0941	0.1258
316.3053	0.127
316.5165	0.1272
316.7277	0.1271
316.9389	0.1323
317.1501	0.1333
317.3613	0.1276
317.5724	0.1244
317.7836	0.1232
317.9947	0.1283
318.2058	0.1311
318.417	0.127
318.6281	0.1249
318.8391	0.1289
319.0502	0.1255
319.2613	0.1258
319.4723	0.1274
319.6834	0.1274
319.8944	0.1326
320.1054	0.1264
320.3164	0.1235
320.5274	0.124
320.7383	0.1242
320.9493	0.1235
321.1602	0.1247
321.3712	0.1244
321.5821	0.1203
321.793	0.1294
322.0039	0.1274
322.2148	0.1271
322.4257	0.1248
322.6365	0.1253
322.8474	0.1305
323.0582	0.1235
323.269	0.1304
323.4798	0.1292
323.6906	0.1228
323.9014	0.1263
324.1122	0.122
324.3229	0.1355
324.5337	0.1266
324.7444	0.1325
324.9551	0.1292
325.1658	0.1279
325.3765	0.1335
325.5872	0.1297
325.7979	0.1264
326.0085	0.1299
326.2192	0.1266
326.4298	0.1356
326.6404	0.1361
326.851	0.1328
327.0616	0.1326
327.2722	0.1296
327.4828	0.1352
327.6933	0.1384
327.9039	0.131
328.1144	0.1333
328.3249	0.1379
328.5354	0.132
328.7459	0.1337
328.9564	0.1333
329.1669	0.1422
329.3773	0.1353
329.5878	0.1347
329.7982	0.1328
330.0086	0.1358
330.219	0.1314
330.4294	0.1418
330.6398	0.1368
330.8502	0.1385
331.0605	0.1359
331.2708	0.1328
331.4812	0.1379
331.6915	0.1414
331.9018	0.136
332.1121	0.1414
332.3224	0.1444
332.5326	0.1331
332.7429	0.1348
332.9531	0.1452
333.1633	0.1378
333.3735	0.1334
333.5837	0.1403
333.7939	0.1432
334.0041	0.1465
334.2143	0.1349
334.4244	0.1458
334.6346	0.1351
334.8447	0.1351
335.0548	0.1426
335.2649	0.1455
335.475	0.1464
335.685	0.1407
335.8951	0.1428
336.1051	0.1403
336.3152	0.1429
336.5252	0.1391
336.7352	0.14
336.9452	0.1473
337.1552	0.1426
337.3652	0.1405
337.5751	0.1412
337.7851	0.1381
337.995	0.1461
338.2049	0.1448
338.4148	0.1448
338.6247	0.1387
338.8346	0.1426
339.0445	0.1405
339.2543	0.1488
339.4642	0.1394
339.674	0.1421
339.8838	0.1439
340.0936	0.138
340.3034	0.1444
340.5132	0.1387
340.7229	0.1464
340.9327	0.1555
341.1424	0.1466
341.3522	0.1403
341.5619	0.1508
341.7716	0.1493
341.9813	0.1503
342.1909	0.1538
342.4006	0.15
342.6102	0.1503
342.8199	0.1515
343.0295	0.1507
343.2391	0.1542
343.4487	0.1585
343.6583	0.1573
343.8679	0.1513
344.0774	0.1522
344.287	0.1584
344.4965	0.1562
344.706	0.1585
344.9155	0.1561
345.125	0.156
345.3345	0.164
345.544	0.155
345.7534	0.1577
345.9629	0.1579
346.1723	0.166
346.3817	0.1611
346.5911	0.1666
346.8005	0.1659
347.0099	0.1662
347.2193	0.17
347.4286	0.1768
347.638	0.1689
347.8473	0.1703
348.0566	0.1701
348.2659	0.1766
348.4752	0.169
348.6845	0.1628
348.8937	0.1722
349.103	0.1697
349.3122	0.168
349.5214	0.1789
349.7306	0.179
349.9398	0.1751
350.149	0.173
350.3582	0.1819
350.5674	0.175
350.7765	0.1828
350.9856	0.1767
351.1948	0.1799
351.4039	0.1851
351.613	0.1811
351.822	0.1802
352.0311	0.1803
352.2402	0.1828
352.4492	0.1817
352.6582	0.1783
352.8672	0.1834
353.0762	0.1791
353.2852	0.1759
353.4942	0.1793
353.7032	0.18
353.9121	0.1841
354.1211	0.1886
354.33	0.1844
354.5389	0.1775
354.7478	0.1807
354.9567	0.189
355.1655	0.1821
355.3744	0.1923
355.5833	0.1761
355.7921	0.1823
356.0009	0.1907
356.2097	0.1848
356.4185	0.1856
356.6273	0.1867
356.8361	0.189
357.0448	0.1867
357.2536	0.185
357.4623	0.1905
357.671	0.1909
357.8797	0.1885
358.0884	0.1791
358.2971	0.1898
358.5057	0.1981
358.7144	0.1922
358.923	0.2021
359.1316	0.1935
359.3402	0.1982
359.5488	0.1908
359.7574	0.2027
359.966	0.2021
360.1746	0.1972
360.3831	0.1963
360.5916	0.2067
360.8002	0.206
361.0087	0.2061
361.2172	0.2029
361.4256	0.2038
361.6341	0.2034
361.8426	0.2084
362.051	0.2087
362.2594	0.2117
362.4678	0.2143
362.6762	0.2099
362.8846	0.2062
363.093	0.2065
363.3014	0.217
363.5097	0.2192
363.718	0.217
363.9264	0.2122
364.1347	0.2126
364.343	0.2177
364.5513	0.2179
364.7595	0.2277
364.9678	0.2161
365.176	0.2247
365.3842	0.2213
365.5925	0.2139
365.8007	0.222
366.0089	0.236
366.217	0.2204
366.4252	0.2274
366.6333	0.2271
366.8415	0.2201
367.0496	0.2276
367.2577	0.2411
367.4658	0.2363
367.6739	0.2223
367.882	0.2356
368.09	0.2291
368.2981	0.2443
368.5061	0.2414
368.7141	0.2366
368.9221	0.2463
369.1301	0.2387
369.3381	0.2473
369.5461	0.2421
369.754	0.2409
369.962	0.2388
370.1699	0.2433
370.3778	0.2453
370.5857	0.2427
370.7936	0.2409
371.0015	0.2416
371.2093	0.2399
371.4172	0.2508
371.625	0.2512
371.8328	0.2396
372.0406	0.2511
372.2484	0.2521
372.4562	0.2521
372.664	0.2534
372.8717	0.2506
373.0795	0.2655
373.2872	0.2575
373.4949	0.2569
373.7026	0.2488
373.9103	0.2495
374.118	0.2579
374.3256	0.2616
374.5333	0.2535
374.7409	0.2525
374.9485	0.2682
375.1561	0.2611
375.3637	0.2507
375.5713	0.2693
375.7789	0.2602
375.9864	0.2514
376.194	0.2674
376.4015	0.2756
376.609	0.2688
376.8165	0.269
377.024	0.2672
377.2315	0.2702
377.4389	0.2587
377.6464	0.2804
377.8538	0.2725
378.0612	0.266
378.2686	0.2698
378.476	0.2808
378.6834	0.273
378.8908	0.2734
379.0981	0.2765
379.3055	0.276
379.5128	0.2825
379.7201	0.2711
379.9274	0.2751
380.1347	0.2751
380.342	0.2804
380.5492	0.2792
380.7565	0.2788
380.9637	0.2879
381.1709	0.281
381.3781	0.2857
381.5853	0.2729
381.7925	0.284
381.9997	0.2863
382.2068	0.2844
382.4139	0.2781
382.6211	0.2869
382.8282	0.2898
383.0353	0.2956
383.2424	0.2857
383.4494	0.2794
383.6565	0.2943
383.8635	0.2858
384.0706	0.298
384.2776	0.2917
384.4846	0.2891
384.6916	0.2852
384.8986	0.2957
385.1055	0.2968
385.3125	0.2993
385.5194	0.2948
385.7263	0.2892
385.9333	0.3037
386.1402	0.3004
386.347	0.2941
386.5539	0.289
386.7608	0.2912
386.9676	0.299
387.1744	0.2881
387.3813	0.2966
387.5881	0.2824
387.7948	0.2901
388.0016	0.2982
388.2084	0.2943
388.4151	0.2862
388.6219	0.2916
388.8286	0.302
389.0353	0.2922
389.242	0.2817
389.4487	0.282
389.6553	0.2885
389.862	0.2777
390.0686	0.2954
390.2753	0.3021
390.4819	0.2903
390.6885	0.2846
390.8951	0.281
391.1016	0.2762
391.3082	0.2847
391.5147	0.2778
391.7213	0.2786
391.9278	0.2705
392.1343	0.2769
392.3408	0.2721
392.5473	0.2706
392.7537	0.2731
392.9602	0.2603
393.1666	0.2795
393.373	0.2686
393.5794	0.2683
393.7858	0.2655
393.9922	0.2671
394.1986	0.2646
394.4049	0.2642
394.6113	0.2628
394.8176	0.2662
395.0239	0.2597
395.2302	0.2628
395.4365	0.2596
395.6428	0.2636
395.8491	0.2538
396.0553	0.2618
396.2615	0.2492
396.4678	0.2613
396.674	0.2544
396.8802	0.2553
397.0863	0.2451
397.2925	0.2535
397.4987	0.2455
397.7048	0.2527
397.9109	0.2463
398.117	0.2471
398.3231	0.2472
398.5292	0.245
398.7353	0.245
398.9413	0.2519
399.1474	0.2536
399.3534	0.2461
399.5594	0.2558
399.7654	0.2509
399.9714	0.2468
400.1774	0.241
400.3833	0.2565
400.5893	0.2466
400.7952	0.2617
401.0011	0.2468
401.207	0.239
401.4129	0.2398
401.6188	0.2479
401.8247	0.2495
402.0305	0.2413
402.2364	0.2518
402.4422	0.2481
402.648	0.2474
402.8538	0.2434
403.0596	0.2439
403.2654	0.2538
403.4711	0.2399
403.6768	0.2434
403.8826	0.2532
404.0883	0.2512
404.294	0.2536
404.4997	0.2446
404.7054	0.2459
404.911	0.2432
405.1167	0.2424
405.3223	0.2399
405.5279	0.2455
405.7335	0.244
405.9391	0.2429
406.1447	0.255
406.3502	0.2455
406.5558	0.2415
406.7613	0.2439
406.9668	0.246
407.1724	0.2476
407.3778	0.2466
407.5833	0.2467
407.7888	0.249
407.9942	0.2446
408.1997	0.2416
408.4051	0.2368
408.6105	0.2472
408.8159	0.241
409.0213	0.252
409.2267	0.2404
409.432	0.2479
409.6374	0.246
409.8427	0.2447
410.048	0.2506
410.2533	0.244
410.4586	0.2296
410.6639	0.2423
410.8691	0.2357
411.0744	0.242
411.2796	0.2426
411.4848	0.2445
411.69	0.2357
411.8952	0.2432
412.1004	0.2467
412.3056	0.2436
412.5107	0.2428
412.7158	0.2502
412.921	0.2438
413.1261	0.2478
413.3312	0.2458
413.5362	0.2522
413.7413	0.2457
413.9464	0.2365
414.1514	0.2321
414.3564	0.2357
414.5614	0.2422
414.7664	0.245
414.9714	0.2254
415.1764	0.2408
415.3813	0.2465
415.5863	0.2405
415.7912	0.2446
415.9961	0.234
416.201	0.2452
416.4059	0.2356
416.6108	0.24
416.8156	0.2449
417.0205	0.2292
417.2253	0.2359
417.4301	0.245
417.6349	0.236
417.8397	0.2354
418.0445	0.2297
418.2492	0.2295
418.454	0.2306
418.6587	0.2348
418.8634	0.2298
419.0681	0.2337
419.2728	0.2287
419.4775	0.236
419.6822	0.2292
419.8868	0.2392
420.0915	0.2209
420.2961	0.22
420.5007	0.2386
420.7053	0.2269
420.9099	0.2281
421.1144	0.2262
421.319	0.2211
421.5235	0.2183
421.728	0.2336
421.9325	0.2313
422.137	0.2165
422.3415	0.2207
422.546	0.2121
422.7504	0.2164
422.9549	0.2186
423.1593	0.217
423.3637	0.2152
423.5681	0.2137
423.7725	0.2232
423.9769	0.2254
424.1812	0.2121
424.3856	0.2121
424.5899	0.2094
424.7942	0.2156
424.9985	0.2065
425.2028	0.2107
425.4071	0.2152
425.6113	0.2078
425.8156	0.2183
426.0198	0.2085
426.224	0.2076
426.4282	0.1951
426.6324	0.2109
426.8366	0.2013
427.0407	0.1998
427.2449	0.194
427.449	0.198
427.6531	0.2064
427.8572	0.2005
428.0613	0.2038
428.2654	0.1914
428.4694	0.1912
428.6735	0.1872
428.8775	0.1932
429.0815	0.1846
429.2855	0.1863
429.4895	0.1902
429.6935	0.1872
429.8975	0.1806
430.1014	0.186
430.3053	0.1887
430.5093	0.1781
430.7132	0.1842
430.9171	0.1814
431.1209	0.1764
431.3248	0.1635
431.5286	0.1745
431.7325	0.1772
431.9363	0.1701
432.1401	0.1646
432.3439	0.1768
432.5477	0.154
432.7514	0.1676
432.9552	0.1594
433.1589	0.1573
433.3627	0.1574
433.5664	0.1595
433.7701	0.1607
433.9737	0.16
434.1774	0.1575
434.3811	0.1471
434.5847	0.1567
434.7883	0.1548
434.9919	0.1396
435.1955	0.1451
435.3991	0.1429
435.6027	0.1447
435.8062	0.1594
436.0098	0.1422
436.2133	0.1421
436.4168	0.1319
436.6203	0.1287
436.8238	0.1273
437.0272	0.1358
437.2307	0.1276
437.4341	0.1201
437.6375	0.1287
437.841	0.1051
438.0443	0.1335
438.2477	0.1259
438.4511	0.1156
438.6545	0.1132
438.8578	0.1185
439.0611	0.1133
439.2644	0.1155
439.4677	0.1117
439.671	0.1029
439.8743	0.1152
440.0775	0.1099
440.2808	0.1043
440.484	0.0981
440.6872	0.1107
440.8904	0.0945
441.0936	0.1019
441.2967	0.0919
441.4999	0.091
441.703	0.0956
441.9062	0.0958
442.1093	0.1041
442.3124	0.0989
442.5155	0.093
442.7185	0.0881
442.9216	0.0861
443.1246	0.0862
443.3276	0.0827
443.5307	0.0717
443.7337	0.0826
443.9366	0.0804
444.1396	0.0761
444.3426	0.0794
444.5455	0.0689
444.7484	0.0732
444.9513	0.0723
445.1542	0.0766
445.3571	0.0708
445.56	0.0703
445.7628	0.0696
445.9657	0.078
446.1685	0.0784
446.3713	0.0722
446.5741	0.0764
446.7769	0.0786
446.9797	0.0578
447.1824	0.0636
447.3852	0.0491
447.5879	0.0626
447.7906	0.0512
447.9933	0.0637
448.196	0.0505
448.3986	0.0515
448.6013	0.0476
448.8039	0.0605
449.0066	0.0568
449.2092	0.0536
449.4118	0.0476
449.6143	0.0516
449.8169	0.0467
450.0195	0.051
450.222	0.0495
450.4245	0.0483
450.627	0.0424
450.8295	0.049
451.032	0.0418
451.2345	0.0355
451.4369	0.0439
451.6394	0.0413
451.8418	0.0388
452.0442	0.0362
452.2466	0.0365
452.449	0.0403
452.6513	0.0331
452.8537	0.0368
453.056	0.0371
453.2583	0.037
453.4607	0.0286
453.663	0.0338
453.8652	0.0298
454.0675	0.0405
454.2697	0.0208
454.472	0.0257
454.6742	0.0288
454.8764	0.0342
455.0786	0.0304
455.2808	0.0266
455.4829	0.0302
455.6851	0.0224
455.8872	0.0206
456.0893	0.0308
456.2915	0.0234
456.4935	0.0355
456.6956	0.022
456.8977	0.0207
457.0997	0.0316
457.3018	0.0168
457.5038	0.0276
457.7058	0.0319
457.9078	0.0281
458.1098	0.0255
458.3117	0.0259
458.5137	0.015
458.7156	0.0254
458.9175	0.0215
459.1194	0.0231
459.3213	0.0134
459.5232	0.0243
459.725	0.02
459.9269	0.0297
460.1287	0.012
460.3305	0.0154
460.5323	0.0265
460.7341	0.0229
460.9359	0.0133
461.1376	0.0195
461.3394	0.0246
461.5411	0.0189
461.7428	0.0183
461.9445	0.0144
462.1462	0.01
462.3479	0.0219
462.5495	0.0215
462.7512	0.0204
462.9528	0.0133
463.1544	0.0186
463.356	0.0152
463.5576	0.0223
463.7592	0.0149
463.9607	0.0156
464.1623	0.011
464.3638	0.0073
464.5653	0.0179
464.7668	0.0141
464.9683	0.0166
465.1697	0.0134
465.3712	0.0142
465.5726	0.0122
465.7741	0.0164
465.9755	0.0141
466.1769	0.0089
466.3782	0.0148
466.5796	0.0134
466.7809	0.0139
466.9823	0.0154
467.1836	0.0017
467.3849	0.0107
467.5862	0.0063
467.7875	0.0177
467.9887	0.0132
468.19	0.0051
468.3912	0.0227
468.5924	0.0056
468.7936	0.0132
468.9948	0.0008
469.196	0.0052
469.3972	0.0044
469.5983	0.0148
469.7994	0.0114
470.0006	0.0006
470.2017	0.0092
470.4027	0.0263
470.6038	0.0079
470.8049	0.01
471.0059	0.0127
471.2069	0.0139
471.408	0.0152
471.6089	0.0141
471.8099	0.0094
472.0109	0.0117
472.2119	0.0141
472.4128	0.0054
472.6137	0.009
472.8146	0.0111
473.0155	0.0148
473.2164	0.0105
473.4173	0.0031
473.6181	0.0021
473.819	0.0127
474.0198	0.0049
474.2206	0
474.4214	0.0114
474.6222	0.0006
474.8229	0.004
475.0237	0.0081
475.2244	0.0128
475.4251	0.0122
475.6258	0.0094
475.8265	0.014
476.0272	0.0096
476.2278	-0.0003
476.4285	0.0026
476.6291	0.0003
476.8297	0.0126
477.0303	-0.0013
477.2309	0.0033
477.4315	0.0128
477.632	-0.0012
477.8326	0.0095
478.0331	0.0124
478.2336	0.0042
478.4341	0.0083
478.6346	0.0021
478.8351	-0.0004
479.0355	0.0174
479.236	0.01
479.4364	0.0021
479.6368	0.0079
479.8372	0.0072
480.0376	0.0061
480.2379	0.0039
480.4383	0.0158
480.6386	-0.0026
480.8389	0.014
481.0392	0.0073
481.2395	0.0175
481.4398	-0.001
481.6401	0.004
481.8403	0.0051
482.0405	0.007
482.2408	0.0112
482.441	0.0095
482.6411	0.008
482.8413	0.0001
483.0415	0.016
483.2416	-0.0011
483.4417	0.0031
483.6419	0.0034
483.8419	0.008
484.042	0.0031
484.2421	0.0017
484.4422	0.004
484.6422	0.0022
484.8422	0.0055
485.0422	0.0115
485.2422	0.0055
485.4422	0.0051
485.6422	0.0044
485.8421	0.0047
486.042	0.0076
486.242	0.0011
486.4419	0.0061
486.6417	0.0002
486.8416	0.0076
487.0415	0.0061
487.2413	-0.002
487.4411	0.0039
487.641	0.0022
487.8408	0.0115
488.0405	0.012
488.2403	0.0019
488.4401	0.0133
488.6398	0.0078
488.8395	0.0084
489.0392	0.0076
489.2389	0.0096
489.4386	-0.0082
489.6383	0.0011
489.8379	0.0019
490.0376	0.0074
490.2372	-0.0008
490.4368	0.0024
490.6364	0.0005
490.836	0.0039
491.0355	0.0031
491.2351	0.0042
491.4346	0.0045
491.6341	0.0047
491.8336	0.0085
492.0331	0.0036
492.2326	0.0114
492.432	0.0083
492.6315	0.0123
492.8309	0.0156
493.0303	0.0082
493.2297	0.0046
493.4291	0.0026
493.6284	0.0164
493.8278	0.0002
494.0271	0.0075
494.2264	0.0033
494.4257	0.014
494.625	0.0043
494.8243	0.004
495.0236	0.0107
495.2228	0.015
495.422	0.0106
495.6213	0.0064
495.8205	0.0089
496.0196	0.0092
496.2188	0.0011
496.418	0.0055
496.6171	0.0019
496.8162	0.0094
497.0153	0.0073
497.2144	0.0105
497.4135	0.0093
497.6126	0.0067
497.8116	0.0012
498.0107	0.0063
498.2097	0.014
498.4087	0.0032
498.6077	0.0009
498.8067	0.0028
499.0056	-0.0005
499.2046	0.0062
499.4035	0.0064
499.6024	-0.003
499.8013	0.0089
500.0002	0.0069
500.199	0.01
500.3979	-0.0019
500.5967	0.0044
500.7956	0.0087
500.9944	0.0056
501.1932	0.0081
501.3919	0.0084
501.5907	0.0157
501.7895	-0.0016
501.9882	0.0124
502.1869	0.013
502.3856	0.0054
502.5843	0.0069
502.783	0.0062
502.9816	0.0085
503.1803	0.0051
503.3789	0.017
503.5775	0.0051
503.7761	0.004
503.9747	0.0055
504.1732	0.0066
504.3718	0.0173
504.5703	0.0061
504.7689	0.004
504.9674	0.012
505.1658	0.0074
505.3643	0.0089
505.5628	0.0141
505.7612	0.0085
505.9597	0.0027
506.1581	0.004
506.3565	0.0029
506.5549	-0.0032
506.7532	0.0024
506.9516	0.0066
507.1499	0.0018
507.3482	0.0041
507.5465	0.0113
507.7448	0.0061
507.9431	0.0089
508.1414	0.0053
508.3396	0.0084
508.5379	0.0045
508.7361	0.0086
508.9343	0.0046
509.1325	0.006
509.3306	0.0142
509.5288	0.0017
509.7269	0.0105
509.9251	0.0091
510.1232	0.0099
510.3213	0.0086
510.5193	0.0063
510.7174	0.0022
510.9154	0.0146
511.1135	0.0097
511.3115	0.0035
511.5095	0.006
511.7075	0.0081
511.9055	0.0109
512.1034	-0.0005
512.3014	0.0034
512.4993	0.0187
512.6972	-0.0002
512.8951	0.0052
513.093	0.0123
513.2908	0.0149
513.4887	0.0078
513.6865	0.0057
513.8844	0.0089
514.0822	0.005
514.2799	-0.002
514.4777	0.0063
514.6755	0.0027
514.8732	-0.0004
515.0709	0.0084
515.2687	0.0015
515.4664	0.0165
515.664	0.0068
515.8617	0.0086
516.0594	0.0072
516.257	0.0003
516.4546	0.0171
516.6522	0.007
516.8498	0.0075
517.0474	0.0129
517.2449	0.0033
517.4425	0.0116
517.64	0.0088
517.8375	0.0086
518.035	0.0039
518.2325	0.0009
518.43	0.0067
518.6274	0.0063
518.8249	-0.004
519.0223	0.015
519.2197	0.0047
519.4171	0.0004
519.6145	0.0123
519.8118	-0.0063
520.0092	-0.0025
520.2065	0.0158
520.4038	0.0028
520.6011	0.0078
520.7984	0.0165
520.9956	0.0063
521.1929	0.0065
521.3901	0.0091
521.5874	0.0067
521.7846	-0.0034
521.9818	0.0065
522.1789	0.0067
522.3761	0.0093
522.5732	0.0025
522.7704	0.0042
522.9675	-0.005
523.1646	0.0042
523.3617	0.0122
523.5587	0.0151
523.7558	0.0014
523.9528	0.0207
524.1498	0.0081
524.3468	0.0095
524.5438	0.0127
524.7408	0.0041
524.9378	0.0185
525.1347	0.0082
525.3316	-0.0029
525.5285	0.0042
525.7254	0.0055
525.9223	0.0155
526.1192	0.0063
526.316	0.0138
526.5129	0.0144
526.7097	0.0098
526.9065	0.0162
527.1033	0.0113
527.3	0.0102
527.4968	0.0104
527.6935	0.002
527.8903	0.0097
528.087	0.0081
528.2837	0.0166
528.4804	-0.0016
528.677	0.0035
528.8737	0.006
529.0703	0.0097
529.2669	0.0113
529.4635	0.0011
529.6601	-0.0043
529.8567	0.0008
530.0532	0.0044
530.2498	0.003
530.4463	-0.0093
530.6428	-0.0007
530.8393	0.0091
531.0358	0.0009
531.2322	0.008
531.4287	0.0001
531.6251	0.0036
531.8215	0.0035
532.0179	0.0049
532.2143	0.0095
532.4107	0.0105
532.607	0.0124
532.8034	0.0058
532.9997	0.0027
533.196	0.0068
533.3923	0.0182
533.5886	0.0015
533.7848	0.0071
533.9811	0.0049
534.1773	0.0069
534.3735	0.0142
534.5697	0.0064
534.7659	0.0057
534.9621	0.0044
535.1582	0.0083
535.3544	0.0136
535.5505	0.0067
535.7466	0.0082
535.9427	0.0046
536.1387	0.0004
536.3348	0.0061
536.5308	0.0047
536.7269	0.0162
536.9229	0.0091
537.1189	0.0039
537.3148	0.0159
537.5108	0.0053
537.7068	0.0074
537.9027	0.0013
538.0986	0.0097
538.2945	-0.0008
538.4904	0.0076
538.6863	-0.0032
538.8821	0.0143
539.078	0.0057
539.2738	0.0057
539.4696	0.0045
539.6654	0.0023
539.8611	0.0057
540.0569	0.0022
540.2526	0.0178
540.4484	-0.0013
540.6441	-0.0007
540.8398	0.0227
541.0355	-0.0067
541.2311	0.0045
541.4268	0.0176
541.6224	0.0146
541.818	0.0144
542.0136	0.0065
542.2092	0.0054
542.4048	-0.0032
542.6003	0.0028
542.7959	0.0136
542.9914	0.0009
543.1869	0.0096
543.3824	0.0115
543.5779	0.0094
543.7734	0.0155
543.9688	0.0037
544.1642	0.0082
544.3596	0.0174
544.555	0.0012
544.7504	0.0205
544.9458	0.0106
545.1411	0.0068
545.3365	0.0098
545.5318	0.016
545.7271	0.016
545.9224	0.007
546.1177	0.0049
546.3129	0.0083
546.5081	0.0027
546.7034	0.0026
546.8986	0.0039
547.0938	0.0156
547.289	0.0087
547.4841	0.0034
547.6793	0.005
547.8744	0.0107
548.0695	0.0075
548.2646	-0.0023
548.4597	-0.0005
548.6548	0.0135
548.8498	0.0126
549.0448	0.0099
549.2399	0.0117
549.4349	0.0013
549.6298	0.0091
549.8248	0.0028
550.0198	0.0112
550.2147	0.0142
550.4096	-0.0007
550.6045	0.0026
550.7994	0.0098
550.9943	0.0099
551.1892	-0.0104
551.384	0.0094
551.5788	0.0033
551.7737	0.0069
551.9685	0.0076
552.1632	0.0014
552.358	0.0018
552.5528	0.0078
552.7475	0.0083
552.9422	0.0039
553.1369	0.0134
553.3316	0.0053
553.5263	0.0088
553.7209	-0.0008
553.9156	0.0105
554.1102	0.0115
554.3048	0.0124
554.4994	0.0141
554.694	0.0075
554.8885	0.0077
555.0831	0.0093
555.2776	0.0091
555.4721	0.0087
555.6666	0.0088
555.8611	0.0086
556.0555	0.0041
556.25	0.009
556.4444	-0.0079
556.6388	0.0047
556.8332	0.0069
557.0276	0.0078
557.222	0.0016
557.4163	0.0136
557.6107	0.0061
557.805	0.0032
557.9993	0.0105
558.1936	0.0067
558.3879	0.0028
558.5821	0.0002
558.7764	-0.0067
558.9706	0.0069
559.1648	0.0127
559.359	-0.0026
559.5532	0.0048
559.7473	0.0021
559.9415	0.0053
560.1356	0.0175
560.3297	-0.0028
560.5238	0.0129
560.7179	0.0047
560.9119	0.0038
561.106	0.0003
561.3	0.0082
561.494	-0.0044
561.688	0.007
561.882	0.0068
562.076	0.0187
562.2699	0.0187
562.4639	0.0157
562.6578	0.0127
562.8517	0.0001
563.0456	0.0073
563.2395	0.0056
563.4333	0.0093
563.6272	-0.0007
563.821	0.0143
564.0148	0.0074
564.2086	0.0051
564.4024	0.0123
564.5961	0.0068
564.7899	0.0062
564.9836	0.0013
565.1773	0.0134
565.371	0.0028
565.5647	0.0113
565.7584	0.0083
565.952	0.0086
566.1456	-0.003
566.3393	0.0118
566.5329	0.0013
566.7264	0.0096
566.92	0.0015
567.1136	0.0002
567.3071	-0.0027
567.5006	0.0033
567.6941	-0.0007
567.8876	0.0107
568.0811	0.0157
568.2745	-0.002
568.468	0.0002
568.6614	0.0082
568.8548	0.0062
569.0482	0.0061
569.2416	0.0011
569.4349	0.0019
569.6283	0.0027
569.8216	0.0006
570.0149	-0.0011
570.2082	0.0075
570.4015	0.0028
570.5947	0.0059
570.788	0.0096
570.9812	0.0059
571.1744	0.0078
571.3676	0.0014
571.5608	0.0024
571.754	0.0093
571.9471	0.0069
572.1402	0.0087
572.3333	0.0025
572.5264	0.0046
572.7195	0.0014
572.9126	0.0043
573.1057	0.0031
573.2987	0.002
573.4917	0.0058
573.6847	0.0023
573.8777	0.0034
574.0707	0.0079
574.2636	0.0036
574.4566	0.0008
574.6495	0.0018
574.8424	0.0069
575.0353	0.0091
575.2281	0.0071
575.421	0.0049
575.6138	0.0018
575.8067	0.0014
575.9995	0.006
576.1923	0.0043
576.385	0.008
576.5778	0.0101
576.7706	0.0073
576.9633	0.0055
577.156	-0.0012
577.3487	0.0039
577.5414	0.0053
577.734	0.0043
577.9267	0.004
578.1193	0.0078
578.3119	0.0046
578.5045	0.0084
578.6971	0.0033
578.8897	0.0051
579.0822	0.0082
579.2747	0.0033
579.4673	0.0049
579.6598	0.0085
579.8522	0.0061
580.0447	0.0069
580.2372	0.0051
580.4296	0.0089
580.622	-0.0015
580.8144	0.0071
581.0068	0.0046
581.1992	0.0051
581.3915	0.0001
581.5839	0.0061
581.7762	0.0054
581.9685	0.0048
582.1608	0.003
582.353	0.0067
582.5453	0.0067
582.7375	0.0065
582.9298	-0.0003
583.122	0.006
583.3142	0.0127
583.5063	0.0053
583.6985	0.0021
583.8906	-0.0011
584.0827	0.0057
584.2749	0.0022
584.4669	0.0039
584.659	0.0106
584.8511	0.0083
585.0431	0.0069
585.2352	0.0057
585.4272	0.0058
585.6192	0.0098
585.8111	0.0003
586.0031	0.0038
586.195	0.0016
586.387	0.0016
586.5789	0.0029
586.7708	0.0092
586.9627	0.0064
587.1545	0.0075
587.3464	0.0078
587.5382	0.0072
587.73	0.0125
587.9218	-0.0012
588.1136	0.0001
588.3053	0.0087
588.4971	0.0022
588.6888	0.0014
588.8805	0.0047
589.0722	0.0116
589.2639	0.0044
589.4556	0.0037
589.6472	0.0106
589.8389	0.0048
590.0305	0.0056
590.2221	0.0069
590.4137	0.0057
590.6052	-0.003
590.7968	0.0038
590.9883	0.0037
591.1798	0.0038
591.3713	0.0068
591.5628	0.0058
591.7543	0.0023
591.9458	0.0043
592.1372	0.0037
592.3286	-0.0002
592.52	0.0061
592.7114	0.0052
592.9028	0.0072
593.0941	0.0001
593.2855	0.0018
593.4768	0.0067
593.6681	0.0085
593.8594	0.0077
594.0506	0.0046
594.2419	0.0085
594.4331	0.011
594.6244	0.001
594.8156	0.0041
595.0067	-0.0001
595.1979	0.0005
595.3891	0.0043
595.5802	0.0092
595.7713	0.0047
595.9624	0.0075
596.1535	0.0049
596.3446	0.0006
596.5357	-0.0005
596.7267	0.0037
596.9177	-0.0017
597.1087	0.0036
597.2997	0.0078
597.4907	0.0008
597.6817	0.0065
597.8726	0.0084
598.0635	-0.0055
598.2544	0.0034
598.4453	0.0099
598.6362	0.0077
598.827	0.002
599.0179	0.0063
599.2087	0.0074
599.3995	0.0055
599.5903	0.0077
599.7811	0.0093
599.9718	0.0015
600.1626	0.0007
600.3533	0.0025
600.544	0.0074
600.7347	0.0052
600.9254	0.0051
601.116	0.0027
601.3067	0.0062
601.4973	0.0092
601.6879	0.0007
601.8785	0.0107
602.0691	0.002
602.2596	0.0077
602.4502	0.0066
602.6407	0.0038
602.8312	0.0039
603.0217	0.0056
603.2122	0.0063
603.4027	0.004
603.5931	0.0035
603.7835	0.0065
603.9739	0.0018
604.1643	0.0107
604.3547	0.0138
604.5451	0.0101
604.7354	-0.0024
604.9257	0.0058
605.116	0.0033
605.3063	0.0045
605.4966	0.0018
605.6869	0.0105
605.8771	0.0079
606.0673	0.0059
606.2575	0.0044
606.4477	0.0134
606.6379	0.0023
606.8281	0.0022
607.0182	0.0054
607.2083	0.0061
607.3985	0.0027
607.5885	0.0034
607.7786	0.007
607.9687	0.0078
608.1587	0.0073
608.3488	0.0095
608.5388	0.0019
608.7288	-0.0042
608.9187	0.0064
609.1087	0.0042
609.2986	0.0143
609.4886	-0.0023
609.6785	0.0062
609.8684	0.0052
610.0582	0.0023
610.2481	0.0042
610.4379	0.0097
610.6278	0.0049
610.8176	0.0135
611.0074	0.0086
611.1971	-0
611.3869	0.0007
611.5766	-0.0014
611.7664	0.0059
611.9561	0.0134
612.1458	0.0091
612.3354	0.0027
612.5251	-0.0012
612.7147	0.01
612.9044	0.0057
613.094	0.0046
613.2836	-0.0007
613.4731	0.004
613.6627	0.01
613.8522	0.0157
614.0417	0.0074
614.2313	-0.0045
614.4207	0.0057
614.6102	0.0078
614.7997	0.0135
614.9891	0.0011
615.1785	-0.0023
615.3679	0.0035
615.5573	0.0069
615.7467	-0.0017
615.9361	0.0093
616.1254	0.0069
616.3147	0.0033
616.504	0.0015
616.6933	0.0077
616.8826	0.0009
617.0718	0.0162
617.2611	0.0016
617.4503	0.0077
617.6395	0.0002
617.8287	0.0054
618.0179	0.0029
618.207	0.0096
618.3961	-0.0014
618.5853	0.0071
618.7744	0.0135
618.9634	0.0077
619.1525	0.0039
619.3416	-0.0048
619.5306	0.0039
619.7196	0.0108
619.9086	0.0043
620.0976	0.0025
620.2866	0.0138
620.4755	0.0035
620.6645	0.0103
620.8534	0.0111
621.0423	0.0076
621.2312	0.0083
621.42	-0.001
621.6089	0.0073
621.7977	0.0144
621.9865	0.0099
622.1753	0.0011
622.3641	-0.0022
622.5529	-0.0049
622.7416	0.0005
622.9303	0.002
623.1191	-0.0028
623.3078	0.0019
623.4964	0.0052
623.6851	-0.0003
623.8737	0.0021
624.0624	-0.0088
624.251	0.0093
624.4396	0.0097
624.6282	0.0086
624.8167	-0.0011
625.0053	0.007
625.1938	0.0027
625.3823	0.0089
625.5708	0.0033
625.7593	0.0034
625.9477	0.0085
626.1362	-0.0088
626.3246	0.009
626.513	0.0061
626.7014	0.0057
626.8898	0.0213
627.0781	0.0135
627.2665	0.0127
627.4548	-0.0053
627.6431	0.0122
627.8314	0.0185
628.0197	0.0154
628.2079	0.0058
628.3962	0.0093
628.5844	-0.0018
628.7726	0.002
628.9608	0.0044
629.1489	0.0072
629.3371	-0.0019
629.5252	0.0031
629.7134	-0.0001
629.9015	0.0087
630.0895	-0.0091
630.2776	0.0072
630.4657	0.0084
630.6537	0.0067
630.8417	0.003
631.0297	-0.0035
631.2177	0.0084
631.4057	0.013
631.5936	0.0013
631.7815	0.0086
631.9695	0.0232
632.1574	0.0192
632.3452	0.0171
632.5331	0.0037
632.7209	0.0073
632.9088	-0.0081
633.0966	0.0211
633.2844	0.0047
633.4722	0.0204
633.6599	0.0136
633.8477	0.0092
634.0354	0.0078
634.2231	-0.0034
634.4108	0.0035
634.5985	0.0169
634.7861	0.0004
634.9738	-0.0033
635.1614	0.0155
635.349	0.0012
635.5366	0.008
635.7242	0.0081
635.9117	0.0055
636.0993	0.0068
636.2868	0.0124
636.4743	-0.0013
636.6618	-0.0134
636.8492	0.0032
637.0367	0.014
637.2241	0.0099
637.4115	0.0376
637.5989	0.0078
637.7863	0.0218
637.9737	-0.0023
638.161	0.0087
638.3484	0.0014
638.5357	0.0073
638.723	0.0273
638.9103	-0.0056
639.0975	-0.0058
639.2848	0.0184
639.472	0.0013
639.6592	-0.014
639.8464	0.0133
640.0336	-0.0064
640.2208	-0.0075
640.4079	0.0051
640.595	0.0009
640.7821	0.0059
640.9692	-0.0057
641.1563	-0.0008
641.3434	0.0179
641.5304	0.0266
641.7174	0.0146
641.9044	0.0099
642.0914	0.014
642.2784	-0.0084
642.4653	-0.0052
642.6523	0.0044
642.8392	0.0179
643.0261	0.0013
643.213	0.0132
643.3999	0.024
643.5867	0.0163
643.7735	-0.0036
643.9604	0.0148
644.1472	0.0081
644.3339	0.0082
644.5207	0.0026
644.7075	-0.0009
644.8942	0.0079
645.0809	0.0038
645.2676	-0.0004
645.4543	0.0015
645.6409	0.0338
645.8276	0.0138
646.0142	-0.0034
646.2008	-0.001
646.3874	-0.0076
646.574	-0.0051
646.7605	0.0037
646.9471	0.0048
647.1336	-0.0256
647.3201	0.0163
647.5066	0.0031
647.6931	0.0031
647.8795	0.0038
648.0659	0.0138
648.2524	0.0133
648.4388	0.0114
648.6252	0.0031
648.8115	0.0162
648.9979	-0.0023
649.1842	0.0114
649.3705	0.0218
649.5568	0.008
649.7431	-0.0066
649.9294	0.0092
650.1156	-0.0007
650.3018	0.0056
650.488	0.0106
650.6742	0.0376
650.8604	0.0093
651.0466	-0.0137
651.2327	0.0055
651.4188	0.011
651.6049	0.0315
651.791	0.0013
651.9771	0.009
652.1632	0.0022
652.3492	0.0026
652.5352	0
652.7212	0
652.9072	0.0011
653.0932	0.0139
653.2791	0.0144
653.465	0.0125
653.651	0.0077
653.8369	0.0088
654.0227	0.0196
654.2086	0.0257
654.3944	0.0096
654.5803	0.0006
654.7661	-0.0044
654.9519	-0.0014
655.1377	0.0001
655.3234	0.0001
655.5092	0.0001
655.6949	0.0001
655.8806	0.0001
656.0663	0.0001
656.2519	0.0001
656.4376	0.0001
656.6232	0.0001
656.8088	0.0001
656.9945	0.0001
657.18	0.0001
657.3656	0.0001
657.5511	0.0001
657.7367	0.0001
657.9222	0.0001
658.1077	0.0001
658.2932	0.0001
658.4786	0.0001
658.6641	0.0001
658.8495	0.0001
659.0349	0.0001
659.2203	0.0001
659.4057	0.0001
659.591	0.1565
659.7764	0.0316
659.9617	0.0117
660.147	0.0104
660.3323	0.004
660.5176	0.0242
660.7028	-0.0102
660.888	0.0207
661.0733	0.0076
661.2585	-0.0223
661.4436	0.0233
661.6288	0.0302
661.8139	-0.0165
661.9991	0.0031
662.1842	-0.0091
662.3693	0.0259
662.5544	0.0241
662.7394	0.0456
662.9245	0.02
663.1095	-0.0166
663.2945	-0.0086
663.4795	-0.016
663.6644	0.004
663.8494	0.0143
664.0343	0.0003
664.2193	0.0024
664.4042	0.0176
664.589	0.0062
664.7739	0.0109
664.9587	-0.0114
665.1436	-0.0002
665.3284	-0.0072
665.5132	-0.0043
665.698	0.0325
665.8827	0.0097
666.0675	-0.0145
666.2522	0.006
666.4369	0.0037
666.6216	-0.0067
666.8063	0.018
666.9909	0.0113
667.1756	-0.0104
667.3602	-0.0084
667.5448	0.0083
667.7294	0.0186
667.9139	-0.0132
668.0985	0.0335
668.283	0.0062
668.4675	0.0255
668.652	0.0171
668.8365	-0.0042
669.0209	0.0225
669.2054	0.0196
669.3898	0.0184
669.5742	0.0173
669.7586	0.0222
669.943	0.0254
670.1273	-0.0009
670.3117	0.013
670.496	0.0042
670.6803	0.0245
670.8646	-0.0154
671.0488	0.0246
671.2331	-0.003
671.4173	0.0115
671.6015	0.0087
671.7857	0.0154
671.9699	0.0195
672.1541	-0.0067
672.3382	0.0119
672.5223	-0.0019
672.7064	0.006
672.8905	0.0187
673.0746	0.0178
673.2587	0.0163
673.4427	0.0181
673.6267	0.0356
673.8107	0.0211
673.9947	0.0321
674.1787	0.0062
674.3626	0.0076
674.5465	0.0001
674.7304	0.0007
674.9143	0.0075
675.0982	0.0199
675.2821	-0.0127
675.4659	0.0022
675.6497	0.0155
675.8335	-0.002
676.0173	-0.0106
676.2011	0.0335
676.3849	0.0077
676.5686	0.0089
676.7523	-0.0049
676.936	0.0066
677.1197	-0.0121
677.3034	0.0332
677.487	0.0159
677.6706	0.0131
677.8542	0.0059
678.0378	-0.0009
678.2214	-0.003
678.405	0.0019
678.5885	0.0233
678.772	0.0195
678.9555	-0.001
679.139	0.01
679.3225	0.0136
679.5059	0.0164
679.6894	0.0158
679.8728	0.0083
680.0562	-0.0055
680.2395	-0.007
680.4229	0.0013
680.6062	0.001
680.7896	-0.0137
680.9729	0.0251
681.1562	-0.0018
681.3394	0.0082
681.5227	0.0078
681.7059	0.0003
681.8891	0.0144
682.0723	0.0172
682.2555	0.0041
682.4387	-0.0038
682.6218	0.0181
682.805	0.0009
682.9881	0.0112
683.1712	0.0133
683.3542	0.0116
683.5373	-0.0057
683.7203	0.0223
683.9034	-0.0006
684.0864	0.0009
684.2694	0.005
684.4523	0.0029
684.6353	0
684.8182	0.0175
685.0011	-0.0066
685.184	-0.0069
685.3669	0.0271
685.5498	0.0108
685.7326	0.0017
685.9154	-0.01
686.0982	0.0105
686.281	0.0044
686.4638	0.0152
686.6465	0.0056
686.8293	-0.0033
687.012	0.0047
687.1947	0.0053
687.3774	0.0087
687.56	-0.0053
687.7427	0.0131
687.9253	-0.0143
688.1079	0.0039
688.2905	-0.0027
688.4731	0.0205
688.6556	0.0097
688.8382	-0.0309
689.0207	0.0066
689.2032	0.036
689.3857	0.0054
689.5681	0.0095
689.7506	0.0327
689.933	-0.0291
690.1154	0.0401
690.2978	0.0014
690.4802	0.0102
690.6626	-0.0011
690.8449	0.0326
691.0272	0.0005
691.2095	-0.0069
691.3918	0.0129
691.5741	-0.0077
691.7563	0
691.9386	0.0417
692.1208	0.0239
692.303	0.0076
692.4852	0.0101
692.6673	0.0218
692.8495	-0.0026
693.0316	0.0122
693.2137	0.0126
693.3958	0.0181
693.5778	0.0054
693.7599	0.0138
693.9419	-0.0082
694.1239	0.008
694.3059	0.0144
694.4879	0.0057
694.6699	0.0092
694.8518	0.0041
695.0337	-0.0005
695.2157	0.0189
695.3975	0.0045
695.5794	-0.0142
695.7613	-0.0086
695.9431	-0.0184
696.1249	0.0199
696.3067	-0.0224
696.4885	0.0107
696.6703	0.0127
696.852	0.0052
697.0337	0.0206
697.2154	0.0174
697.3971	0.0077
697.5788	0.0254
697.7605	-0.0026
697.9421	0.0274
698.1237	0.0231
698.3053	-0.0034
698.4869	-0.0073
698.6685	-0.0038
698.85	0.0219
699.0315	-0.0283
699.213	0.0115
699.3945	0.0219
699.576	0.0121
699.7575	0.0392
699.9389	0.0111
700.1203	0.0259
700.3017	-0.0077
700.4831	0.0099
700.6645	0.0352
700.8458	0.0036
701.0271	0.0435
701.2084	-0.005
701.3897	0.0191
701.571	0.0085
701.7523	0.0105
701.9335	0.011
702.1147	0.0257
702.2959	-0.0266
702.4771	0.0054
702.6583	0.0452
702.8394	-0.0204
703.0205	0.0094
703.2016	-0.0021
703.3827	-0.0297
703.5638	0.0112
703.7449	0.0364
703.9259	0.0084
704.1069	-0.012
704.2879	-0.0096
704.4689	-0.0052
704.6499	0.0042
704.8308	0.0234
705.0117	0.0253
705.1927	-0.0033
705.3735	0.0182
705.5544	-0.007
705.7353	-0.0062
705.9161	-0.0236
706.0969	0.018
706.2777	-0.0005
706.4585	0.0119
706.6393	0.0088
706.82	0.0254
707.0007	0.0053
707.1815	0.0116
707.3621	0.0353
707.5428	0.0301
707.7235	0.004
707.9041	0.0247
708.0847	0.0055
708.2653	0.0236
708.4459	0.0161
708.6265	-0.0257
708.807	0.0148
708.9875	0.0112
709.168	-0.0111
709.3485	0.0125
709.529	0.0211
709.7095	-0.0088
709.8899	0.0007
710.0703	0.0028
710.2507	0.013
710.4311	-0.011
710.6115	0.0308
710.7918	0.0363
710.9721	-0.0072
711.1524	0.0056
711.3327	-0.0046
711.513	0.0159
711.6932	0.0253
711.8735	0.0101
712.0537	0.005
712.2339	0.0021
712.4141	0.0223
712.5942	0.0023
712.7744	0.0228
712.9545	-0.0072
713.1346	0.0165
713.3147	0.0208
713.4947	-0.0016
713.6748	0.0011
713.8548	0.0218
714.0348	0.0239
714.2148	0.0151
714.3948	0.0217
714.5748	0.0133
714.7547	0.0277
714.9346	0.0411
715.1145	-0.0069
715.2944	-0.0131
715.4743	0.0218
715.6541	-0.0012
715.834	0.0348
716.0138	0.0332
716.1936	0.0038
716.3733	0.0128
716.5531	-0.0063
716.7328	0.0127
716.9126	0.0275
717.0923	-0.0266
717.2719	0.0267
717.4516	0.0109
717.6312	-0.0043
717.8109	0.0319
717.9905	0.0323
718.1701	0.0123
718.3496	-0.0214
718.5292	-0.0029
718.7087	0.0223
718.8882	0.0004
719.0677	0.0304
719.2472	-0.0025
719.4267	-0.001
719.6061	-0.0033
719.7856	0.042
719.965	0.0133
720.1443	0.0209
720.3237	-0.0093
720.5031	0.012
720.6824	0.0081
720.8617	0.0107
721.041	0.0147
721.2203	-0.0115
721.3995	0.026
721.5788	0.021
721.758	0.0005
721.9372	0.0284
722.1164	0.0027
722.2956	-0.0188
722.4747	0.0248
722.6538	0.0094
722.8329	0.0101
723.012	0.013
723.1911	0.0022
723.3702	-0.0015
723.5492	-0.0289
723.7282	0.007
723.9072	0.0255
724.0862	-0.0096
724.2652	0.0362
724.4441	0.0091
724.623	0.0042
724.8019	0.0051
724.9808	-0.0047
725.1597	0.016
725.3385	0.0194
725.5174	0.0184
725.6962	0.0083
725.875	0.0149
726.0538	0.0287
726.2325	0.0159
726.4112	-0.0055
726.59	-0.0042
726.7687	-0.0189
726.9474	0.0095
727.126	0.0406
727.3047	0.0076
727.4833	0.0054
727.6619	-0.0287
727.8405	0.0042
728.0191	0.049
728.1976	0.0148
728.3762	-0.0175
728.5547	0.01
728.7332	0.0245
728.9116	0.0302
729.0901	0.0131
729.2686	0.0089
729.447	0.001
729.6254	-0.0012
729.8038	0.007
729.9821	-0.0157
730.1605	0.0014
730.3388	0.0045
730.5171	0.0236
730.6954	0.001
730.8737	-0.0009
731.0519	0.0054
731.2302	0.0174
731.4084	0.0053
731.5866	0.005
731.7648	0.0064
731.9429	0.0196
732.1211	-0.0087
732.2992	-0.0045
732.4773	0.0055
732.6554	-0.0022
732.8335	0.0323
733.0115	0.0222
733.1896	-0.0118
733.3676	0.0234
733.5456	-0.0016
733.7235	0.0118
733.9015	0.0115
734.0794	0.004
734.2574	-0.0282
734.4353	0.0131
734.6131	0.0238
734.791	0.0111
734.9689	-0.02
735.1467	-0.0194
735.3245	0.0443
735.5023	0.0121
735.68	0.0009
735.8578	0.0195
736.0355	0.0199
736.2132	-0.0081
736.3909	-0.0023
736.5686	0.0099
736.7463	0.0034
736.9239	0.0173
737.1015	0.0081
737.2791	0.0081
737.4567	0.0271
737.6343	0.0113
737.8118	0.0519
737.9894	-0.0006
738.1669	-0.0003
738.3444	0.0365
738.5218	-0.0005
738.6993	0.0129
738.8767	0.0056
739.0541	-0.0042
739.2315	0.0081
739.4089	0.0283
739.5863	-0.0003
739.7636	-0.0013
739.9409	-0.0039
740.1182	0.0063
740.2955	0.024
740.4728	0.0111
740.65	-0.0195
740.8272	0.0316
741.0044	-0.0004
741.1816	0.0176
741.3588	-0.0189
741.5359	0.0011
741.7131	0.0237
741.8902	0.0046
742.0673	-0.0317
742.2444	0.0329
742.4214	0.0116
742.5985	-0.002
742.7755	-0.016
742.9525	-0.031
743.1295	-0.0079
743.3064	0.0169
743.4834	0.0214
743.6603	0.0857
743.8372	-0.0466
744.0141	0.0246
744.191	0.0029
744.3678	-0.0255
744.5446	0.0161
744.7215	0.0001
744.8982	0.0246
745.075	0.0418
745.2518	0.0092
745.4285	0.0171
745.6052	-0.0082
745.7819	0.0255
745.9586	-0.0017
746.1353	-0.0085
746.3119	0.0043
746.4885	0.0204
746.6651	-0.0055
746.8417	-0.012
747.0183	0.0372
747.1948	0.0186
747.3714	-0.0087
747.5479	0.0011
747.7244	-0.0192
747.9008	-0.0038
748.0773	0.04
748.2537	0.0233
748.4301	0.0302
748.6065	-0.0017
748.7829	-0.0259
748.9593	-0.0123
749.1356	0.0105
749.3119	0.0172
749.4882	0.0252
749.6645	0.0126
749.8408	-0.0062
750.017	0.0245
750.1933	-0.0224
750.3695	0.017
750.5457	-0.0053
750.7218	0.0117
750.898	-0.0033
751.0741	-0.0034
751.2502	0.0007
751.4263	0.0048
751.6024	0.0155
751.7784	-0.0069
751.9545	0.0105
752.1305	0.0131
752.3065	-0.0003
752.4825	-0.0086
752.6584	-0.0141
752.8344	0.0049
753.0103	0.0001
753.1862	0.0165
753.3621	-0.0019
753.5379	-0.0082
753.7138	0.0089
753.8896	0.0213
754.0654	0.0168
754.2412	0.012
754.417	0.0379
754.5927	0.0021
754.7685	0.0185
754.9442	0.0016
755.1199	0
755.2956	0.0136
755.4712	-0.0041
755.6469	0.007
755.8225	0.0369
755.9981	0.007
756.1736	0.0057
756.3492	-0.0019
756.5248	0.0183
756.7003	-0.0008
756.8758	0.0035
757.0513	0.0094
757.2267	0.0144
757.4022	-0.0092
757.5776	-0.0006
757.753	0.029
757.9284	0.0158
758.1038	0.028
758.2791	0.0236
758.4545	-0.0037
758.6298	0.02
758.8051	0.0346
758.9803	0.0296
759.1556	-0.009
759.3308	0.0025
759.506	0.0014
759.6812	0.0228
759.8564	-0.0006
760.0316	0.0119
760.2067	0.0175
760.3819	-0.0064
760.557	-0.0064
760.732	-0.0004
760.9071	0.0199
761.0821	-0.0137
761.2572	0.0127
761.4322	0.0234
761.6072	0.0042
761.7821	-0.0173
761.9571	-0.0046
762.132	0.0284
762.3069	0.036
762.4818	0.0136
762.6567	0.0142
762.8316	0.0335
763.0064	0.0098
763.1812	0.0015
763.356	-0.0083
763.5308	0.0254
763.7055	0.0088
763.8803	0.0123
764.055	-0.0032
764.2297	-0.0127
764.4044	-0.0013
764.579	-0.0119
764.7537	0.0026
764.9283	0.0015
765.1029	-0.0032
765.2775	0.0274
765.4521	0.0211
765.6266	-0.0177
765.8011	-0.0047
765.9756	0.0125
766.1501	0.0129
766.3246	0.0419
766.4991	0.0217
766.6735	0.0463
766.8479	0.0087
767.0223	-0.0021
767.1967	0.0336
767.371	0.0474
767.5454	0.0202
767.7197	0.0114
767.894	0.0323
768.0683	0.0233
768.2425	0.0169
768.4168	0.015
768.591	0.0114
768.7652	0.0008
768.9394	0.005
769.1135	-0.0047
769.2877	0.029
769.4618	0.007
769.6359	0.0197
769.81	0.0302
769.984	0.0099
770.1581	0.0169
770.3321	0.0418
770.5061	0.0008
770.6801	-0.0006
770.8541	0.0234
771.028	0.0354
771.202	0.0205
771.3759	0.0047
771.5498	0.0259
771.7236	-0.0123
771.8975	0.0477
772.0713	0.0403
772.2451	0.0104
772.4189	-0.0091
772.5927	-0.0195
772.7665	-0.0069
772.9402	0.0166
773.1139	-0.0103
773.2876	0.0374
773.4613	0.0238
773.635	0.055
773.8086	0.031
773.9822	0.0222
774.1558	0.0329
774.3294	0.0415
774.503	0.0113
774.6765	0.0139
774.8501	0.0133
775.0236	0.0499
775.1971	-0.0149
775.3705	0.0025
775.544	-0.0231
775.7174	0.0026
775.8908	0.009
776.0642	0.037
776.2376	0.0137
776.4109	0.0368
776.5843	0.0264
776.7576	-0.0148
776.9309	0.0242
777.1041	-0.0298
777.2774	-0.0032
777.4506	0.0114
777.6238	0.0001
777.797	0.0195
777.9702	0.0182
778.1434	0.0223
778.3165	0.0139
778.4896	-0.0474
778.6627	0.02
778.8358	-0.0444
779.0089	-0.0082
779.1819	0.0429
779.3549	0.0095
779.5279	-0.0366
779.7009	0.0491
779.8739	0.0729
780.0468	0.0518
780.2197	0.0384
780.3926	-0.0423
780.5655	0.0165
780.7384	-0.0136
780.9112	0.0242
781.0841	0.0268
781.2569	-0.0031
781.4297	0.0249
781.6024	0.0288
781.7752	0.0416
781.9479	0.0532
782.1206	-0.0015
782.2933	0.0116
782.466	0.0197
782.6386	-0.0151
782.8113	0.0054
782.9839	0.0078
783.1565	0.0152
783.329	-0.0175
783.5016	0.0122
783.6741	0.0038
783.8466	0.0107
784.0191	-0.004
784.1916	-0.0229
784.3641	-0.0475
784.5365	0.022
784.7089	-0.0098
784.8813	0.0993
785.0537	0.0042
785.2261	-0.005
785.3984	0.0323
785.5707	-0.0319
785.743	0.0303
785.9153	0.0121
786.0876	-0.0014
786.2598	0.0161
786.432	0.0325
786.6042	0.0543
786.7764	-0.0254
786.9486	-0.0241
787.1207	0.0429
787.2928	0.0464
787.4649	-0.0005
787.637	0.0274
787.8091	0.0186
787.9811	0.0034
788.1532	0.039
788.3252	0.029
788.4972	0.0112
788.6691	-0.0017
788.8411	0.0173
789.013	0.047
789.1849	-0.0076
789.3568	0.0154
789.5287	0.0839
789.7005	-0.0246
789.8723	-0.0435
790.0442	0.0113
790.2159	-0.0317
790.3877	0.0684
790.5595	0.0484
790.7312	-0.0117
790.9029	0.0332
791.0746	0.0622
791.2463	-0.0169
791.4179	-0.003
791.5896	-0.0047
791.7612	0.0521
791.9328	0.0002
792.1044	0.0321
792.2759	-0.0144
792.4474	0.0573
792.619	0.0406
792.7905	0.0732
792.9619	0.0107
793.1334	0.0838
793.3048	0.0787
793.4762	0.0352
793.6476	-0.0319
793.819	-0.0065
793.9904	0.0056
794.1617	-0.0024
794.333	0.003
794.5043	0.0176
794.6756	0.0013
794.8469	0.0156
795.0181	0.0096
795.1893	0.0231
795.3605	0.0188
795.5317	-0.0508
795.7029	0.0252
795.874	-0.0017
796.0452	0.0329
796.2163	0.0317
796.3873	0.0802
796.5584	0.095
796.7294	0.0609
796.9005	0.0417
797.0715	0.005
797.2425	0.0852
797.4134	0.0181
797.5844	0.0337
797.7553	-0.0086
797.9262	0.0667
798.0971	0.0686
798.2679	-0.0153
798.4388	0.0684
798.6096	0.0284
798.7804	0.0533
798.9512	0.0144
799.122	0.0335
799.2927	0.0812
799.4635	-0.0918
799.6342	0.0288
799.8049	0.0404
799.9755	0.0151
800.1462	0.0477
800.3168	0.0245
800.4874	-0.0136
800.658	0.0462
800.8286	-0.012
800.9991	0.0756
801.1696	-0.067
801.3402	-0.0613
801.5106	0.0025
801.6811	-0.0188
801.8516	0.0352
802.022	0.0316
802.1924	-0.0356
802.3628	0.0436
802.5332	0.0996
802.7035	0.1197
802.8739	-0.0761
803.0442	-0.0071
803.2145	0.0731
803.3847	0.0209
803.555	0.0798
803.7252	0.0572
803.8954	-0.0595
804.0656	0.0267
804.2358	0.0484
804.4059	-0.0013
804.5761	-0.0146
804.7462	0.0252
804.9163	-0.0301
805.0864	0.002
805.2564	-0.0613
805.4264	0.0547
805.5965	0.0088
805.7665	-0.058
805.9364	-0.0225
806.1064	0.0292
806.2763	0.0254
806.4462	0.0703
806.6161	-0.0033
806.786	0.0185
806.9559	0.0356
807.1257	-0.0079
807.2955	0.0163
807.4653	0.0038
807.6351	0.0306
807.8048	0.0664
807.9746	-0.0251
808.1443	0.0112
808.314	0.0671
808.4837	0.0838
808.6533	0.0178
808.8229	-0.0407
808.9926	0.079
809.1622	0.0382
809.3317	-0.0531
809.5013	0.0345
809.6708	0.0685
809.8403	0.027
810.0098	0.0592
810.1793	0.1457
810.3488	-0.0929
810.5182	0.1849
810.6876	0.0181
810.857	0.0325
811.0264	-0.0241
811.1958	0.0618
811.3651	-0.0887
811.5344	0.0594
811.7037	0.136
811.873	0.085
812.0422	-0.0795
812.2115	-0.0042
812.3807	-0.0902
812.5499	-0.0486
812.7191	-0.0314
812.8882	0.0399
813.0574	0.1063
813.2265	-0.0336
813.3956	0.0955
813.5646	0.0408
813.7337	0.0167
813.9027	-0.0662
814.0718	-0.0054
814.2407	0.0531
814.4097	0.1061
814.5787	0.0853
814.7476	0.0799
814.9165	0.0534
815.0854	-0.0182
815.2543	0.1466
815.4232	0.0853
815.592	0.0158
815.7608	-0.0034
815.9296	-0.037
816.0984	0.0569
816.2671	0.0272
816.4359	0.0779
816.6046	-0.0318
816.7733	-0.0062
816.942	-0.0887
817.1106	0.1971
817.2793	0.0212
817.4479	0.0347
817.6165	0.1103
817.785	0.1466
817.9536	-0.052
818.1221	0.0237
818.2906	-0.1265
818.4591	0.0807
818.6276	-0.0211
818.7961	-0.0644
818.9645	0.1003
819.1329	0.059
819.3013	0.062
819.4697	0.0851
819.638	0.1626
819.8064	-0.0341
819.9747	0.0678
820.143	-0.0149
820.3113	0.0683
820.4795	0.0713
820.6477	0.0517
820.816	0.0332
820.9842	0.0926
821.1523	0.1714
821.3205	-0.0057
821.4886	-0.0275
821.6567	0.0151
821.8248	0.097
821.9929	-0.1483
822.1609	0.1195
822.329	0.0643
822.497	0.031
822.665	0.0137
822.833	0.0318
823.0009	0.0222
823.1688	0.0795
823.3367	-0.0657
823.5046	0.0681
823.6725	0.0914
823.8404	-0.1841
824.0082	-0.0677
824.176	0.096
824.3438	0.1455
824.5116	0.0551
824.6793	0.137
824.847	0.0773
825.0147	0.0531
825.1824	0.1127
825.3501	0.2098
825.5177	0.0294
825.6854	0.0716
825.853	-0.0165
826.0206	-0.0307
826.1881	0.2178
826.3557	0.0338
826.5232	0.027
826.6907	-0.0181
826.8582	-0.0035
827.0257	0.3486
827.1931	0.0626
827.3605	0.0162
827.528	-0.2191
827.6953	-0.1796
827.8627	0.1039
828.03	-0.0021
828.1974	0.0617
828.3647	0.125
828.532	0.0737
828.6992	0.0208
828.8665	-0.1421
829.0337	0.0359
829.2009	-0.0615
829.3681	0.1003
829.5352	-0.3789
829.7024	0.0822
829.8695	0.0321
830.0366	0.1894
830.2037	0.1277
830.3707	0.1593
830.5378	0.0731
830.7048	-0.0558
830.8718	-0.0285
831.0388	-0.0988
831.2057	0.2273
831.3727	-0.1765
831.5396	0.1783
831.7065	-0.814
831.8734	0.5325
832.0402	0.1576
832.2071	-0.1771
832.3739	-0.2665
832.5407	-1.5847
832.7075	-0.4502
832.8742	0.2263
833.041	0.0757
833.2077	0.1642
833.3744	0.1013
833.541	-0.0084
833.7077	-0.1371
833.8743	0.094
834.0409	0.0473
834.2075	0.1534
834.3741	-0.2166
834.5407	0.136
834.7072	0.2619
834.8737	0.0605
835.0402	0.2251
835.2067	0.3949
835.3731	-0.0098
835.5395	-0.1322
835.706	0.414
835.8723	0.1557
836.0387	-0.0735
836.2051	-0.0449
836.3714	-0.1282
836.5377	0.0013
836.704	0.01
836.8703	-0.1763
837.0365	-0.2478
837.2027	0.0521
837.3689	0.1967
837.5351	0.2597
837.7013	0.5453
837.8674	-0.447
838.0335	-0.0483
838.1997	0.0382
838.3657	-0
838.5318	-0.2697
838.6978	0.3915
838.8639	-0.5532
839.0299	-0.1897
839.1958	0.116
839.3618	-0
839.5277	0.1695
839.6937	0.0822
839.8596	-0.187
840.0254	0.0553
840.1913	-0.247
840.3571	-0.1197
840.523	-1.3617
840.6888	0.2642
840.8545	-0.3469
841.0203	0.0341
841.186	-0.2253
841.3517	-0.3464
841.5174	0.143
841.6831	0.1208
841.8488	0.0953
842.0144	0.2796
842.18	0.9926
842.3456	-0.8798
842.5112	-0
842.6767	0.2211
842.8422	-0
843.0077	-0.102
843.1732	-0.1551
843.3387	-0.246
843.5042	-0
843.6696	-0.3662
843.835	-0
844.0004	-0.2306
844.1657	-0
844.3311	0.1749
844.4964	-0.0841
844.6617	0.292
844.827	0.0238
844.9923	0.1711
845.1575	-0.6083
845.3227	-0.3035
845.4879	-0
845.6531	-0.2
845.8183	0.3675
845.9834	-0
846.1485	0.4841
846.3136	0.7677
846.4787	-0
846.6438	-0
846.8088	0.424
846.9738	-0
847.1388	0.0246
847.3038	0.7717
847.4687	-0
847.6337	-0
847.7986	0.116
847.9635	0.8746
848.1284	0.5013
848.2932	0.0877
848.458	-0
848.6228	-0
848.7876	0.4411
848.9524	0.2628
849.1172	-1.7709
849.2819	-0
849.4466	0.9297
849.6113	0.1333
849.7759	-0
849.9406	-0.1764
850.1052	-0.6706
850.2698	0.3611
850.4344	-0
850.599	-0.3663
850.7635	0.7789
850.928	0.5245
851.0925	0.3725
851.257	0.3854
851.4215	-0
851.5859	0.1899
851.7503	0.458
851.9147	1.0126
852.0791	0.3534
852.2434	0.0643
852.4078	-0.0571
852.5721	-0
852.7364	0.6938
852.9007	0.3448
853.0649	-0
853.2291	1.0231
853.3934	-0
853.5575	-0.0095
853.7217	0.4518
853.8859	-0.2854
854.05	-0.2235
854.2141	0.37
854.3782	-0.3031
854.5423	0.3749
854.7063	-0.0343
854.8703	0.0408
855.0343	-0.0155
855.1983	0.5193
855.3623	-0.165
855.5262	-0
855.6901	1.3212
855.854	0.3696
856.0179	-0.0425
856.1818	1.4979
856.3456	0.1899
856.5094	-0.3073
856.6732	-0
856.837	-1.245
857.0008	0.1263
857.1645	0.5582
857.3282	-0.2897
857.4919	0.2914
857.6556	-0
857.8192	-0.0597
857.9828	-0.0611
858.1465	0.2852
858.31	-0
858.4736	-0.6216
858.6372	0.0538
858.8007	0.3236
858.9642	0.2509
859.1277	0.3451
859.2911	-0.3804
859.4546	-0
859.618	0.1119
859.7814	0.876
859.9448	-0
860.1081	-0
860.2715	-0
860.4348	0.601
860.5981	-0
860.7614	-0
860.9246	-0.1589
861.0879	0.6125
861.2511	-0
861.4143	0.278
861.5774	-0.551
861.7406	-0
861.9037	-0.0132
862.0668	-0.6696
862.2299	1.8363
862.393	1.4494
862.556	-0
862.7191	-0.3919
862.8821	0.4145
863.0451	0.4161
863.208	-0
863.371	-0
863.5339	0.4465
863.6968	0.3431
863.8597	-0
864.0225	-0
864.1854	0.0213
864.3482	-0
864.511	0.0258
864.6737	-0.3718
864.8365	0.1846
864.9992	0.256
865.1619	0.065
865.3246	-2.0294
865.4873	-0
865.65	-0
865.8126	0.7793
865.9752	-0.1461
866.1378	0.027
866.3004	0.3986
866.4629	-1.9536
866.6254	1.444
866.7879	-0
866.9504	-0.6776
867.1129	-0.4318
867.2753	0.2875
867.4377	-0.2378
867.6001	0.3709
867.7625	0.2469
867.9249	0.3799
868.0872	0.2151
868.2495	-0
868.4118	-0
868.5741	-0
868.7363	-0.8744
868.8986	-0.601
869.0608	0.1544
869.223	-0.6409
869.3851	-0
869.5473	0.3534
869.7094	-0.3147
869.8715	-0.6867
870.0336	0.1897
870.1957	-0.2133
870.3577	0.1604
870.5197	-0.2424
870.6817	-0.8665
870.8437	0.0599
871.0057	0.0756
871.1676	0.1959
871.3295	-0
871.4914	-1.0414
871.6533	-0.5312
871.8151	-0
871.977	-0.5268
872.1388	-0
872.3006	-0.3053
872.4623	-0.8192
872.6241	-0
872.7858	-0
872.9475	0.0606
873.1092	1.9991
873.2709	1.0251
873.4325	-1.8717
873.5941	-0
873.7557	-0
873.9173	0.4533
874.0789	0.1301
874.2404	-0
874.4019	-0.119
874.5634	-0
874.7249	0.7373
874.8863	-0.1128
875.0478	-0.0483
875.2092	0.8342
875.3706	0.0161
875.5319	-0.3162
875.6933	-0
875.8546	-0
876.0159	0.4427
876.1772	-0.2594
876.3385	-0
876.4997	0.2342
876.6609	-0
876.8221	-0
876.9833	0.0165
877.1445	0.6742
877.3056	-1.369
877.4667	-0
877.6278	-0
877.7889	0.4062
877.9499	-0
878.111	-0.5387
878.272	0.0047
878.433	-0
878.5939	0.3331
878.7549	-0.482
878.9158	0.0616
879.0767	-0
879.2376	-0.1155
879.3984	-0
879.5593	-0
879.7201	-0
879.8809	-0
880.0417	-0.0293
880.2024	-0
880.3632	-0.2669
880.5239	0.1299
880.6846	-0.2816
880.8452	-0.1252
881.0059	-0
881.1665	0.2289
881.3271	1.3617
881.4877	0.888
881.6483	-1.6452
881.8088	-0
881.9693	-0
882.1298	-0
882.2903	-0
