Data from D4ACN5uM440nmA_Absorbance_13-50-24-607.txt Node
Date: Fri Feb 21 13:50:24 GMT 2025
User: LASERRRRR
Spectrometer: FLMT03099
Trigger mode: 0
Integration Time (sec): 1.500000E-2
Scans to average: 1
Electric dark correction enabled: true
Nonlinearity correction enabled: false
Boxcar width: 0
XAxis mode: Wavelengths
Number of Pixels in Spectrum: 3648
>>>>>Begin Spectral Data<<<<<
179.3399	-0.2889
179.5586	-0.2889
179.7771	-0.2889
179.9957	-0.2835
180.2143	-0
180.4329	-0.3043
180.6514	-0
180.8699	-0
181.0885	-0.0565
181.307	0.4358
181.5255	0.2767
181.744	-0
181.9625	0.1965
182.181	-0
182.3994	-0.6452
182.6179	0.3455
182.8363	-0
183.0547	-0.0194
183.2732	0.0536
183.4916	0.1543
183.71	0.3159
183.9284	-0.0087
184.1467	0.9891
184.3651	0.1106
184.5835	0.1681
184.8018	0.2384
185.0201	0.1819
185.2385	0.1257
185.4568	0.1538
185.6751	0.1231
185.8934	0.1796
186.1117	-0.1737
186.3299	0.2506
186.5482	0.2236
186.7664	0.1136
186.9847	-0.049
187.2029	0.0345
187.4211	0.0965
187.6393	0.1322
187.8575	0.3444
188.0757	0.4269
188.2939	0.0439
188.512	0.3475
188.7302	0.1167
188.9483	0.8883
189.1665	0.4665
189.3846	0.6305
189.6027	0.063
189.8208	0.2257
190.0389	0.0783
190.257	0.0059
190.475	-0.0083
190.6931	0.0064
190.9111	-0.0482
191.1292	0.0293
191.3472	0.2298
191.5652	0.4919
191.7832	0.217
192.0012	0.1438
192.2192	0.1262
192.4371	0.1712
192.6551	0.1354
192.873	0.1707
193.091	0.1548
193.3089	0.2179
193.5268	0.1752
193.7447	0.2029
193.9626	0.2362
194.1805	0.3024
194.3984	0.2297
194.6162	0.2338
194.8341	0.3504
195.0519	0.2385
195.2697	0.2135
195.4875	0.2425
195.7054	0.2742
195.9231	0.177
196.1409	0.3268
196.3587	0.2778
196.5765	0.3455
196.7942	0.2484
197.012	0.3219
197.2297	0.2424
197.4474	0.4402
197.6651	0.2605
197.8828	0.2635
198.1005	0.4092
198.3182	0.3774
198.5358	0.3906
198.7535	0.4164
198.9711	0.3476
199.1888	0.3794
199.4064	0.4373
199.624	0.3717
199.8416	0.3715
200.0592	0.348
200.2767	0.3991
200.4943	0.4131
200.7119	0.375
200.9294	0.4317
201.1469	0.429
201.3645	0.4676
201.582	0.368
201.7995	0.4142
202.017	0.3949
202.2344	0.381
202.4519	0.386
202.6694	0.4693
202.8868	0.3754
203.1042	0.4142
203.3217	0.3986
203.5391	0.3927
203.7565	0.3457
203.9739	0.3733
204.1913	0.3515
204.4086	0.3458
204.626	0.3985
204.8433	0.3412
205.0607	0.3363
205.278	0.338
205.4953	0.3436
205.7126	0.3336
205.9299	0.3146
206.1472	0.33
206.3644	0.3504
206.5817	0.317
206.7989	0.2936
207.0162	0.3033
207.2334	0.3159
207.4506	0.3152
207.6678	0.3339
207.885	0.3063
208.1022	0.2969
208.3194	0.2911
208.5365	0.3027
208.7537	0.3098
208.9708	0.3145
209.1879	0.2948
209.405	0.2614
209.6222	0.2777
209.8392	0.3025
210.0563	0.2987
210.2734	0.2531
210.4905	0.2718
210.7075	0.2663
210.9245	0.2845
211.1416	0.272
211.3586	0.2723
211.5756	0.2671
211.7926	0.2756
212.0096	0.2505
212.2265	0.2714
212.4435	0.2693
212.6604	0.2579
212.8774	0.2432
213.0943	0.2547
213.3112	0.2452
213.5281	0.2735
213.745	0.2435
213.9619	0.2531
214.1788	0.2542
214.3956	0.2552
214.6125	0.2532
214.8293	0.2466
215.0461	0.2369
215.2629	0.2461
215.4798	0.2443
215.6965	0.2558
215.9133	0.2385
216.1301	0.2353
216.3469	0.2412
216.5636	0.2555
216.7803	0.2466
216.9971	0.2597
217.2138	0.2583
217.4305	0.2485
217.6472	0.2465
217.8639	0.2592
218.0805	0.2491
218.2972	0.26
218.5138	0.2562
218.7305	0.2389
218.9471	0.2502
219.1637	0.2655
219.3803	0.2594
219.5969	0.2514
219.8135	0.2501
220.0301	0.2641
220.2466	0.2583
220.4632	0.2511
220.6797	0.267
220.8962	0.2547
221.1127	0.265
221.3292	0.2724
221.5457	0.2693
221.7622	0.2638
221.9787	0.2837
222.1951	0.2745
222.4116	0.2768
222.628	0.2894
222.8444	0.2707
223.0608	0.2784
223.2772	0.2794
223.4936	0.278
223.71	0.283
223.9264	0.2901
224.1427	0.2804
224.3591	0.2881
224.5754	0.2814
224.7917	0.2925
225.008	0.3008
225.2243	0.2989
225.4406	0.2885
225.6569	0.3018
225.8732	0.2998
226.0894	0.3155
226.3057	0.304
226.5219	0.3193
226.7381	0.3117
226.9543	0.3137
227.1705	0.3171
227.3867	0.3236
227.6029	0.3356
227.8191	0.3342
228.0352	0.3458
228.2513	0.3418
228.4675	0.3393
228.6836	0.3504
228.8997	0.3384
229.1158	0.3496
229.3319	0.3628
229.548	0.3621
229.764	0.348
229.9801	0.3662
230.1961	0.3664
230.4121	0.3591
230.6282	0.3731
230.8442	0.3884
231.0602	0.3835
231.2761	0.3973
231.4921	0.3899
231.7081	0.371
231.924	0.3945
232.14	0.4054
232.3559	0.4124
232.5718	0.4042
232.7877	0.4056
233.0036	0.4069
233.2195	0.4096
233.4353	0.4205
233.6512	0.4186
233.867	0.4225
234.0829	0.4225
234.2987	0.4214
234.5145	0.4261
234.7303	0.4204
234.9461	0.4418
235.1619	0.4417
235.3776	0.4444
235.5934	0.4243
235.8091	0.4444
236.0249	0.4451
236.2406	0.4334
236.4563	0.4452
236.672	0.4439
236.8877	0.4505
237.1034	0.4503
237.319	0.4517
237.5347	0.4488
237.7503	0.4419
237.966	0.461
238.1816	0.4502
238.3972	0.4668
238.6128	0.4599
238.8284	0.4567
239.0439	0.467
239.2595	0.4564
239.475	0.4628
239.6906	0.4635
239.9061	0.4631
240.1216	0.455
240.3371	0.4588
240.5526	0.4589
240.7681	0.4644
240.9836	0.4585
241.199	0.4558
241.4145	0.4481
241.6299	0.4479
241.8453	0.4365
242.0607	0.4307
242.2761	0.4284
242.4915	0.413
242.7069	0.4213
242.9223	0.4247
243.1376	0.4104
243.353	0.4066
243.5683	0.3925
243.7836	0.3857
243.9989	0.3806
244.2142	0.372
244.4295	0.3673
244.6448	0.363
244.86	0.3515
245.0753	0.3377
245.2905	0.3385
245.5057	0.3349
245.721	0.3253
245.9362	0.3253
246.1514	0.3151
246.3665	0.3097
246.5817	0.2983
246.7969	0.3016
247.012	0.2929
247.2271	0.2857
247.4423	0.284
247.6574	0.2757
247.8725	0.2703
248.0876	0.2651
248.3026	0.2633
248.5177	0.2481
248.7328	0.2468
248.9478	0.2457
249.1628	0.2471
249.3779	0.2348
249.5929	0.2391
249.8079	0.2344
250.0228	0.2218
250.2378	0.2283
250.4528	0.2249
250.6677	0.2236
250.8827	0.213
251.0976	0.2125
251.3125	0.2124
251.5274	0.2161
251.7423	0.2029
251.9572	0.2058
252.172	0.2023
252.3869	0.2069
252.6017	0.2078
252.8166	0.2041
253.0314	0.2002
253.2462	0.1982
253.461	0.1943
253.6758	0.1921
253.8906	0.192
254.1053	0.1959
254.3201	0.193
254.5348	0.1863
254.7496	0.1836
254.9643	0.1924
255.179	0.185
255.3937	0.1914
255.6083	0.1858
255.823	0.1877
256.0377	0.1762
256.2523	0.1812
256.467	0.1901
256.6816	0.1837
256.8962	0.1857
257.1108	0.1821
257.3254	0.1835
257.54	0.1771
257.7545	0.1827
257.9691	0.181
258.1836	0.1732
258.3981	0.1815
258.6127	0.1712
258.8272	0.1845
259.0417	0.1775
259.2561	0.1747
259.4706	0.1738
259.6851	0.1723
259.8995	0.1805
260.114	0.1805
260.3284	0.1725
260.5428	0.1724
260.7572	0.1774
260.9716	0.178
261.186	0.1789
261.4003	0.1729
261.6147	0.1752
261.829	0.1731
262.0433	0.1756
262.2577	0.1757
262.472	0.1719
262.6863	0.1819
262.9005	0.1763
263.1148	0.1693
263.3291	0.1745
263.5433	0.1753
263.7576	0.1781
263.9718	0.1773
264.186	0.1773
264.4002	0.1735
264.6144	0.1824
264.8286	0.1821
265.0427	0.18
265.2569	0.1755
265.471	0.1712
265.6851	0.1757
265.8993	0.1761
266.1134	0.1763
266.3275	0.1801
266.5415	0.1798
266.7556	0.1809
266.9697	0.1803
267.1837	0.1777
267.3978	0.1746
267.6118	0.1751
267.8258	0.1821
268.0398	0.1766
268.2538	0.1736
268.4677	0.1765
268.6817	0.1779
268.8957	0.1686
269.1096	0.1729
269.3235	0.1735
269.5374	0.1782
269.7514	0.1753
269.9652	0.1665
270.1791	0.1658
270.393	0.1729
270.6068	0.174
270.8207	0.169
271.0345	0.1694
271.2483	0.1621
271.4622	0.1709
271.676	0.1658
271.8897	0.164
272.1035	0.1728
272.3173	0.1664
272.531	0.1653
272.7448	0.1708
272.9585	0.1625
273.1722	0.1639
273.3859	0.1645
273.5996	0.1738
273.8133	0.1697
274.0269	0.1664
274.2406	0.1668
274.4542	0.1628
274.6679	0.1713
274.8815	0.1726
275.0951	0.1749
275.3087	0.1638
275.5223	0.1691
275.7358	0.1723
275.9494	0.1666
276.1629	0.1699
276.3765	0.1671
276.59	0.1641
276.8035	0.1707
277.017	0.1746
277.2305	0.1747
277.444	0.1759
277.6574	0.1693
277.8709	0.1759
278.0843	0.1737
278.2978	0.1775
278.5112	0.1764
278.7246	0.1757
278.938	0.1765
279.1513	0.1744
279.3647	0.1774
279.5781	0.1747
279.7914	0.175
280.0047	0.1753
280.2181	0.1785
280.4314	0.1794
280.6447	0.1757
280.8579	0.1687
281.0712	0.1695
281.2845	0.1759
281.4977	0.1821
281.711	0.1667
281.9242	0.1801
282.1374	0.1812
282.3506	0.182
282.5638	0.1764
282.7769	0.1691
282.9901	0.18
283.2033	0.178
283.4164	0.1819
283.6295	0.1831
283.8426	0.1729
284.0557	0.1818
284.2688	0.1773
284.4819	0.1792
284.695	0.1852
284.908	0.1821
285.1211	0.1853
285.3341	0.1785
285.5471	0.1858
285.7601	0.1865
285.9731	0.1826
286.1861	0.1865
286.3991	0.1894
286.612	0.1876
286.825	0.1907
287.0379	0.1853
287.2508	0.1868
287.4637	0.1923
287.6766	0.1896
287.8895	0.1881
288.1024	0.1945
288.3152	0.1896
288.5281	0.1863
288.7409	0.1969
288.9538	0.1926
289.1666	0.1965
289.3794	0.1898
289.5922	0.1881
289.8049	0.1873
290.0177	0.1877
290.2304	0.1919
290.4432	0.195
290.6559	0.1907
290.8686	0.1926
291.0813	0.1892
291.294	0.1921
291.5067	0.1887
291.7194	0.2009
291.932	0.185
292.1447	0.1974
292.3573	0.1956
292.5699	0.1967
292.7825	0.1905
292.9951	0.1897
293.2077	0.1906
293.4203	0.193
293.6328	0.1914
293.8454	0.1948
294.0579	0.1918
294.2704	0.1966
294.4829	0.184
294.6954	0.1998
294.9079	0.1944
295.1204	0.1929
295.3328	0.1995
295.5453	0.194
295.7577	0.1941
295.9701	0.1995
296.1825	0.1992
296.3949	0.1973
296.6073	0.1915
296.8197	0.1937
297.0321	0.1967
297.2444	0.1903
297.4567	0.193
297.6691	0.1913
297.8814	0.1972
298.0937	0.1934
298.306	0.1883
298.5182	0.1948
298.7305	0.1917
298.9428	0.1891
299.155	0.1882
299.3672	0.193
299.5794	0.1942
299.7916	0.1922
300.0038	0.196
300.216	0.1874
300.4282	0.1986
300.6403	0.2019
300.8525	0.1979
301.0646	0.2036
301.2767	0.1916
301.4888	0.1964
301.7009	0.1965
301.913	0.1943
302.125	0.1897
302.3371	0.1933
302.5491	0.194
302.7612	0.1997
302.9732	0.197
303.1852	0.1896
303.3972	0.1953
303.6092	0.1945
303.8211	0.1885
304.0331	0.191
304.245	0.1939
304.457	0.1925
304.6689	0.1924
304.8808	0.1861
305.0927	0.1895
305.3046	0.1859
305.5164	0.1833
305.7283	0.1864
305.9401	0.1798
306.152	0.1821
306.3638	0.1812
306.5756	0.1796
306.7874	0.1705
306.9992	0.1744
307.2109	0.1724
307.4227	0.1756
307.6344	0.1708
307.8462	0.1707
308.0579	0.1736
308.2696	0.1661
308.4813	0.1684
308.693	0.1586
308.9046	0.1601
309.1163	0.1616
309.328	0.159
309.5396	0.1518
309.7512	0.1521
309.9628	0.1514
310.1744	0.1451
310.386	0.1454
310.5976	0.1467
310.8091	0.1504
311.0207	0.1427
311.2322	0.142
311.4437	0.1407
311.6552	0.1456
311.8667	0.1428
312.0782	0.1406
312.2897	0.1414
312.5012	0.1359
312.7126	0.1346
312.924	0.1375
313.1355	0.1344
313.3469	0.1374
313.5583	0.1326
313.7696	0.1244
313.981	0.1318
314.1924	0.1309
314.4037	0.1264
314.6151	0.1248
314.8264	0.1305
315.0377	0.1346
315.249	0.1335
315.4603	0.1257
315.6716	0.1305
315.8828	0.1212
316.0941	0.1272
316.3053	0.1198
316.5165	0.1243
316.7277	0.1184
316.9389	0.1269
317.1501	0.1259
317.3613	0.1198
317.5724	0.1192
317.7836	0.1101
317.9947	0.1213
318.2058	0.1193
318.417	0.1272
318.6281	0.118
318.8391	0.121
319.0502	0.1154
319.2613	0.1176
319.4723	0.1171
319.6834	0.12
319.8944	0.1188
320.1054	0.1206
320.3164	0.1146
320.5274	0.1204
320.7383	0.1219
320.9493	0.1164
321.1602	0.1201
321.3712	0.1255
321.5821	0.121
321.793	0.1263
322.0039	0.123
322.2148	0.117
322.4257	0.1194
322.6365	0.1177
322.8474	0.1273
323.0582	0.1267
323.269	0.1211
323.4798	0.1224
323.6906	0.1184
323.9014	0.1213
324.1122	0.1151
324.3229	0.1247
324.5337	0.1258
324.7444	0.1206
324.9551	0.1254
325.1658	0.1208
325.3765	0.1245
325.5872	0.1242
325.7979	0.1233
326.0085	0.1245
326.2192	0.1217
326.4298	0.1274
326.6404	0.1288
326.851	0.1228
327.0616	0.1251
327.2722	0.1271
327.4828	0.119
327.6933	0.1371
327.9039	0.1215
328.1144	0.1277
328.3249	0.1262
328.5354	0.1253
328.7459	0.1265
328.9564	0.1281
329.1669	0.1285
329.3773	0.1282
329.5878	0.1238
329.7982	0.1324
330.0086	0.1307
330.219	0.1276
330.4294	0.128
330.6398	0.1302
330.8502	0.1348
331.0605	0.1259
331.2708	0.1223
331.4812	0.1243
331.6915	0.1325
331.9018	0.1232
332.1121	0.1345
332.3224	0.129
332.5326	0.1239
332.7429	0.1277
332.9531	0.1343
333.1633	0.1278
333.3735	0.1287
333.5837	0.1263
333.7939	0.134
334.0041	0.1385
334.2143	0.1271
334.4244	0.142
334.6346	0.1291
334.8447	0.1351
335.0548	0.1325
335.2649	0.1344
335.475	0.1322
335.685	0.139
335.8951	0.1265
336.1051	0.1392
336.3152	0.1355
336.5252	0.1343
336.7352	0.1362
336.9452	0.1427
337.1552	0.136
337.3652	0.1347
337.5751	0.1333
337.7851	0.1345
337.995	0.1384
338.2049	0.135
338.4148	0.1363
338.6247	0.1385
338.8346	0.1346
339.0445	0.1354
339.2543	0.1382
339.4642	0.1368
339.674	0.1391
339.8838	0.1367
340.0936	0.1416
340.3034	0.1303
340.5132	0.135
340.7229	0.1381
340.9327	0.1452
341.1424	0.1435
341.3522	0.1388
341.5619	0.1451
341.7716	0.145
341.9813	0.1467
342.1909	0.1491
342.4006	0.1529
342.6102	0.1489
342.8199	0.1456
343.0295	0.1421
343.2391	0.1498
343.4487	0.1538
343.6583	0.1528
343.8679	0.1461
344.0774	0.1472
344.287	0.1543
344.4965	0.1481
344.706	0.1559
344.9155	0.1477
345.125	0.1495
345.3345	0.1613
345.544	0.1523
345.7534	0.1577
345.9629	0.1551
346.1723	0.16
346.3817	0.1597
346.5911	0.158
346.8005	0.1588
347.0099	0.1513
347.2193	0.1634
347.4286	0.164
347.638	0.1592
347.8473	0.1707
348.0566	0.1634
348.2659	0.159
348.4752	0.161
348.6845	0.1628
348.8937	0.1602
349.103	0.164
349.3122	0.1631
349.5214	0.1645
349.7306	0.1765
349.9398	0.1709
350.149	0.1705
350.3582	0.1679
350.5674	0.1733
350.7765	0.175
350.9856	0.1716
351.1948	0.171
351.4039	0.1709
351.613	0.1773
351.822	0.1786
352.0311	0.1759
352.2402	0.1752
352.4492	0.1763
352.6582	0.1788
352.8672	0.1785
353.0762	0.1824
353.2852	0.173
353.4942	0.1827
353.7032	0.1796
353.9121	0.1901
354.1211	0.1809
354.33	0.1845
354.5389	0.1709
354.7478	0.1812
354.9567	0.191
355.1655	0.1798
355.3744	0.1735
355.5833	0.1794
355.7921	0.187
356.0009	0.187
356.2097	0.1815
356.4185	0.1923
356.6273	0.1805
356.8361	0.1894
357.0448	0.1892
357.2536	0.1909
357.4623	0.1942
357.671	0.2021
357.8797	0.1947
358.0884	0.1911
358.2971	0.1945
358.5057	0.2012
358.7144	0.1925
358.923	0.1965
359.1316	0.204
359.3402	0.2052
359.5488	0.1982
359.7574	0.204
359.966	0.1999
360.1746	0.1921
360.3831	0.2025
360.5916	0.2091
360.8002	0.2177
361.0087	0.2053
361.2172	0.2069
361.4256	0.2116
361.6341	0.21
361.8426	0.2085
362.051	0.2138
362.2594	0.2078
362.4678	0.2102
362.6762	0.2147
362.8846	0.2101
363.093	0.2136
363.3014	0.2243
363.5097	0.2203
363.718	0.2161
363.9264	0.2277
364.1347	0.2227
364.343	0.2285
364.5513	0.2221
364.7595	0.2342
364.9678	0.2255
365.176	0.2318
365.3842	0.2244
365.5925	0.227
365.8007	0.2239
366.0089	0.2341
366.217	0.2348
366.4252	0.2332
366.6333	0.234
366.8415	0.2357
367.0496	0.2369
367.2577	0.243
367.4658	0.2346
367.6739	0.2364
367.882	0.2435
368.09	0.2402
368.2981	0.2468
368.5061	0.2409
368.7141	0.2429
368.9221	0.2512
369.1301	0.2525
369.3381	0.2572
369.5461	0.2506
369.754	0.2522
369.962	0.2526
370.1699	0.2585
370.3778	0.2642
370.5857	0.2578
370.7936	0.2531
371.0015	0.2583
371.2093	0.2511
371.4172	0.2548
371.625	0.2546
371.8328	0.252
372.0406	0.2615
372.2484	0.2677
372.4562	0.264
372.664	0.2646
372.8717	0.2641
373.0795	0.2657
373.2872	0.2779
373.4949	0.2663
373.7026	0.2664
373.9103	0.273
374.118	0.2711
374.3256	0.2754
374.5333	0.2628
374.7409	0.2726
374.9485	0.2703
375.1561	0.2745
375.3637	0.2638
375.5713	0.2735
375.7789	0.2785
375.9864	0.2773
376.194	0.2791
376.4015	0.2795
376.609	0.2803
376.8165	0.282
377.024	0.2824
377.2315	0.2944
377.4389	0.2806
377.6464	0.287
377.8538	0.286
378.0612	0.291
378.2686	0.2891
378.476	0.2984
378.6834	0.2845
378.8908	0.2991
379.0981	0.2898
379.3055	0.296
379.5128	0.2905
379.7201	0.2938
379.9274	0.296
380.1347	0.2944
380.342	0.3083
380.5492	0.2896
380.7565	0.3008
380.9637	0.2984
381.1709	0.289
381.3781	0.3009
381.5853	0.2941
381.7925	0.3018
381.9997	0.2987
382.2068	0.2982
382.4139	0.3038
382.6211	0.3076
382.8282	0.3097
383.0353	0.3141
383.2424	0.297
383.4494	0.2993
383.6565	0.3078
383.8635	0.3044
384.0706	0.3088
384.2776	0.3101
384.4846	0.3061
384.6916	0.3123
384.8986	0.3131
385.1055	0.3089
385.3125	0.3181
385.5194	0.3064
385.7263	0.3037
385.9333	0.3087
386.1402	0.3065
386.347	0.3108
386.5539	0.3161
386.7608	0.3045
386.9676	0.3083
387.1744	0.3112
387.3813	0.311
387.5881	0.3007
387.7948	0.3071
388.0016	0.32
388.2084	0.3052
388.4151	0.3119
388.6219	0.3047
388.8286	0.3167
389.0353	0.3016
389.242	0.3185
389.4487	0.3045
389.6553	0.298
389.862	0.2894
390.0686	0.3049
390.2753	0.3039
390.4819	0.3062
390.6885	0.3052
390.8951	0.3005
391.1016	0.2958
391.3082	0.3003
391.5147	0.2917
391.7213	0.2947
391.9278	0.2935
392.1343	0.3022
392.3408	0.2852
392.5473	0.2919
392.7537	0.2931
392.9602	0.2897
393.1666	0.2837
393.373	0.2891
393.5794	0.2914
393.7858	0.2866
393.9922	0.28
394.1986	0.2791
394.4049	0.2847
394.6113	0.2793
394.8176	0.2896
395.0239	0.2717
395.2302	0.2835
395.4365	0.2709
395.6428	0.2792
395.8491	0.2798
396.0553	0.2726
396.2615	0.2725
396.4678	0.2771
396.674	0.2695
396.8802	0.2621
397.0863	0.2638
397.2925	0.2686
397.4987	0.2682
397.7048	0.2726
397.9109	0.2601
398.117	0.272
398.3231	0.2701
398.5292	0.2503
398.7353	0.2619
398.9413	0.2658
399.1474	0.2729
399.3534	0.2679
399.5594	0.272
399.7654	0.2558
399.9714	0.2691
400.1774	0.259
400.3833	0.2555
400.5893	0.2645
400.7952	0.2691
401.0011	0.2592
401.207	0.2706
401.4129	0.2678
401.6188	0.2513
401.8247	0.2713
402.0305	0.2617
402.2364	0.2607
402.4422	0.2696
402.648	0.2601
402.8538	0.2612
403.0596	0.2583
403.2654	0.2663
403.4711	0.2562
403.6768	0.2581
403.8826	0.2647
404.0883	0.2537
404.294	0.2638
404.4997	0.2629
404.7054	0.2615
404.911	0.2548
405.1167	0.2582
405.3223	0.2555
405.5279	0.2693
405.7335	0.257
405.9391	0.2532
406.1447	0.2697
406.3502	0.2518
406.5558	0.2619
406.7613	0.2639
406.9668	0.2594
407.1724	0.2714
407.3778	0.2634
407.5833	0.2467
407.7888	0.2627
407.9942	0.2521
408.1997	0.263
408.4051	0.2626
408.6105	0.2716
408.8159	0.2673
409.0213	0.2582
409.2267	0.2693
409.432	0.2738
409.6374	0.263
409.8427	0.2699
410.048	0.2527
410.2533	0.265
410.4586	0.2512
410.6639	0.268
410.8691	0.2619
411.0744	0.262
411.2796	0.2676
411.4848	0.2645
411.69	0.2528
411.8952	0.2599
412.1004	0.2591
412.3056	0.2667
412.5107	0.264
412.7158	0.2597
412.921	0.2598
413.1261	0.2564
413.3312	0.2587
413.5362	0.271
413.7413	0.2604
413.9464	0.2548
414.1514	0.2534
414.3564	0.2482
414.5614	0.2625
414.7664	0.2496
414.9714	0.2585
415.1764	0.2672
415.3813	0.2535
415.5863	0.2574
415.7912	0.2486
415.9961	0.2593
416.201	0.2687
416.4059	0.2494
416.6108	0.2483
416.8156	0.259
417.0205	0.2493
417.2253	0.2641
417.4301	0.2637
417.6349	0.2514
417.8397	0.2495
418.0445	0.2503
418.2492	0.2419
418.454	0.2591
418.6587	0.2494
418.8634	0.2532
419.0681	0.2515
419.2728	0.252
419.4775	0.2596
419.6822	0.2552
419.8868	0.239
420.0915	0.2462
420.2961	0.2298
420.5007	0.2526
420.7053	0.241
420.9099	0.2399
421.1144	0.2418
421.319	0.2401
421.5235	0.2373
421.728	0.2565
421.9325	0.2403
422.137	0.2397
422.3415	0.2375
422.546	0.23
422.7504	0.2475
422.9549	0.2436
423.1593	0.2272
423.3637	0.2355
423.5681	0.2321
423.7725	0.2249
423.9769	0.2326
424.1812	0.2265
424.3856	0.2222
424.5899	0.2262
424.7942	0.2282
424.9985	0.2297
425.2028	0.2356
425.4071	0.2287
425.6113	0.2333
425.8156	0.2227
426.0198	0.2185
426.224	0.2289
426.4282	0.2144
426.6324	0.2159
426.8366	0.2109
427.0407	0.225
427.2449	0.2131
427.449	0.2122
427.6531	0.2148
427.8572	0.2138
428.0613	0.2223
428.2654	0.2147
428.4694	0.2087
428.6735	0.2089
428.8775	0.2002
429.0815	0.2094
429.2855	0.199
429.4895	0.2054
429.6935	0.2022
429.8975	0.1878
430.1014	0.2002
430.3053	0.1972
430.5093	0.1899
430.7132	0.1873
430.9171	0.1815
431.1209	0.185
431.3248	0.1788
431.5286	0.1788
431.7325	0.1884
431.9363	0.1731
432.1401	0.1844
432.3439	0.1793
432.5477	0.1757
432.7514	0.1691
432.9552	0.1744
433.1589	0.1741
433.3627	0.1752
433.5664	0.165
433.7701	0.1681
433.9737	0.1702
434.1774	0.1739
434.3811	0.165
434.5847	0.162
434.7883	0.1534
434.9919	0.1496
435.1955	0.1596
435.3991	0.1529
435.6027	0.15
435.8062	0.1591
436.0098	0.1429
436.2133	0.1442
436.4168	0.1431
436.6203	0.1399
436.8238	0.139
437.0272	0.1436
437.2307	0.1397
437.4341	0.1351
437.6375	0.1373
437.841	0.1299
438.0443	0.1464
438.2477	0.1358
438.4511	0.1247
438.6545	0.1227
438.8578	0.1197
439.0611	0.1253
439.2644	0.1259
439.4677	0.125
439.671	0.1077
439.8743	0.1164
440.0775	0.1178
440.2808	0.1085
440.484	0.1115
440.6872	0.1081
440.8904	0.1038
441.0936	0.1054
441.2967	0.0964
441.4999	0.0934
441.703	0.1034
441.9062	0.1031
442.1093	0.1139
442.3124	0.0987
442.5155	0.0937
442.7185	0.0877
442.9216	0.0975
443.1246	0.0949
443.3276	0.0941
443.5307	0.0794
443.7337	0.0946
443.9366	0.0823
444.1396	0.0812
444.3426	0.0779
444.5455	0.0751
444.7484	0.0809
444.9513	0.08
445.1542	0.0837
445.3571	0.0784
445.56	0.0688
445.7628	0.0731
445.9657	0.0793
446.1685	0.0733
446.3713	0.0716
446.5741	0.0756
446.7769	0.0711
446.9797	0.0646
447.1824	0.0639
447.3852	0.052
447.5879	0.0698
447.7906	0.0585
447.9933	0.0588
448.196	0.0638
448.3986	0.054
448.6013	0.0491
448.8039	0.0605
449.0066	0.0631
449.2092	0.0612
449.4118	0.0507
449.6143	0.0524
449.8169	0.0508
450.0195	0.0484
450.222	0.0533
450.4245	0.0516
450.627	0.0418
450.8295	0.0444
451.032	0.0472
451.2345	0.0418
451.4369	0.0574
451.6394	0.0437
451.8418	0.0481
452.0442	0.0392
452.2466	0.0305
452.449	0.0405
452.6513	0.0391
452.8537	0.0352
453.056	0.0419
453.2583	0.0359
453.4607	0.0314
453.663	0.0361
453.8652	0.0345
454.0675	0.0425
454.2697	0.0381
454.472	0.0351
454.6742	0.0377
454.8764	0.0392
455.0786	0.0298
455.2808	0.0288
455.4829	0.0321
455.6851	0.0216
455.8872	0.021
456.0893	0.0324
456.2915	0.0195
456.4935	0.0279
456.6956	0.0277
456.8977	0.0272
457.0997	0.0293
457.3018	0.023
457.5038	0.0323
457.7058	0.0232
457.9078	0.0304
458.1098	0.021
458.3117	0.0274
458.5137	0.0069
458.7156	0.0276
458.9175	0.0224
459.1194	0.0179
459.3213	0.0231
459.5232	0.0285
459.725	0.0156
459.9269	0.0231
460.1287	0.0148
460.3305	0.0245
460.5323	0.0153
460.7341	0.0177
460.9359	0.0075
461.1376	0.0188
461.3394	0.0206
461.5411	0.025
461.7428	0.0148
461.9445	0.0104
462.1462	0.0266
462.3479	0.023
462.5495	0.0186
462.7512	0.0247
462.9528	0.0156
463.1544	0.0049
463.356	0.0099
463.5576	0.0171
463.7592	0.0142
463.9607	0.0106
464.1623	0.0081
464.3638	0.0046
464.5653	0.0106
464.7668	0.0183
464.9683	0.0121
465.1697	0.0075
465.3712	0.0052
465.5726	0.0027
465.7741	0.0182
465.9755	0.0084
466.1769	0.0096
466.3782	0.0102
466.5796	0.012
466.7809	0.0093
466.9823	0.0047
467.1836	0.0094
467.3849	0.0033
467.5862	0.0026
467.7875	0.0018
467.9887	0.0099
468.19	0.0107
468.3912	0.022
468.5924	0.0098
468.7936	0.0086
468.9948	0.0107
469.196	0.0085
469.3972	-0.0009
469.5983	0.0051
469.7994	0.0059
470.0006	0.008
470.2017	0.0039
470.4027	0.0199
470.6038	0.0079
470.8049	0.0098
471.0059	0.0091
471.2069	0.0111
471.408	0.0028
471.6089	0.0145
471.8099	0.0046
472.0109	0.0061
472.2119	0.0153
472.4128	0.0032
472.6137	0.0079
472.8146	0.0042
473.0155	0.0139
473.2164	0.0003
473.4173	-0
473.6181	-0.0115
473.819	0.0066
474.0198	-0.0037
474.2206	-0.0024
474.4214	0.0079
474.6222	-0.0064
474.8229	-0.0016
475.0237	0.0044
475.2244	0.0115
475.4251	0.0035
475.6258	-0.006
475.8265	0.0058
476.0272	-0.0099
476.2278	0.0078
476.4285	0.0114
476.6291	0.0041
476.8297	0.0004
477.0303	-0.0011
477.2309	0.0067
477.4315	0.0121
477.632	-0.0039
477.8326	0.0118
478.0331	0.0048
478.2336	0.0062
478.4341	0.0109
478.6346	-0.0057
478.8351	0.0005
479.0355	0.0062
479.236	0.0102
479.4364	0.0058
479.6368	0.0075
479.8372	-0.0027
480.0376	0.0025
480.2379	0.001
480.4383	0.0071
480.6386	-0.0028
480.8389	0.0043
481.0392	0.0008
481.2395	0.0093
481.4398	0.0068
481.6401	0.0077
481.8403	-0.0036
482.0405	0.0094
482.2408	0.003
482.441	0.0092
482.6411	0.0082
482.8413	-0.0053
483.0415	0.0216
483.2416	-0.0013
483.4417	-0.002
483.6419	-0.0038
483.8419	0.0046
484.042	0.0082
484.2421	-0.0075
484.4422	0.0042
484.6422	0.0034
484.8422	0.0069
485.0422	0.006
485.2422	0.0016
485.4422	0.003
485.6422	0.0045
485.8421	0.0004
486.042	0.009
486.242	-0.0001
486.4419	0.0036
486.6417	-0.0017
486.8416	0.0041
487.0415	-0.0048
487.2413	-0.001
487.4411	0.0062
487.641	-0.0009
487.8408	0.0063
488.0405	0.0024
488.2403	-0.005
488.4401	0.006
488.6398	0.0041
488.8395	0.0048
489.0392	0.0063
489.2389	-0.0031
489.4386	-0.0065
489.6383	0.0061
489.8379	-0.0017
490.0376	0.0038
490.2372	-0.0032
490.4368	-0.0014
490.6364	-0.0032
490.836	-0.001
491.0355	-0.0014
491.2351	0.0039
491.4346	0.008
491.6341	-0.005
491.8336	-0.0026
492.0331	-0.0046
492.2326	-0.0015
492.432	0.0003
492.6315	0.0072
492.8309	0.0014
493.0303	0.006
493.2297	0.0048
493.4291	0.0046
493.6284	0.0052
493.8278	-0.0004
494.0271	-0.0006
494.2264	-0.0055
494.4257	-0.0008
494.625	-0.001
494.8243	-0.0098
495.0236	0.0055
495.2228	0.0062
495.422	0.0034
495.6213	0.0014
495.8205	0.0043
496.0196	-0.0008
496.2188	0.0017
496.418	0
496.6171	-0.0037
496.8162	-0.0027
497.0153	0.007
497.2144	0.0012
497.4135	0
497.6126	-0.0035
497.8116	0.0034
498.0107	-0.0043
498.2097	0.0014
498.4087	-0.0037
498.6077	-0.01
498.8067	0.0047
499.0056	-0.0019
499.2046	0.0059
499.4035	-0.0009
499.6024	-0.0072
499.8013	0.0076
500.0002	0.0081
500.199	0.0025
500.3979	-0.006
500.5967	-0
500.7956	0.0024
500.9944	0.0012
501.1932	0.0085
501.3919	0.0026
501.5907	0.0007
501.7895	-0.0014
501.9882	-0.002
502.1869	0.0034
502.3856	0.0015
502.5843	0.0024
502.783	-0.0061
502.9816	0.0028
503.1803	0.0017
503.3789	0.0027
503.5775	-0.0016
503.7761	-0.0011
503.9747	0.0012
504.1732	-0.0112
504.3718	0.012
504.5703	0.0057
504.7689	-0.0111
504.9674	-0.009
505.1658	-0.0026
505.3643	0.0045
505.5628	-0.002
505.7612	0.0015
505.9597	-0.0047
506.1581	0.0005
506.3565	0.0036
506.5549	-0.0004
506.7532	-0.0069
506.9516	-0.0005
507.1499	-0.0003
507.3482	-0.0007
507.5465	-0.001
507.7448	-0.0057
507.9431	-0.0029
508.1414	-0.0074
508.3396	0.0031
508.5379	-0.003
508.7361	-0.0023
508.9343	0.0049
509.1325	0.0076
509.3306	-0.0039
509.5288	-0.0052
509.7269	0.0063
509.9251	-0.0055
510.1232	0.0014
510.3213	-0.001
510.5193	-0.0053
510.7174	-0.0045
510.9154	0.0051
511.1135	-0.0009
511.3115	-0.0046
511.5095	-0.0028
511.7075	-0.0081
511.9055	0.003
512.1034	-0.0026
512.3014	-0.0085
512.4993	-0.0038
512.6972	-0.0009
512.8951	-0.0069
513.093	-0.0087
513.2908	0.0071
513.4887	-0.0059
513.6865	-0.0014
513.8844	0.0056
514.0822	-0.0065
514.2799	-0.0107
514.4777	-0.0049
514.6755	-0.0086
514.8732	-0.0091
515.0709	0.0017
515.2687	-0.0032
515.4664	-0.0002
515.664	0.0001
515.8617	-0.0001
516.0594	0.001
516.257	-0.0064
516.4546	0.0136
516.6522	-0.0074
516.8498	0.0039
517.0474	-0.0048
517.2449	-0.0095
517.4425	0.0095
517.64	0.0046
517.8375	0.0046
518.035	-0.0105
518.2325	-0.0137
518.43	-0.0057
518.6274	-0.0026
518.8249	-0.0113
519.0223	0.0043
519.2197	0.0002
519.4171	-0.0043
519.6145	0.0008
519.8118	-0.0223
520.0092	-0.0048
520.2065	0.0074
520.4038	-0.0084
520.6011	0.0002
520.7984	-0.0006
520.9956	-0.0028
521.1929	0.002
521.3901	0.0036
521.5874	0.0006
521.7846	-0.0057
521.9818	0.0022
522.1789	-0.0098
522.3761	0.0132
522.5732	0.0057
522.7704	-0.009
522.9675	-0.0149
523.1646	-0.0091
523.3617	-0.0002
523.5587	-0.0003
523.7558	-0.0047
523.9528	0.006
524.1498	-0.0111
524.3468	0.0018
524.5438	-0.0001
524.7408	-0.0096
524.9378	0.0032
525.1347	-0.0036
525.3316	-0.003
525.5285	-0.0027
525.7254	0.0022
525.9223	0.009
526.1192	-0.0035
526.316	0.0068
526.5129	0.004
526.7097	-0.0082
526.9065	0.0013
527.1033	0.003
527.3	-0.0058
527.4968	0.0015
527.6935	-0.012
527.8903	-0.0018
528.087	-0.0027
528.2837	0.006
528.4804	-0.0054
528.677	-0.0128
528.8737	0.0024
529.0703	-0.0068
529.2669	0.0085
529.4635	-0.0012
529.6601	-0.0156
529.8567	-0.0092
530.0532	0.0059
530.2498	-0.0058
530.4463	-0.0161
530.6428	-0.0036
530.8393	0.0099
531.0358	-0.0081
531.2322	-0.0061
531.4287	-0.0042
531.6251	-0.0164
531.8215	-0.0099
532.0179	-0.0006
532.2143	0.001
532.4107	-0.0065
532.607	-0.0007
532.8034	-0.004
532.9997	-0.0078
533.196	-0.0088
533.3923	0.0054
533.5886	-0.0005
533.7848	-0.0079
533.9811	0.0061
534.1773	-0.0032
534.3735	0.0023
534.5697	-0.0067
534.7659	0.0024
534.9621	0.0052
535.1582	-0.0002
535.3544	0.0022
535.5505	0.0018
535.7466	-0.0003
535.9427	-0.0096
536.1387	-0.0088
536.3348	0.0047
536.5308	-0.0006
536.7269	0.0006
536.9229	-0.0048
537.1189	-0.0067
537.3148	0.0012
537.5108	-0.0098
537.7068	0.0129
537.9027	-0.0042
538.0986	0.0017
538.2945	-0.0022
538.4904	-0.0133
538.6863	-0.0003
538.8821	0.002
539.078	-0.0064
539.2738	0.0026
539.4696	-0.0065
539.6654	-0.0024
539.8611	0.0034
540.0569	-0.0022
540.2526	0.0081
540.4484	-0.0124
540.6441	-0.0016
540.8398	0.0081
541.0355	0.0017
541.2311	0.0017
541.4268	0.0119
541.6224	0.0042
541.818	-0.0037
542.0136	0.0041
542.2092	0.0017
542.4048	-0.0019
542.6003	0.0011
542.7959	-0.0047
542.9914	-0.004
543.1869	0.0049
543.3824	-0.0027
543.5779	0.013
543.7734	0.0055
543.9688	0.0013
544.1642	0.0064
544.3596	0.0084
544.555	-0.0065
544.7504	0.009
544.9458	0.0027
545.1411	-0.0078
545.3365	-0.0006
545.5318	0.007
545.7271	0.0092
545.9224	-0.0009
546.1177	0.0023
546.3129	0.0023
546.5081	-0.0041
546.7034	0.005
546.8986	-0.0042
547.0938	0.0026
547.289	0.0042
547.4841	0.0058
547.6793	0.0017
547.8744	0.0035
548.0695	-0.0031
548.2646	0.0062
548.4597	-0
548.6548	0.0037
548.8498	0.0122
549.0448	0.0036
549.2399	-0.0011
549.4349	0.0033
549.6298	0.0026
549.8248	0.0028
550.0198	0.0081
550.2147	0.0138
550.4096	-0.0101
550.6045	-0.0007
550.7994	0.0001
550.9943	0.0168
551.1892	-0.0021
551.384	0.0069
551.5788	-0.004
551.7737	0.005
551.9685	0.0063
552.1632	-0.0066
552.358	0.0068
552.5528	0.002
552.7475	0.002
552.9422	0.0089
553.1369	-0.0004
553.3316	0.0132
553.5263	0.0028
553.7209	-0.0032
553.9156	-0.0052
554.1102	0.0033
554.3048	-0.0007
554.4994	0.0113
554.694	0.003
554.8885	-0.005
555.0831	0.019
555.2776	0.004
555.4721	-0.0003
555.6666	0.0056
555.8611	0.0072
556.0555	-0.0032
556.25	-0.0054
556.4444	-0.0015
556.6388	-0.0018
556.8332	0.0042
557.0276	0.0023
557.222	-0.0069
557.4163	-0.0015
557.6107	-0.0066
557.805	-0.0032
557.9993	-0.0069
558.1936	-0.0094
558.3879	0.0005
558.5821	-0.0026
558.7764	0.0093
558.9706	-0.0025
559.1648	0.0138
559.359	-0.006
559.5532	0.0014
559.7473	0.0046
559.9415	0.0012
560.1356	0.016
560.3297	-0.0064
560.5238	0.0062
560.7179	-0.0025
560.9119	-0.0055
561.106	0.0008
561.3	-0.0028
561.494	-0.0074
561.688	-0.0018
561.882	-0.0006
562.076	0.002
562.2699	0.005
562.4639	0.0104
562.6578	0.0026
562.8517	-0.0001
563.0456	-0.0017
563.2395	0.0021
563.4333	0.0012
563.6272	-0.0057
563.821	0.0029
564.0148	0.002
564.2086	-0.008
564.4024	0.0085
564.5961	0.0083
564.7899	0.0092
564.9836	-0.008
565.1773	0.0117
565.371	-0.0031
565.5647	0.0044
565.7584	0.0122
565.952	-0.0009
566.1456	0.0034
566.3393	-0.0029
566.5329	0.0057
566.7264	0.0072
566.92	0.0007
567.1136	-0.0045
567.3071	-0
567.5006	0.0002
567.6941	0.0031
567.8876	0.0044
568.0811	0.0184
568.2745	-0.0015
568.468	0.0069
568.6614	0.004
568.8548	0.0089
569.0482	0.0003
569.2416	0.003
569.4349	0.0055
569.6283	0.003
569.8216	0.0076
570.0149	0.0057
570.2082	0.0102
570.4015	0.0062
570.5947	0.0079
570.788	0.0077
570.9812	0.0016
571.1744	0.0038
571.3676	0.0025
571.5608	0.0024
571.754	0.0116
571.9471	0.0079
572.1402	0.0002
572.3333	0.0091
572.5264	0.0007
572.7195	0.0058
572.9126	0.0008
573.1057	0.0061
573.2987	0
573.4917	0.0056
573.6847	0.0014
573.8777	0.0062
574.0707	0.0022
574.2636	0.0049
574.4566	0.001
574.6495	0.001
574.8424	0.009
575.0353	0.0078
575.2281	0.0091
575.421	-0.0005
575.6138	0.0042
575.8067	0.0054
575.9995	0.0018
576.1923	0.0046
576.385	0.0067
576.5778	0.006
576.7706	0.0068
576.9633	0.0009
577.156	-0.0032
577.3487	0.0049
577.5414	0.0063
577.734	0.0031
577.9267	0.0062
578.1193	0.0032
578.3119	0.0033
578.5045	0.0016
578.6971	-0
578.8897	0.0014
579.0822	0.0106
579.2747	0.0021
579.4673	0.0024
579.6598	0.005
579.8522	-0.0008
580.0447	0.0034
580.2372	0.0055
580.4296	0.0061
580.622	0.0005
580.8144	0.0059
581.0068	0.0069
581.1992	0.0057
581.3915	0.0002
581.5839	0.005
581.7762	0.0023
581.9685	0.0073
582.1608	0.0038
582.353	0.0025
582.5453	0.0112
582.7375	0.0076
582.9298	-0.0021
583.122	0.0057
583.3142	0.0069
583.5063	0.0028
583.6985	-0.0012
583.8906	0.0009
584.0827	0.0013
584.2749	0.003
584.4669	0.0036
584.659	0.0074
584.8511	0.0104
585.0431	0.0029
585.2352	0.0024
585.4272	0.004
585.6192	0.0026
585.8111	0.0015
586.0031	0.0002
586.195	0.0008
586.387	0.0014
586.5789	0.0109
586.7708	0.0076
586.9627	0.0077
587.1545	-0
587.3464	0.0044
587.5382	0.0043
587.73	0.0088
587.9218	0.0031
588.1136	0.0006
588.3053	0.002
588.4971	0.0011
588.6888	-0.0029
588.8805	-0.0028
589.0722	0.0157
589.2639	0.0055
589.4556	0.0056
589.6472	0.0032
589.8389	-0.0001
590.0305	0.0015
590.2221	-0.0035
590.4137	-0.0029
590.6052	0.0007
590.7968	0.0057
590.9883	0.0018
591.1798	0.0037
591.3713	0.0042
591.5628	0.0027
591.7543	0.0025
591.9458	0.0024
592.1372	0.0051
592.3286	0.0039
592.52	0.0062
592.7114	0.0069
592.9028	0.0125
593.0941	0.0004
593.2855	0.0017
593.4768	0.0088
593.6681	0.0117
593.8594	0.0085
594.0506	0.0045
594.2419	0.0016
594.4331	0.0022
594.6244	-0.0009
594.8156	0.0049
595.0067	0.0006
595.1979	-0.0016
595.3891	0.0078
595.5802	0.0106
595.7713	0.0028
595.9624	0.009
596.1535	0.0022
596.3446	0.0015
596.5357	0.0114
596.7267	-0.0022
596.9177	0.0044
597.1087	-0.0006
597.2997	0.0036
597.4907	0.0015
597.6817	0.0066
597.8726	0.0041
598.0635	-0.0003
598.2544	0.0041
598.4453	0.0054
598.6362	0.0046
598.827	0.0006
599.0179	0.005
599.2087	0.003
599.3995	0.0021
599.5903	0.0061
599.7811	0.0127
599.9718	-0.0015
600.1626	0.0002
600.3533	0.0041
600.544	0.0033
600.7347	0.001
600.9254	0.0077
601.116	0.0046
601.3067	-0.002
601.4973	0.0064
601.6879	0.0039
601.8785	0.0072
602.0691	0.0006
602.2596	0.0045
602.4502	0.0064
602.6407	0.0046
602.8312	0.0041
603.0217	0.0046
603.2122	0.0044
603.4027	0.0015
603.5931	0.0019
603.7835	0.0041
603.9739	-0.0029
604.1643	0.0119
604.3547	0.0062
604.5451	0.0057
604.7354	0.0024
604.9257	-0.0039
605.116	0.0042
605.3063	0.0058
605.4966	0.0035
605.6869	0.0109
605.8771	0.0001
606.0673	0.0046
606.2575	0.0002
606.4477	0.0122
606.6379	-0.0022
606.8281	0.0007
607.0182	0.0055
607.2083	0.004
607.3985	0.0022
607.5885	0.002
607.7786	0.0057
607.9687	0.0018
608.1587	0.0123
608.3488	0.0074
608.5388	-0.0009
608.7288	0.0014
608.9187	0.0021
609.1087	0.0064
609.2986	0.0132
609.4886	-0.0038
609.6785	0.0065
609.8684	0.0022
610.0582	-0
610.2481	-0.0014
610.4379	0.0066
610.6278	0.0057
610.8176	0.0108
611.0074	-0
611.1971	0.0012
611.3869	0.0087
611.5766	-0.0036
611.7664	0.0048
611.9561	0.0016
612.1458	0.0047
612.3354	0.0085
612.5251	0.0031
612.7147	0.01
612.9044	0.0023
613.094	0.0069
613.2836	0.0014
613.4731	0.0019
613.6627	0.0047
613.8522	0.0042
614.0417	0.0091
614.2313	0.001
614.4207	0.0027
614.6102	0.0076
614.7997	0.004
614.9891	0.0053
615.1785	0.0028
615.3679	0.0096
615.5573	0.0044
615.7467	-0.008
615.9361	0.0043
616.1254	0.0108
616.3147	0.009
616.504	0.0109
616.6933	0.0016
616.8826	0.0055
617.0718	0.0123
617.2611	-0.0006
617.4503	0.0044
617.6395	0.0091
617.8287	0.0056
618.0179	0.0062
618.207	0.0045
618.3961	0.0009
618.5853	-0.0006
618.7744	0.0022
618.9634	0.0132
619.1525	0.0085
619.3416	-0.0031
619.5306	0.0078
619.7196	0.001
619.9086	0.0041
620.0976	-0.0077
620.2866	0.0077
620.4755	0.0052
620.6645	0.0068
620.8534	0.0024
621.0423	0.0051
621.2312	-0.0038
621.42	0.0034
621.6089	-0.0021
621.7977	0.0002
621.9865	-0.0035
622.1753	-0.0004
622.3641	-0.0044
622.5529	-0.0027
622.7416	-0.0048
622.9303	-0.0083
623.1191	0.0053
623.3078	0.004
623.4964	-0.0014
623.6851	0.0121
623.8737	-0.0035
624.0624	-0.0164
624.251	0.0109
624.4396	0.0069
624.6282	0.0096
624.8167	-0.0068
625.0053	0.0101
625.1938	-0.0042
625.3823	0.0093
625.5708	-0.0006
625.7593	0.0032
625.9477	0.017
626.1362	-0.0081
626.3246	-0.0009
626.513	0.001
626.7014	-0.0003
626.8898	0.0093
627.0781	0.0079
627.2665	0.0028
627.4548	-0.0062
627.6431	0.0008
627.8314	0.0052
628.0197	-0.0027
628.2079	-0.0061
628.3962	0.0052
628.5844	0.0143
628.7726	-0.0009
628.9608	0.0109
629.1489	0.0072
629.3371	-0.0018
629.5252	0.0072
629.7134	-0
629.9015	0.0069
630.0895	-0.001
630.2776	0.0029
630.4657	0.0147
630.6537	0.0036
630.8417	-0.0048
631.0297	-0.0087
631.2177	0.0014
631.4057	0.0057
631.5936	-0.0112
631.7815	0.0085
631.9695	0.0115
632.1574	0.0102
632.3452	0.0143
632.5331	0.0162
632.7209	0.0115
632.9088	0.01
633.0966	0.0222
633.2844	0.0139
633.4722	0.0117
633.6599	0.0126
633.8477	0.0135
634.0354	0.0156
634.2231	-0.0094
634.4108	-0.0097
634.5985	0.0088
634.7861	-0.0175
634.9738	-0.0168
635.1614	-0.0047
635.349	-0.0071
635.5366	0.0051
635.7242	-0.0075
635.9117	-0.0083
636.0993	-0.0011
636.2868	-0.0048
636.4743	-0.0005
636.6618	-0.0184
636.8492	0.0041
637.0367	0.003
637.2241	0.0095
637.4115	0.0336
637.5989	-0
637.7863	0.0169
637.9737	0.0042
638.161	0.0075
638.3484	-0.0086
638.5357	-0.0036
638.723	0.0317
638.9103	-0.0048
639.0975	-0.002
639.2848	0.0019
639.472	0.0116
639.6592	-0.0185
639.8464	-0.0092
640.0336	-0.0059
640.2208	-0.0082
640.4079	-0.0143
640.595	0.0062
640.7821	0.0075
640.9692	-0.022
641.1563	-0.0008
641.3434	0.0074
641.5304	0.035
641.7174	0.0022
641.9044	0.0167
642.0914	0.0085
642.2784	-0.0134
642.4653	0.0078
642.6523	0.0035
642.8392	-0.017
643.0261	0.0196
643.213	-0.0031
643.3999	0.0135
643.5867	0.0122
643.7735	0.0122
643.9604	0.0131
644.1472	0.0009
644.3339	-0.0016
644.5207	0.0061
644.7075	0.0072
644.8942	-0.0142
645.0809	-0.0024
645.2676	-0.0156
645.4543	0.0169
645.6409	-0.0005
645.8276	0.0193
646.0142	-0.0035
646.2008	-0
646.3874	-0.0118
646.574	-0.0049
646.7605	-0.0095
646.9471	-0.0012
647.1336	-0.0284
647.3201	0.0172
647.5066	-0.0053
647.6931	-0.0107
647.8795	0.0084
648.0659	0.0016
648.2524	0.0029
648.4388	0.0079
648.6252	0.0079
648.8115	0.0022
648.9979	0.0066
649.1842	-0.0012
649.3705	0.0187
649.5568	0.003
649.7431	-0.01
649.9294	-0.0091
650.1156	-0.0175
650.3018	0.009
650.488	-0.0055
650.6742	0.0264
650.8604	0.0002
651.0466	-0.0116
651.2327	-0.0114
651.4188	0.01
651.6049	0.0121
651.791	-0.0035
651.9771	0.0144
652.1632	0.0056
652.3492	0.0109
652.5352	0.0135
652.7212	0.0071
652.9072	-0.0071
653.0932	0.0075
653.2791	0.0032
653.465	0.0157
653.651	-0.0023
653.8369	0.0068
654.0227	-0.0007
654.2086	0.001
654.3944	0.0137
654.5803	0.0135
654.7661	-0.0018
654.9519	-0.0009
655.1377	-0
655.3234	-0
655.5092	-0
655.6949	-0
655.8806	-0
656.0663	-0
656.2519	-0
656.4376	-0
656.6232	-0
656.8088	-0
656.9945	-0
657.18	-0
657.3656	-0
657.5511	-0
657.7367	-0
657.9222	-0
658.1077	-0
658.2932	-0
658.4786	-0
658.6641	-0
658.8495	-0
659.0349	-0
659.2203	-0
659.4057	-0
659.591	0.1345
659.7764	0.0176
659.9617	0.0136
660.147	-0.0006
660.3323	0.0077
660.5176	0.0028
660.7028	-0.0153
660.888	0.0129
661.0733	0.0118
661.2585	-0.0069
661.4436	-0.0051
661.6288	0.025
661.8139	0.007
661.9991	-0.0061
662.1842	0.0002
662.3693	-0.0075
662.5544	0.0153
662.7394	-0.0021
662.9245	0.0142
663.1095	-0.0143
663.2945	-0.0115
663.4795	-0.0226
663.6644	0.0042
663.8494	0.0068
664.0343	0.0079
664.2193	0.0133
664.4042	-0.0067
664.589	0.0208
664.7739	0.0066
664.9587	-0.0146
665.1436	-0.0118
665.3284	0.0106
665.5132	-0.0212
665.698	-0.0017
665.8827	0.018
666.0675	-0.0038
666.2522	0.0151
666.4369	0.021
666.6216	-0.0051
666.8063	-0.0244
666.9909	0.015
667.1756	0.0059
667.3602	-0.0149
667.5448	-0.0036
667.7294	0.0064
667.9139	-0.0137
668.0985	-0.0131
668.283	-0.0011
668.4675	0.0254
668.652	-0.0186
668.8365	-0.0157
669.0209	0.0127
669.2054	0.0093
669.3898	0.0154
669.5742	-0.0045
669.7586	-0.0066
669.943	0.0055
670.1273	-0.0091
670.3117	0.0145
670.496	-0.0086
670.6803	-0.0099
670.8646	-0.016
671.0488	0.0213
671.2331	-0.0163
671.4173	0.0081
671.6015	0.002
671.7857	0.0001
671.9699	-0.0015
672.1541	-0.0053
672.3382	0.0081
672.5223	-0.0038
672.7064	-0.0094
672.8905	-0.0104
673.0746	0.0022
673.2587	0.0159
673.4427	0.0127
673.6267	0.0106
673.8107	0.0186
673.9947	0.0178
674.1787	-0.0088
674.3626	0.0114
674.5465	0.0076
674.7304	0.0006
674.9143	-0.0093
675.0982	0.0333
675.2821	-0.0162
675.4659	0.0147
675.6497	0.0163
675.8335	-0.0113
676.0173	-0.0107
676.2011	0.0182
676.3849	0.0341
676.5686	0.0178
676.7523	-0.005
676.936	0.0032
677.1197	-0.0125
677.3034	0.0321
677.487	0.0137
677.6706	0.016
677.8542	-0
678.0378	0.0083
678.2214	-0.0007
678.405	0.0044
678.5885	0.0067
678.772	0.0039
678.9555	0.0008
679.139	0.0111
679.3225	0.0068
679.5059	0.0017
679.6894	0.0073
679.8728	-0.0073
680.0562	0.0162
680.2395	-0.0024
680.4229	-0.0077
680.6062	0.0103
680.7896	-0.013
680.9729	0.0184
681.1562	-0.0103
681.3394	0.0084
681.5227	-0.0014
681.7059	0.0014
681.8891	0.0021
682.0723	0.0035
682.2555	-0.0041
682.4387	0.0084
682.6218	0.0141
682.805	0.008
682.9881	0.0339
683.1712	0.0119
683.3542	0.0231
683.5373	-0.0042
683.7203	0.0222
683.9034	-0.0103
684.0864	-0.0035
684.2694	0.0014
684.4523	0.0119
684.6353	0.0014
684.8182	0.0159
685.0011	0.0143
685.184	-0.0092
685.3669	0.0245
685.5498	0.0059
685.7326	0.0056
685.9154	-0.0067
686.0982	0.005
686.281	-0.0095
686.4638	0.0031
686.6465	0.006
686.8293	-0.0079
687.012	-0.0071
687.1947	0.0023
687.3774	0.0065
687.56	-0.0051
687.7427	0.0093
687.9253	-0.0225
688.1079	0.0059
688.2905	-0.0078
688.4731	0.0145
688.6556	0.0016
688.8382	-0.0177
689.0207	-0.0008
689.2032	0.0256
689.3857	-0.0094
689.5681	-0.012
689.7506	0.017
689.933	0.004
690.1154	0.0094
690.2978	0.007
690.4802	0.0165
690.6626	0.0075
690.8449	-0.0065
691.0272	0.0039
691.2095	-0.0123
691.3918	0.013
691.5741	0.0015
691.7563	0.0048
691.9386	0.0063
692.1208	0.0089
692.303	-0.0173
692.4852	0.0057
692.6673	0.0149
692.8495	-0.0092
693.0316	0.0053
693.2137	0.019
693.3958	-0.0011
693.5778	0.0155
693.7599	0.0177
693.9419	-0.0144
694.1239	0.0013
694.3059	0.0093
694.4879	0.0043
694.6699	-0.0109
694.8518	0.0133
695.0337	0.0182
695.2157	0.0218
695.3975	-0.0104
695.5794	0.0033
695.7613	-0.002
695.9431	-0.0246
696.1249	0.0165
696.3067	-0.0154
696.4885	0.0154
696.6703	0.0184
696.852	0.0036
697.0337	0.009
697.2154	-0.0113
697.3971	0.016
697.5788	0.0194
697.7605	0.0136
697.9421	0.0244
698.1237	0.0173
698.3053	-0.0061
698.4869	0.0121
698.6685	-0.0112
698.85	0.0206
699.0315	0.0009
699.213	0.0083
699.3945	-0.0084
699.576	0.0151
699.7575	0.0076
699.9389	0.0023
700.1203	0.017
700.3017	-0.0047
700.4831	0.0137
700.6645	0.0298
700.8458	-0.0001
701.0271	0.037
701.2084	0.0066
701.3897	0.0163
701.571	-0.0175
701.7523	0.0051
701.9335	-0.0047
702.1147	0.0122
702.2959	-0.0043
702.4771	0.0247
702.6583	-0.0069
702.8394	-0.0011
703.0205	0.041
703.2016	-0.0072
703.3827	-0.0141
703.5638	0.0249
703.7449	-0.002
703.9259	-0.0058
704.1069	-0.0037
704.2879	0.0142
704.4689	-0.0023
704.6499	0.0281
704.8308	-0.007
705.0117	0.0009
705.1927	0.0064
705.3735	0.0067
705.5544	0.0058
705.7353	0.0063
705.9161	-0.018
706.0969	0.0167
706.2777	0.0266
706.4585	0.0012
706.6393	0.0164
706.82	0.0008
707.0007	-0.002
707.1815	-0.0098
707.3621	0.0109
707.5428	0.0222
707.7235	0.0005
707.9041	0.0036
708.0847	0.0153
708.2653	-0.0006
708.4459	-0.0077
708.6265	0.0006
708.807	-0.0001
708.9875	-0.0073
709.168	-0.0043
709.3485	0.0174
709.529	0.0232
709.7095	-0.0205
709.8899	-0.0014
710.0703	0.0378
710.2507	-0.005
710.4311	-0.0082
710.6115	-0.0044
710.7918	0.0394
710.9721	0.0038
711.1524	-0.0167
711.3327	-0.014
711.513	-0.0195
711.6932	-0.0199
711.8735	0.022
712.0537	0.0069
712.2339	-0.0077
712.4141	-0.0086
712.5942	0.0003
712.7744	-0.0004
712.9545	0.0159
713.1346	0.026
713.3147	0.0065
713.4947	-0.0014
713.6748	0.009
713.8548	0.0181
714.0348	0.0185
714.2148	0.0095
714.3948	0.008
714.5748	0.0076
714.7547	0.0018
714.9346	0.0161
715.1145	-0.0057
715.2944	-0.0182
715.4743	0.0114
715.6541	-0.0148
715.834	0.0217
716.0138	0.0214
716.1936	-0.0147
716.3733	0.0131
716.5531	-0.0038
716.7328	0.0227
716.9126	0.0147
717.0923	-0.0175
717.2719	0.0059
717.4516	0.0011
717.6312	-0.035
717.8109	0.0253
717.9905	0.0027
718.1701	0.016
718.3496	-0.0024
718.5292	-0.0064
718.7087	0.0048
718.8882	0.0221
719.0677	-0.0052
719.2472	-0.0004
719.4267	-0.0008
719.6061	-0.0005
719.7856	0.0243
719.965	-0.0072
720.1443	-0.0086
720.3237	-0.0276
720.5031	0.0226
720.6824	0.013
720.8617	-0.006
721.041	-0.0004
721.2203	-0.0286
721.3995	-0.0065
721.5788	-0.0024
721.758	-0.0079
721.9372	0.0007
722.1164	-0.0102
722.2956	-0.0164
722.4747	0.0061
722.6538	-0.004
722.8329	-0.0039
723.012	0.0016
723.1911	0.008
723.3702	0.0051
723.5492	0.0174
723.7282	-0.0018
723.9072	-0.0001
724.0862	0.0163
724.2652	0.0278
724.4441	0.0115
724.623	0.0026
724.8019	-0.0206
724.9808	0.0047
725.1597	-0.0028
725.3385	-0.0041
725.5174	0.0047
725.6962	0.0051
725.875	0.01
726.0538	0.0087
726.2325	0.0266
726.4112	-0.0086
726.59	0.0093
726.7687	-0.0082
726.9474	0.0279
727.126	0.0095
727.3047	-0.0174
727.4833	0.0125
727.6619	-0.0305
727.8405	-0.0021
728.0191	0.0172
728.1976	0.0172
728.3762	0.0186
728.5547	-0.0227
728.7332	-0.0031
728.9116	0.0071
729.0901	-0.0013
729.2686	0.0088
729.447	-0.0029
729.6254	0.0172
729.8038	-0.0097
729.9821	-0.0281
730.1605	0.0138
730.3388	-0.0037
730.5171	0.0094
730.6954	-0.0062
730.8737	-0.0078
731.0519	-0.013
731.2302	0.0299
731.4084	-0.0229
731.5866	0.0046
731.7648	0.0127
731.9429	-0.0044
732.1211	0.0002
732.2992	0.004
732.4773	-0.0124
732.6554	-0.0112
732.8335	0.0169
733.0115	0.0093
733.1896	-0.0116
733.3676	0.0063
733.5456	0.0075
733.7235	-0.0101
733.9015	-0.0035
734.0794	-0.0143
734.2574	-0.0157
734.4353	0.0022
734.6131	0.0095
734.791	0.0067
734.9689	-0.023
735.1467	-0.0072
735.3245	0.0089
735.5023	-0.0014
735.68	-0.01
735.8578	0.015
736.0355	-0.0085
736.2132	-0.0071
736.3909	0.0251
736.5686	-0.0139
736.7463	-0.0111
736.9239	0.025
737.1015	0.0014
737.2791	0.0145
737.4567	0.0214
737.6343	-0.0047
737.8118	0.0121
737.9894	0.0045
738.1669	-0.0024
738.3444	0.0193
738.5218	-0.0104
738.6993	0.0217
738.8767	0.0073
739.0541	-0.0188
739.2315	-0
739.4089	0.0019
739.5863	-0.0235
739.7636	0.0094
739.9409	-0.0044
740.1182	0.0026
740.2955	0.0054
740.4728	-0.0402
740.65	-0.0359
740.8272	0.0449
741.0044	0.002
741.1816	0.0256
741.3588	-0.0202
741.5359	-0.0105
741.7131	-0.0062
741.8902	-0.0215
742.0673	-0.0276
742.2444	0.0384
742.4214	-0.0016
742.5985	-0.0184
742.7755	-0.0095
742.9525	-0.0058
743.1295	-0.0198
743.3064	-0.0006
743.4834	-0.004
743.6603	0.0426
743.8372	-0.035
744.0141	0.0211
744.191	-0.0019
744.3678	-0.0393
744.5446	-0.0046
744.7215	-0.0097
744.8982	-0.0001
745.075	0.0563
745.2518	0.0156
745.4285	0.0077
745.6052	-0.0514
745.7819	0.0056
745.9586	0.0077
746.1353	-0.0229
746.3119	0.0241
746.4885	0.0211
746.6651	-0.0128
746.8417	0.0046
747.0183	0.0144
747.1948	0.0087
747.3714	0.0004
747.5479	-0.0096
747.7244	-0.0264
747.9008	0.0141
748.0773	0.0301
748.2537	0.0231
748.4301	0.0182
748.6065	-0.005
748.7829	-0.0334
748.9593	0.0115
749.1356	-0.0192
749.3119	0.0251
749.4882	0.0294
749.6645	0.0112
749.8408	-0.0095
750.017	0.0161
750.1933	-0.0064
750.3695	0.0068
750.5457	-0.0031
750.7218	-0.002
750.898	-0.0001
751.0741	-0.0048
751.2502	0.0009
751.4263	-0.0038
751.6024	0.0229
751.7784	-0.008
751.9545	-0.0063
752.1305	-0.0142
752.3065	0.0162
752.4825	-0.0036
752.6584	-0.0028
752.8344	-0.0181
753.0103	0.001
753.1862	0.0079
753.3621	0.0146
753.5379	-0.0031
753.7138	0.0116
753.8896	0.0237
754.0654	-0.0041
754.2412	0.0055
754.417	0.0149
754.5927	0.004
754.7685	0.0247
754.9442	-0.0004
755.1199	0.0076
755.2956	-0.0033
755.4712	0.0123
755.6469	-0.0094
755.8225	0.0044
755.9981	0.013
756.1736	0.0132
756.3492	-0.0075
756.5248	0.0251
756.7003	0.0062
756.8758	0.0019
757.0513	0.0042
757.2267	0.0072
757.4022	0.0002
757.5776	0.0138
757.753	0.015
757.9284	-0.0032
758.1038	0.0033
758.2791	0.0008
758.4545	-0.0137
758.6298	-0.0035
758.8051	0.0035
758.9803	0.0162
759.1556	-0.0117
759.3308	-0.0003
759.506	0.0035
759.6812	0.0051
759.8564	0.0076
760.0316	-0.0019
760.2067	0.0156
760.3819	0.0133
760.557	0.0163
760.732	0.0074
760.9071	0.027
761.0821	-0.0151
761.2572	0.0276
761.4322	0.0268
761.6072	0.0212
761.7821	-0.0188
761.9571	0.0093
762.132	-0.005
762.3069	0.0122
762.4818	0.0072
762.6567	-0.0059
762.8316	0.0176
763.0064	0.0204
763.1812	-0.0022
763.356	-0.0036
763.5308	0.0282
763.7055	-0.0062
763.8803	-0.0028
764.055	-0.0048
764.2297	-0.008
764.4044	0.0057
764.579	-0.0032
764.7537	-0.0005
764.9283	0.0049
765.1029	0.0126
765.2775	0.0167
765.4521	0.0108
765.6266	-0.0199
765.8011	0.0197
765.9756	0.0142
766.1501	-0.0294
766.3246	0.0036
766.4991	0.0136
766.6735	0.0245
766.8479	0.014
767.0223	0.0138
767.1967	-0.0151
767.371	0.0041
767.5454	0.007
767.7197	0.0295
767.894	-0.0021
768.0683	0.0039
768.2425	0.0067
768.4168	0.0006
768.591	-0.0011
768.7652	-0.0306
768.9394	-0.0247
769.1135	-0.0146
769.2877	0.0347
769.4618	0.0246
769.6359	-0.0168
769.81	0.0261
769.984	0.0106
770.1581	0.0007
770.3321	0.0254
770.5061	0.0115
770.6801	0.0016
770.8541	0.0147
771.028	0.0367
771.202	0.0189
771.3759	0.0121
771.5498	0.014
771.7236	-0.0193
771.8975	0.0506
772.0713	0.0437
772.2451	0.0168
772.4189	0.0093
772.5927	-0.0221
772.7665	-0.0036
772.9402	0.0203
773.1139	-0.0304
773.2876	-0.0226
773.4613	0.009
773.635	0.0276
773.8086	0.0326
773.9822	0.0246
774.1558	0.0193
774.3294	0.0047
774.503	0.0139
774.6765	0.042
774.8501	-0.0082
775.0236	0.0207
775.1971	-0.0253
775.3705	0.023
775.544	-0.0206
775.7174	0.0157
775.8908	0.0131
776.0642	0.0403
776.2376	0.0024
776.4109	0.0173
776.5843	-0.0123
776.7576	0.0576
776.9309	0.0239
777.1041	-0.0456
777.2774	-0.0075
777.4506	-0.0386
777.6238	-0.0028
777.797	0.0252
777.9702	-0.006
778.1434	-0.005
778.3165	-0.0007
778.4896	-0.0443
778.6627	0.0041
778.8358	0.0361
779.0089	-0.0025
779.1819	0.0086
779.3549	-0.0081
779.5279	-0.0116
779.7009	0.0121
779.8739	0.0601
780.0468	0.015
780.2197	0.0217
780.3926	-0.0304
780.5655	0.0034
780.7384	-0.0098
780.9112	0.0235
781.0841	-0.0047
781.2569	0.0081
781.4297	-0.0019
781.6024	0.0404
781.7752	0.0388
781.9479	0.0332
782.1206	0.0155
782.2933	-0.0302
782.466	0.02
782.6386	-0.0024
782.8113	-0.0249
782.9839	-0.0123
783.1565	0.006
783.329	-0.0199
783.5016	0.0091
783.6741	0.0017
783.8466	0.0519
784.0191	0.0054
784.1916	0.0022
784.3641	-0.0416
784.5365	0.0122
784.7089	-0.0197
784.8813	0.0571
785.0537	0.0326
785.2261	0.0058
785.3984	-0.0056
785.5707	-0.0287
785.743	0.0468
785.9153	-0.0549
786.0876	-0.0442
786.2598	-0.0075
786.432	-0.006
786.6042	0.0577
786.7764	-0.0135
786.9486	-0.036
787.1207	0.0061
787.2928	0.0366
787.4649	-0.0046
787.637	-0.0151
787.8091	0.0209
787.9811	0.0162
788.1532	0.0028
788.3252	-0.0189
788.4972	0.0156
788.6691	-0.0116
788.8411	-0.0007
789.013	0.0304
789.1849	0.0027
789.3568	0.0054
789.5287	0.0549
789.7005	-0.0276
789.8723	-0.0513
790.0442	-0.0561
790.2159	-0.0104
790.3877	0.0588
790.5595	0.0189
790.7312	-0.0537
790.9029	-0.0153
791.0746	0.0183
791.2463	-0.0863
791.4179	0.0073
791.5896	0.0038
791.7612	0.013
791.9328	-0.0027
792.1044	-0.0299
792.2759	-0.0404
792.4474	-0.0444
792.619	0.0148
792.7905	0.0378
792.9619	0.0178
793.1334	0.0048
793.3048	0.055
793.4762	-0.006
793.6476	-0.0247
793.819	-0.0389
793.9904	0.0153
794.1617	-0.05
794.333	-0.0221
794.5043	0.0139
794.6756	-0.0047
794.8469	-0.0007
795.0181	-0.0174
795.1893	0.0043
795.3605	0.0129
795.5317	-0.0064
795.7029	0.0083
795.874	-0.0039
796.0452	0.0336
796.2163	0.0614
796.3873	0.0337
796.5584	0.0383
796.7294	0.0569
796.9005	0.0192
797.0715	-0.0922
797.2425	0.0752
797.4134	0.102
797.5844	-0.0051
797.7553	-0.0901
797.9262	0.0575
798.0971	0.0906
798.2679	0.0096
798.4388	0.0089
798.6096	-0.033
798.7804	0.0035
798.9512	0.0733
799.122	-0.0764
799.2927	0.0872
799.4635	-0.0957
799.6342	-0.0733
799.8049	0.0162
799.9755	-0.0493
800.1462	0.0308
800.3168	0.0648
800.4874	-0.0564
800.658	0.0811
800.8286	-0.0287
800.9991	0.0863
801.1696	-0.0089
801.3402	-0.0495
801.5106	0.0018
801.6811	0.0051
801.8516	0.0689
802.022	-0.0259
802.1924	-0.0532
802.3628	-0.0288
802.5332	0.0887
802.7035	0.0208
802.8739	0.0972
803.0442	-0.0739
803.2145	0.0611
803.3847	0.022
803.555	-0.0067
803.7252	-0.0854
803.8954	0.0147
804.0656	-0.0033
804.2358	0.0126
804.4059	0.0488
804.5761	-0.0041
804.7462	0.0301
804.9163	-0.0393
805.0864	-0.0618
805.2564	-0.0858
805.4264	-0.0471
805.5965	0.0426
805.7665	0.009
805.9364	-0.0317
806.1064	0.044
806.2763	0.0637
806.4462	0.0275
806.6161	0.0043
806.786	-0.0235
806.9559	0.0704
807.1257	-0.02
807.2955	-0.0481
807.4653	0.0205
807.6351	0.0097
807.8048	0.008
807.9746	0.0162
808.1443	-0.0315
808.314	0.03
808.4837	0.0035
808.6533	-0.0111
808.8229	0.021
808.9926	0.0136
809.1622	-0.0152
809.3317	-0.0815
809.5013	0.028
809.6708	0.0031
809.8403	0.1053
810.0098	-0.0003
810.1793	0.0601
810.3488	-0.0679
810.5182	0.0959
810.6876	-0.0247
810.857	0.0413
811.0264	-0.1069
811.1958	0.1619
811.3651	-0.0165
811.5344	0.0753
811.7037	-0.075
811.873	0.0474
812.0422	-0.0063
812.2115	0.036
812.3807	-0.2042
812.5499	-0.0608
812.7191	-0.0766
812.8882	0.1257
813.0574	-0.0853
813.2265	-0.0565
813.3956	0.0298
813.5646	-0.0414
813.7337	-0.0347
813.9027	-0.0243
814.0718	0.0426
814.2407	0.0177
814.4097	0.0604
814.5787	0.0714
814.7476	0.0012
814.9165	-0.0107
815.0854	-0.0041
815.2543	-0.0552
815.4232	0.1145
815.592	0.0855
815.7608	-0.2057
815.9296	-0.0032
816.0984	0.0284
816.2671	-0.1921
816.4359	0.0649
816.6046	0.0245
816.7733	-0.0399
816.942	-0.0084
817.1106	-0.0313
817.2793	-0.0793
817.4479	0.052
817.6165	-0.0204
817.785	0.06
817.9536	-0.0528
818.1221	0.081
818.2906	-0.1249
818.4591	0.0154
818.6276	-0.0172
818.7961	-0.0867
818.9645	0.0508
819.1329	0.0671
819.3013	-0.0653
819.4697	-0.111
819.638	-0.014
819.8064	-0.0134
819.9747	0.0335
820.143	-0.0865
820.3113	0.0562
820.4795	0.019
820.6477	0.0431
820.816	0.1455
820.9842	0.0346
821.1523	0.0511
821.3205	0.142
821.4886	0.0164
821.6567	-0.0372
821.8248	0.0776
821.9929	-0.1574
822.1609	-0.0072
822.329	-0.0346
822.497	0.0462
822.665	-0.1583
822.833	-0.0856
823.0009	0.0101
823.1688	0.0678
823.3367	-0.2742
823.5046	0.0735
823.6725	0.0552
823.8404	0.0289
824.0082	-0.0776
824.176	-0.1516
824.3438	0.117
824.5116	0.0225
824.6793	0.0735
824.847	0.1504
825.0147	-0.0324
825.1824	0.1933
825.3501	-0.0909
825.5177	-0.0176
825.6854	-0.1298
825.853	-0.0799
826.0206	0.0489
826.1881	-0.0919
826.3557	0.0363
826.5232	0.1239
826.6907	0.0547
826.8582	-0.1096
827.0257	0.1792
827.1931	0.0193
827.3605	-0.023
827.528	-0.0111
827.6953	-0.3223
827.8627	0.0975
828.03	0.0527
828.1974	-0.0328
828.3647	0.0451
828.532	-0.0373
828.6992	-0.0116
828.8665	-0.243
829.0337	0.0684
829.2009	-0.157
829.3681	0.0499
829.5352	-0.2405
829.7024	-0.0539
829.8695	0.0267
830.0366	0.3132
830.2037	0.0693
830.3707	0.0348
830.5378	-0.0625
830.7048	-0.1419
830.8718	-0.0176
831.0388	-0.0216
831.2057	0.4252
831.3727	0.2218
831.5396	-0.126
831.7065	-1.0164
831.8734	-0.0537
832.0402	0.2455
832.2071	-0.587
832.3739	-0.3829
832.5407	-0
832.7075	-0.2079
832.8742	-0.0536
833.041	0.3164
833.2077	-0.0665
833.3744	0.0332
833.541	0.023
833.7077	0.0181
833.8743	0.0342
834.0409	0.0168
834.2075	0.0573
834.3741	-0.2307
834.5407	0.0392
834.7072	0.0827
834.8737	0.0506
835.0402	0.252
835.2067	-0.0205
835.3731	-0.032
835.5395	-0.0292
835.706	-0.1323
835.8723	-0.051
836.0387	-0.0856
836.2051	-0.194
836.3714	-0.0402
836.5377	-0.1859
836.704	0.2341
836.8703	-0.1678
837.0365	-0.6734
837.2027	0.5683
837.3689	-0.0109
837.5351	-0.0214
837.7013	-0.3552
837.8674	0.46
838.0335	-0.1414
838.1997	-0.1712
838.3657	-0
838.5318	0.2105
838.6978	-0
838.8639	-0.5618
839.0299	-0.0874
839.1958	0.018
839.3618	-0.0403
839.5277	-0.0256
839.6937	-0.2828
839.8596	-0.3773
840.0254	-0.092
840.1913	-0.23
840.3571	-0.1719
840.523	-1.0086
840.6888	-0.0794
840.8545	-0.6406
841.0203	0.1812
841.186	-0.1901
841.3517	-0.0197
841.5174	0.0433
841.6831	0.4664
841.8488	-0.0638
842.0144	0.3536
842.18	0.2443
842.3456	-0.8435
842.5112	-0
842.6767	-0.0421
842.8422	-0.3185
843.0077	0.0494
843.1732	-0.3833
843.3387	0.3157
843.5042	-0
843.6696	-0.3997
843.835	0.1453
844.0004	0.2357
844.1657	-0.2398
844.3311	0.9496
844.4964	-0.5681
844.6617	0.1442
844.827	-0
844.9923	0.3529
845.1575	-0.3302
845.3227	0.0171
845.4879	-0.3556
845.6531	0.2667
845.8183	0.1896
845.9834	-0
846.1485	0.0259
846.3136	-0.1304
846.4787	-0
846.6438	0.1022
846.8088	-0
846.9738	-0
847.1388	-0.0548
847.3038	0.2012
847.4687	-0
847.6337	-0.0454
847.7986	-0.1139
847.9635	-0.2475
848.1284	0.316
848.2932	1.0683
848.458	-0
848.6228	-0.1589
848.7876	-0
848.9524	-0
849.1172	-1.8442
849.2819	-0
849.4466	0.367
849.6113	0.1758
849.7759	-0
849.9406	-0.3088
850.1052	-0.3745
850.2698	0.1528
850.4344	-0.7408
850.599	-0.2389
850.7635	0.0532
850.928	-0.0179
851.0925	0.2187
851.257	-0.0971
851.4215	-0
851.5859	-0.1213
851.7503	-0
851.9147	-0.3096
852.0791	-0.065
852.2434	0.093
852.4078	-0
852.5721	1.4344
852.7364	0.3949
852.9007	-0.3207
853.0649	-0
853.2291	0.5982
853.3934	-0
853.5575	-0.0948
853.7217	0.1358
853.8859	-0
854.05	-0.5455
854.2141	0.3319
854.3782	-0.3965
854.5423	-0.3202
854.7063	0.0174
854.8703	-0.1468
855.0343	-0.1457
855.1983	-0.1468
855.3623	-0.0565
855.5262	-0
855.6901	0.4612
855.854	0.2674
856.0179	-0.1003
856.1818	0.8895
856.3456	0.323
856.5094	-0.7361
856.6732	-0
856.837	-1.3642
857.0008	0.4943
857.1645	-0.4135
857.3282	-0.0334
857.4919	0.0146
857.6556	-0.2566
857.8192	-0.0018
857.9828	-0.1598
858.1465	0.1153
858.31	-0
858.4736	0.2218
858.6372	-0.4693
858.8007	-0
858.9642	0.2086
859.1277	0.8804
859.2911	-0.0314
859.4546	-0
859.618	-0.0822
859.7814	-0.2204
859.9448	-0
860.1081	-0.0556
860.2715	-0.6734
860.4348	0.0383
860.5981	1.9001
860.7614	-0
860.9246	0.3021
861.0879	0.0847
861.2511	-0
861.4143	-0
861.5774	-0.1976
861.7406	0.1653
861.9037	-0.5507
862.0668	-0.5628
862.2299	0.4671
862.393	-0
862.556	0.4898
862.7191	-0.2952
862.8821	0.1646
863.0451	-0.0019
863.208	-0.2938
863.371	-0.6433
863.5339	0.0497
863.6968	0.9317
863.8597	-0
864.0225	-0.0035
864.1854	0.1898
864.3482	-0.4771
864.511	0.218
864.6737	-0
864.8365	0.0445
864.9992	0.4842
865.1619	-0.2181
865.3246	-1.8312
865.4873	-0.5475
865.65	-0
865.8126	-0
865.9752	0.4016
866.1378	-0.0698
866.3004	-0.4969
866.4629	-0
866.6254	-0.5014
866.7879	-0.3563
866.9504	0.2218
867.1129	-0.3514
867.2753	0.2805
867.4377	0.0288
867.6001	-0
867.7625	-0.3096
867.9249	0.6771
868.0872	-0.1322
868.2495	0.6085
868.4118	-0
868.5741	-0.2904
868.7363	-0
868.8986	-0.776
869.0608	-0.0809
869.223	0.89
869.3851	-0
869.5473	0.063
869.7094	-0
869.8715	-0.3877
870.0336	-0.0273
870.1957	-0
870.3577	0.3693
870.5197	0.1928
870.6817	-0.9355
870.8437	-0.1503
871.0057	0.2908
871.1676	0.1038
871.3295	-0
871.4914	-0
871.6533	0.2112
871.8151	0.4228
871.977	-0.598
872.1388	0.8526
872.3006	-0.6306
872.4623	-0.6402
872.6241	-0
872.7858	0.0747
872.9475	-0
873.1092	0.2815
873.2709	2.0203
873.4325	-1.775
873.5941	-0
873.7557	-0
873.9173	1.228
874.0789	0.1576
874.2404	-0
874.4019	0.0064
874.5634	-0
874.7249	0.897
874.8863	0.5208
875.0478	0.0395
875.2092	0.6048
875.3706	-0
875.5319	0.0478
875.6933	0.0422
875.8546	-0
876.0159	0.1758
876.1772	-0
876.3385	0.4457
876.4997	-0
876.6609	1.1296
876.8221	-0
876.9833	-0.1004
877.1445	0.2324
877.3056	-0.4171
877.4667	-0
877.6278	-0
877.7889	1.9897
877.9499	0.0857
878.111	-0.5977
878.272	-0.5296
878.433	0.3836
878.5939	0.3592
878.7549	1.0488
878.9158	-0.0884
879.0767	-0
879.2376	0.3401
879.3984	0.4722
879.5593	0.1664
879.7201	-1.1234
879.8809	-0.2682
880.0417	-0.2161
880.2024	-0
880.3632	-0.4097
880.5239	-0.1703
880.6846	-0
880.8452	0.0729
881.0059	-1.1288
881.1665	0.0106
881.3271	0.978
881.4877	0.557
881.6483	-1.1332
881.8088	-0
881.9693	-1.4535
882.1298	-1.4535
882.2903	-1.4535
