Data from D4ACN5uM440nmA_Absorbance_13-50-25-747.txt Node
Date: Fri Feb 21 13:50:25 GMT 2025
User: LASERRRRR
Spectrometer: FLMT03099
Trigger mode: 0
Integration Time (sec): 1.500000E-2
Scans to average: 1
Electric dark correction enabled: true
Nonlinearity correction enabled: false
Boxcar width: 0
XAxis mode: Wavelengths
Number of Pixels in Spectrum: 3648
>>>>>Begin Spectral Data<<<<<
179.3399	-0.4492
179.5586	-0.4492
179.7771	-0.4492
179.9957	0.1365
180.2143	-1.2884
180.4329	-0
180.6514	0.0442
180.8699	-0.241
181.0885	-0
181.307	0.2768
181.5255	-0.039
181.744	-0
181.9625	-0.0464
182.181	-0
182.3994	-0.0665
182.6179	-0.1618
182.8363	0.9661
183.0547	-0.1977
183.2732	0.1725
183.4916	0.2146
183.71	0.1763
183.9284	-0.011
184.1467	0.0979
184.3651	0.0011
184.5835	0.1496
184.8018	0.2412
185.0201	0.0554
185.2385	0.3389
185.4568	0.2155
185.6751	0.0893
185.8934	0.1113
186.1117	-0.1008
186.3299	0.1405
186.5482	0.1671
186.7664	0.1269
186.9847	-0.1128
187.2029	0.2164
187.4211	0.0082
187.6393	0.3407
187.8575	0.1255
188.0757	0.5817
188.2939	0.0167
188.512	0.1332
188.7302	0.1514
188.9483	0.1991
189.1665	0.5453
189.3846	0.0778
189.6027	0.0706
189.8208	0.2732
190.0389	0.0476
190.257	0.004
190.475	-0.0179
190.6931	0.0932
190.9111	0.036
191.1292	0.0849
191.3472	0.0863
191.5652	0.3393
191.7832	0.2436
192.0012	0.2016
192.2192	0.1888
192.4371	0.1959
192.6551	0.1762
192.873	0.1666
193.091	0.1507
193.3089	0.1737
193.5268	0.3274
193.7447	0.1531
193.9626	0.2224
194.1805	0.2591
194.3984	0.1737
194.6162	0.2648
194.8341	0.3794
195.0519	0.2208
195.2697	0.1983
195.4875	0.2712
195.7054	0.2374
195.9231	0.2149
196.1409	0.338
196.3587	0.3316
196.5765	0.3477
196.7942	0.3379
197.012	0.3311
197.2297	0.2879
197.4474	0.3896
197.6651	0.2927
197.8828	0.3079
198.1005	0.4012
198.3182	0.4244
198.5358	0.3305
198.7535	0.3504
198.9711	0.3822
199.1888	0.3403
199.4064	0.4366
199.624	0.3655
199.8416	0.3496
200.0592	0.4181
200.2767	0.4005
200.4943	0.3984
200.7119	0.4324
200.9294	0.365
201.1469	0.3863
201.3645	0.4314
201.582	0.3747
201.7995	0.4071
202.017	0.4071
202.2344	0.4001
202.4519	0.3886
202.6694	0.3598
202.8868	0.3645
203.1042	0.3974
203.3217	0.3462
203.5391	0.3789
203.7565	0.362
203.9739	0.3414
204.1913	0.3542
204.4086	0.3332
204.626	0.3541
204.8433	0.3677
205.0607	0.3808
205.278	0.3572
205.4953	0.3607
205.7126	0.3328
205.9299	0.307
206.1472	0.3225
206.3644	0.3256
206.5817	0.3236
206.7989	0.3282
207.0162	0.3181
207.2334	0.3161
207.4506	0.3236
207.6678	0.3128
207.885	0.3035
208.1022	0.2811
208.3194	0.2932
208.5365	0.3196
208.7537	0.2951
208.9708	0.3122
209.1879	0.2923
209.405	0.2692
209.6222	0.2703
209.8392	0.299
210.0563	0.2872
210.2734	0.2721
210.4905	0.2619
210.7075	0.2822
210.9245	0.281
211.1416	0.2635
211.3586	0.2583
211.5756	0.242
211.7926	0.2658
212.0096	0.2787
212.2265	0.2583
212.4435	0.2377
212.6604	0.2408
212.8774	0.2266
213.0943	0.2434
213.3112	0.2445
213.5281	0.2378
213.745	0.2252
213.9619	0.2452
214.1788	0.2438
214.3956	0.2356
214.6125	0.2548
214.8293	0.2508
215.0461	0.2635
215.2629	0.2788
215.4798	0.2612
215.6965	0.2431
215.9133	0.2368
216.1301	0.2411
216.3469	0.2361
216.5636	0.2482
216.7803	0.2244
216.9971	0.2433
217.2138	0.2537
217.4305	0.2418
217.6472	0.2383
217.8639	0.2571
218.0805	0.2429
218.2972	0.235
218.5138	0.2553
218.7305	0.2581
218.9471	0.2495
219.1637	0.2756
219.3803	0.2526
219.5969	0.255
219.8135	0.259
220.0301	0.2598
220.2466	0.2594
220.4632	0.2493
220.6797	0.247
220.8962	0.2572
221.1127	0.2669
221.3292	0.2625
221.5457	0.2697
221.7622	0.273
221.9787	0.2862
222.1951	0.2683
222.4116	0.2824
222.628	0.2802
222.8444	0.2723
223.0608	0.2638
223.2772	0.2744
223.4936	0.2768
223.71	0.288
223.9264	0.2921
224.1427	0.2881
224.3591	0.2904
224.5754	0.2928
224.7917	0.289
225.008	0.305
225.2243	0.3082
225.4406	0.3
225.6569	0.3002
225.8732	0.2949
226.0894	0.3074
226.3057	0.3046
226.5219	0.3091
226.7381	0.3249
226.9543	0.3168
227.1705	0.3176
227.3867	0.3222
227.6029	0.3211
227.8191	0.335
228.0352	0.3401
228.2513	0.3504
228.4675	0.3488
228.6836	0.3377
228.8997	0.3407
229.1158	0.3529
229.3319	0.3537
229.548	0.3509
229.764	0.3634
229.9801	0.3732
230.1961	0.3726
230.4121	0.3692
230.6282	0.3888
230.8442	0.3818
231.0602	0.3832
231.2761	0.387
231.4921	0.3749
231.7081	0.4
231.924	0.4024
232.14	0.3967
232.3559	0.4159
232.5718	0.4097
232.7877	0.4093
233.0036	0.4164
233.2195	0.4123
233.4353	0.4267
233.6512	0.4158
233.867	0.4219
234.0829	0.4195
234.2987	0.4171
234.5145	0.434
234.7303	0.4254
234.9461	0.4401
235.1619	0.4407
235.3776	0.4315
235.5934	0.4396
235.8091	0.4381
236.0249	0.456
236.2406	0.4354
236.4563	0.4424
236.672	0.4391
236.8877	0.4468
237.1034	0.4513
237.319	0.451
237.5347	0.4439
237.7503	0.4486
237.966	0.4613
238.1816	0.4604
238.3972	0.4629
238.6128	0.4593
238.8284	0.453
239.0439	0.4658
239.2595	0.4575
239.475	0.4663
239.6906	0.4599
239.9061	0.4641
240.1216	0.4653
240.3371	0.4578
240.5526	0.4419
240.7681	0.4717
240.9836	0.4599
241.199	0.4517
241.4145	0.4542
241.6299	0.4457
241.8453	0.4405
242.0607	0.4351
242.2761	0.4315
242.4915	0.4211
242.7069	0.4176
242.9223	0.4191
243.1376	0.4093
243.353	0.4027
243.5683	0.4001
243.7836	0.3851
243.9989	0.379
244.2142	0.3746
244.4295	0.3667
244.6448	0.3693
244.86	0.3594
245.0753	0.346
245.2905	0.3485
245.5057	0.3423
245.721	0.3366
245.9362	0.3269
246.1514	0.3255
246.3665	0.3111
246.5817	0.3003
246.7969	0.3004
247.012	0.2877
247.2271	0.3002
247.4423	0.2809
247.6574	0.2946
247.8725	0.2745
248.0876	0.2709
248.3026	0.2711
248.5177	0.2585
248.7328	0.2561
248.9478	0.2509
249.1628	0.2479
249.3779	0.2368
249.5929	0.2409
249.8079	0.2309
250.0228	0.2354
250.2378	0.231
250.4528	0.2256
250.6677	0.2191
250.8827	0.2133
251.0976	0.2144
251.3125	0.2177
251.5274	0.2069
251.7423	0.2024
251.9572	0.2108
252.172	0.2063
252.3869	0.2071
252.6017	0.2071
252.8166	0.2041
253.0314	0.1993
253.2462	0.1958
253.461	0.1946
253.6758	0.1957
253.8906	0.1933
254.1053	0.1967
254.3201	0.1907
254.5348	0.1847
254.7496	0.186
254.9643	0.1902
255.179	0.1874
255.3937	0.1884
255.6083	0.1898
255.823	0.1856
256.0377	0.1847
256.2523	0.1823
256.467	0.1939
256.6816	0.1831
256.8962	0.181
257.1108	0.1859
257.3254	0.1841
257.54	0.1798
257.7545	0.1824
257.9691	0.1809
258.1836	0.1756
258.3981	0.1818
258.6127	0.1716
258.8272	0.1835
259.0417	0.1752
259.2561	0.1741
259.4706	0.1761
259.6851	0.1725
259.8995	0.1721
260.114	0.1802
260.3284	0.1735
260.5428	0.1747
260.7572	0.1737
260.9716	0.1783
261.186	0.1807
261.4003	0.1744
261.6147	0.1813
261.829	0.1795
262.0433	0.1816
262.2577	0.1787
262.472	0.1784
262.6863	0.1814
262.9005	0.1735
263.1148	0.1782
263.3291	0.1777
263.5433	0.1841
263.7576	0.1814
263.9718	0.1721
264.186	0.1808
264.4002	0.1808
264.6144	0.1817
264.8286	0.1881
265.0427	0.185
265.2569	0.1835
265.471	0.1823
265.6851	0.1835
265.8993	0.1779
266.1134	0.1797
266.3275	0.1806
266.5415	0.1843
266.7556	0.1865
266.9697	0.1865
267.1837	0.186
267.3978	0.1787
267.6118	0.1809
267.8258	0.1859
268.0398	0.1846
268.2538	0.1845
268.4677	0.1741
268.6817	0.1794
268.8957	0.1783
269.1096	0.1753
269.3235	0.178
269.5374	0.1793
269.7514	0.1836
269.9652	0.1782
270.1791	0.1719
270.393	0.1767
270.6068	0.1734
270.8207	0.1742
271.0345	0.1745
271.2483	0.1701
271.4622	0.174
271.676	0.1677
271.8897	0.1734
272.1035	0.1813
272.3173	0.1779
272.531	0.1783
272.7448	0.1727
272.9585	0.1692
273.1722	0.1754
273.3859	0.1796
273.5996	0.1737
273.8133	0.1791
274.0269	0.1733
274.2406	0.1758
274.4542	0.1787
274.6679	0.1849
274.8815	0.1828
275.0951	0.1834
275.3087	0.1805
275.5223	0.1839
275.7358	0.1863
275.9494	0.1844
276.1629	0.1861
276.3765	0.1812
276.59	0.1769
276.8035	0.1758
277.017	0.1856
277.2305	0.1851
277.444	0.1839
277.6574	0.1862
277.8709	0.1919
278.0843	0.1831
278.2978	0.1913
278.5112	0.1875
278.7246	0.1839
278.938	0.1862
279.1513	0.1845
279.3647	0.188
279.5781	0.1835
279.7914	0.1812
280.0047	0.1881
280.2181	0.1869
280.4314	0.184
280.6447	0.1905
280.8579	0.1808
281.0712	0.1818
281.2845	0.1846
281.4977	0.1837
281.711	0.1852
281.9242	0.1824
282.1374	0.1866
282.3506	0.1849
282.5638	0.1804
282.7769	0.1818
282.9901	0.1888
283.2033	0.1805
283.4164	0.1817
283.6295	0.1821
283.8426	0.182
284.0557	0.1845
284.2688	0.1812
284.4819	0.1802
284.695	0.1874
284.908	0.1844
285.1211	0.1825
285.3341	0.1809
285.5471	0.1887
285.7601	0.1832
285.9731	0.1887
286.1861	0.1843
286.3991	0.1892
286.612	0.1841
286.825	0.1877
287.0379	0.1844
287.2508	0.1843
287.4637	0.1908
287.6766	0.1884
287.8895	0.1919
288.1024	0.1916
288.3152	0.1877
288.5281	0.1841
288.7409	0.1914
288.9538	0.1901
289.1666	0.1893
289.3794	0.1825
289.5922	0.1866
289.8049	0.1863
290.0177	0.1884
290.2304	0.1885
290.4432	0.1865
290.6559	0.189
290.8686	0.1916
291.0813	0.1943
291.294	0.187
291.5067	0.1823
291.7194	0.187
291.932	0.1868
292.1447	0.1879
292.3573	0.1846
292.5699	0.1932
292.7825	0.1844
292.9951	0.1848
293.2077	0.184
293.4203	0.1867
293.6328	0.1846
293.8454	0.1887
294.0579	0.1893
294.2704	0.1944
294.4829	0.1901
294.6954	0.1944
294.9079	0.1865
295.1204	0.1867
295.3328	0.198
295.5453	0.1884
295.7577	0.1862
295.9701	0.1876
296.1825	0.1923
296.3949	0.1853
296.6073	0.1867
296.8197	0.1892
297.0321	0.1886
297.2444	0.1883
297.4567	0.1934
297.6691	0.188
297.8814	0.1944
298.0937	0.1915
298.306	0.1865
298.5182	0.1955
298.7305	0.1876
298.9428	0.1909
299.155	0.1836
299.3672	0.1872
299.5794	0.1908
299.7916	0.1905
300.0038	0.1861
300.216	0.1873
300.4282	0.1893
300.6403	0.1901
300.8525	0.1855
301.0646	0.1928
301.2767	0.1885
301.4888	0.1891
301.7009	0.192
301.913	0.1907
302.125	0.1875
302.3371	0.1929
302.5491	0.1888
302.7612	0.1926
302.9732	0.1896
303.1852	0.1915
303.3972	0.1878
303.6092	0.1914
303.8211	0.1865
304.0331	0.1856
304.245	0.1795
304.457	0.1886
304.6689	0.1851
304.8808	0.1857
305.0927	0.1887
305.3046	0.1884
305.5164	0.1834
305.7283	0.1806
305.9401	0.1766
306.152	0.1788
306.3638	0.175
306.5756	0.181
306.7874	0.1753
306.9992	0.1746
307.2109	0.1734
307.4227	0.1736
307.6344	0.1759
307.8462	0.1705
308.0579	0.1728
308.2696	0.162
308.4813	0.1618
308.693	0.1613
308.9046	0.1678
309.1163	0.1615
309.328	0.1599
309.5396	0.1576
309.7512	0.1539
309.9628	0.1559
310.1744	0.1491
310.386	0.1483
310.5976	0.1481
310.8091	0.1506
311.0207	0.1499
311.2322	0.1435
311.4437	0.1461
311.6552	0.1474
311.8667	0.1454
312.0782	0.1416
312.2897	0.1493
312.5012	0.1429
312.7126	0.1373
312.924	0.1425
313.1355	0.1358
313.3469	0.1373
313.5583	0.1362
313.7696	0.1332
313.981	0.1405
314.1924	0.1302
314.4037	0.1348
314.6151	0.1302
314.8264	0.1398
315.0377	0.1358
315.249	0.1355
315.4603	0.1293
315.6716	0.1309
315.8828	0.1291
316.0941	0.1302
316.3053	0.1212
316.5165	0.1343
316.7277	0.1191
316.9389	0.1305
317.1501	0.1307
317.3613	0.1235
317.5724	0.1259
317.7836	0.1247
317.9947	0.1286
318.2058	0.1255
318.417	0.1268
318.6281	0.123
318.8391	0.1297
319.0502	0.1292
319.2613	0.1256
319.4723	0.1239
319.6834	0.1244
319.8944	0.1246
320.1054	0.1289
320.3164	0.1203
320.5274	0.1254
320.7383	0.1248
320.9493	0.1235
321.1602	0.1268
321.3712	0.1244
321.5821	0.1285
321.793	0.1346
322.0039	0.1294
322.2148	0.1238
322.4257	0.1256
322.6365	0.1205
322.8474	0.1321
323.0582	0.1257
323.269	0.1263
323.4798	0.1293
323.6906	0.125
323.9014	0.1244
324.1122	0.1231
324.3229	0.1304
324.5337	0.1257
324.7444	0.1299
324.9551	0.1259
325.1658	0.1269
325.3765	0.1288
325.5872	0.1347
325.7979	0.1297
326.0085	0.1311
326.2192	0.1255
326.4298	0.1299
326.6404	0.1349
326.851	0.1291
327.0616	0.1287
327.2722	0.1281
327.4828	0.1374
327.6933	0.1392
327.9039	0.1382
328.1144	0.1326
328.3249	0.1325
328.5354	0.1345
328.7459	0.136
328.9564	0.1307
329.1669	0.1383
329.3773	0.1346
329.5878	0.1347
329.7982	0.1375
330.0086	0.1414
330.219	0.1349
330.4294	0.1373
330.6398	0.1415
330.8502	0.1388
331.0605	0.1356
331.2708	0.1356
331.4812	0.1379
331.6915	0.1386
331.9018	0.1362
332.1121	0.1463
332.3224	0.142
332.5326	0.1377
332.7429	0.1377
332.9531	0.1454
333.1633	0.1347
333.3735	0.1401
333.5837	0.1414
333.7939	0.1369
334.0041	0.145
334.2143	0.1375
334.4244	0.1495
334.6346	0.143
334.8447	0.1342
335.0548	0.1425
335.2649	0.1437
335.475	0.1443
335.685	0.139
335.8951	0.1386
336.1051	0.1444
336.3152	0.145
336.5252	0.1411
336.7352	0.1403
336.9452	0.147
337.1552	0.1432
337.3652	0.1372
337.5751	0.1475
337.7851	0.1428
337.995	0.1466
338.2049	0.1401
338.4148	0.1471
338.6247	0.1476
338.8346	0.1468
339.0445	0.1435
339.2543	0.1419
339.4642	0.1431
339.674	0.1424
339.8838	0.1427
340.0936	0.1462
340.3034	0.1387
340.5132	0.1419
340.7229	0.1469
340.9327	0.1524
341.1424	0.1472
341.3522	0.1448
341.5619	0.1445
341.7716	0.1473
341.9813	0.1531
342.1909	0.1497
342.4006	0.1553
342.6102	0.1484
342.8199	0.1518
343.0295	0.1428
343.2391	0.1546
343.4487	0.1524
343.6583	0.1591
343.8679	0.1597
344.0774	0.1456
344.287	0.1614
344.4965	0.1577
344.706	0.1639
344.9155	0.1507
345.125	0.1575
345.3345	0.1635
345.544	0.1622
345.7534	0.1647
345.9629	0.1648
346.1723	0.1652
346.3817	0.1628
346.5911	0.168
346.8005	0.1725
347.0099	0.1687
347.2193	0.1718
347.4286	0.1768
347.638	0.1747
347.8473	0.1746
348.0566	0.1669
348.2659	0.1707
348.4752	0.1694
348.6845	0.1673
348.8937	0.1708
349.103	0.1758
349.3122	0.1712
349.5214	0.1733
349.7306	0.1739
349.9398	0.1666
350.149	0.1791
350.3582	0.1727
350.5674	0.1795
350.7765	0.181
350.9856	0.1714
351.1948	0.1751
351.4039	0.1765
351.613	0.1766
351.822	0.1886
352.0311	0.1795
352.2402	0.1777
352.4492	0.1857
352.6582	0.1753
352.8672	0.1819
353.0762	0.1874
353.2852	0.1753
353.4942	0.1859
353.7032	0.1776
353.9121	0.18
354.1211	0.1854
354.33	0.1888
354.5389	0.1778
354.7478	0.1856
354.9567	0.1873
355.1655	0.1844
355.3744	0.1741
355.5833	0.1901
355.7921	0.1933
356.0009	0.179
356.2097	0.1782
356.4185	0.1809
356.6273	0.1872
356.8361	0.1889
357.0448	0.1922
357.2536	0.1879
357.4623	0.187
357.671	0.1935
357.8797	0.1919
358.0884	0.1879
358.2971	0.1877
358.5057	0.1955
358.7144	0.193
358.923	0.1953
359.1316	0.2017
359.3402	0.1923
359.5488	0.1913
359.7574	0.2
359.966	0.1957
360.1746	0.1956
360.3831	0.2059
360.5916	0.2027
360.8002	0.2061
361.0087	0.1935
361.2172	0.2012
361.4256	0.2045
361.6341	0.2106
361.8426	0.2041
362.051	0.2007
362.2594	0.2032
362.4678	0.209
362.6762	0.2125
362.8846	0.2043
363.093	0.2044
363.3014	0.2167
363.5097	0.2074
363.718	0.2093
363.9264	0.2215
364.1347	0.2127
364.343	0.215
364.5513	0.2179
364.7595	0.2207
364.9678	0.2138
365.176	0.2228
365.3842	0.2231
365.5925	0.2227
365.8007	0.2202
366.0089	0.2373
366.217	0.2223
366.4252	0.2195
366.6333	0.2227
366.8415	0.2313
367.0496	0.2192
367.2577	0.2329
367.4658	0.2274
367.6739	0.2225
367.882	0.231
368.09	0.2268
368.2981	0.2389
368.5061	0.2348
368.7141	0.2345
368.9221	0.2439
369.1301	0.2387
369.3381	0.2402
369.5461	0.2419
369.754	0.2436
369.962	0.2431
370.1699	0.2435
370.3778	0.2496
370.5857	0.248
370.7936	0.2338
371.0015	0.2474
371.2093	0.2439
371.4172	0.2455
371.625	0.2396
371.8328	0.24
372.0406	0.2521
372.2484	0.2418
372.4562	0.2514
372.664	0.2455
372.8717	0.2544
373.0795	0.2491
373.2872	0.2515
373.4949	0.2568
373.7026	0.2476
373.9103	0.2481
374.118	0.25
374.3256	0.2635
374.5333	0.2494
374.7409	0.258
374.9485	0.256
375.1561	0.2619
375.3637	0.2519
375.5713	0.2621
375.7789	0.258
375.9864	0.2664
376.194	0.2653
376.4015	0.2646
376.609	0.2647
376.8165	0.2602
377.024	0.2642
377.2315	0.26
377.4389	0.2528
377.6464	0.2665
377.8538	0.277
378.0612	0.2725
378.2686	0.2723
378.476	0.279
378.6834	0.2594
378.8908	0.2815
379.0981	0.2782
379.3055	0.2709
379.5128	0.2754
379.7201	0.2745
379.9274	0.2794
380.1347	0.2745
380.342	0.2836
380.5492	0.2768
380.7565	0.2805
380.9637	0.2786
381.1709	0.272
381.3781	0.2862
381.5853	0.2768
381.7925	0.2802
381.9997	0.2814
382.2068	0.2841
382.4139	0.2812
382.6211	0.2828
382.8282	0.2932
383.0353	0.2929
383.2424	0.2872
383.4494	0.2935
383.6565	0.2804
383.8635	0.2818
384.0706	0.2897
384.2776	0.2792
384.4846	0.283
384.6916	0.2831
384.8986	0.2969
385.1055	0.2932
385.3125	0.2924
385.5194	0.3008
385.7263	0.2857
385.9333	0.2907
386.1402	0.2887
386.347	0.2835
386.5539	0.2837
386.7608	0.2878
386.9676	0.2881
387.1744	0.2857
387.3813	0.2938
387.5881	0.2856
387.7948	0.2926
388.0016	0.2979
388.2084	0.2905
388.4151	0.2904
388.6219	0.2805
388.8286	0.2871
389.0353	0.2849
389.242	0.2897
389.4487	0.2764
389.6553	0.274
389.862	0.2854
390.0686	0.285
390.2753	0.2769
390.4819	0.2847
390.6885	0.2782
390.8951	0.2809
391.1016	0.2769
391.3082	0.2852
391.5147	0.2814
391.7213	0.273
391.9278	0.2749
392.1343	0.277
392.3408	0.2699
392.5473	0.2704
392.7537	0.2737
392.9602	0.2659
393.1666	0.2677
393.373	0.2694
393.5794	0.2633
393.7858	0.2708
393.9922	0.2619
394.1986	0.2636
394.4049	0.2627
394.6113	0.2556
394.8176	0.2614
395.0239	0.2635
395.2302	0.2592
395.4365	0.2608
395.6428	0.2582
395.8491	0.2604
396.0553	0.2493
396.2615	0.2492
396.4678	0.2658
396.674	0.2475
396.8802	0.251
397.0863	0.2507
397.2925	0.2533
397.4987	0.2464
397.7048	0.2556
397.9109	0.2485
398.117	0.2478
398.3231	0.2429
398.5292	0.2338
398.7353	0.2359
398.9413	0.2425
399.1474	0.2468
399.3534	0.247
399.5594	0.2528
399.7654	0.2433
399.9714	0.2476
400.1774	0.2489
400.3833	0.2394
400.5893	0.2396
400.7952	0.2413
401.0011	0.2386
401.207	0.2457
401.4129	0.2523
401.6188	0.2493
401.8247	0.2538
402.0305	0.2391
402.2364	0.2536
402.4422	0.2506
402.648	0.2451
402.8538	0.2436
403.0596	0.2394
403.2654	0.2435
403.4711	0.2398
403.6768	0.2398
403.8826	0.2445
404.0883	0.2447
404.294	0.2514
404.4997	0.2325
404.7054	0.2503
404.911	0.2403
405.1167	0.2544
405.3223	0.2448
405.5279	0.2469
405.7335	0.2396
405.9391	0.2313
406.1447	0.2537
406.3502	0.2422
406.5558	0.228
406.7613	0.2365
406.9668	0.2381
407.1724	0.2444
407.3778	0.245
407.5833	0.2413
407.7888	0.2474
407.9942	0.2394
408.1997	0.2516
408.4051	0.2435
408.6105	0.2464
408.8159	0.2436
409.0213	0.2456
409.2267	0.2495
409.432	0.2377
409.6374	0.2422
409.8427	0.2518
410.048	0.2525
410.2533	0.244
410.4586	0.2322
410.6639	0.2459
410.8691	0.2364
411.0744	0.2425
411.2796	0.2447
411.4848	0.2466
411.69	0.2376
411.8952	0.2421
412.1004	0.2452
412.3056	0.2421
412.5107	0.2465
412.7158	0.2437
412.921	0.2348
413.1261	0.2396
413.3312	0.2352
413.5362	0.2482
413.7413	0.2375
413.9464	0.2297
414.1514	0.2389
414.3564	0.2386
414.5614	0.2426
414.7664	0.2381
414.9714	0.2329
415.1764	0.2372
415.3813	0.2292
415.5863	0.2418
415.7912	0.2319
415.9961	0.2303
416.201	0.2479
416.4059	0.2408
416.6108	0.2366
416.8156	0.2301
417.0205	0.237
417.2253	0.2293
417.4301	0.2346
417.6349	0.2354
417.8397	0.2241
418.0445	0.2277
418.2492	0.2237
418.454	0.2372
418.6587	0.2318
418.8634	0.2299
419.0681	0.2397
419.2728	0.2322
419.4775	0.2428
419.6822	0.2341
419.8868	0.2257
420.0915	0.2255
420.2961	0.2287
420.5007	0.2336
420.7053	0.229
420.9099	0.2159
421.1144	0.2263
421.319	0.2215
421.5235	0.2162
421.728	0.2275
421.9325	0.2276
422.137	0.2126
422.3415	0.2207
422.546	0.2142
422.7504	0.2137
422.9549	0.2195
423.1593	0.2073
423.3637	0.218
423.5681	0.214
423.7725	0.2042
423.9769	0.2156
424.1812	0.2111
424.3856	0.2058
424.5899	0.2131
424.7942	0.2001
424.9985	0.2139
425.2028	0.2134
425.4071	0.2022
425.6113	0.2162
425.8156	0.2056
426.0198	0.2147
426.224	0.2095
426.4282	0.1935
426.6324	0.2015
426.8366	0.1967
427.0407	0.1899
427.2449	0.1952
427.449	0.1891
427.6531	0.2046
427.8572	0.2002
428.0613	0.2017
428.2654	0.1963
428.4694	0.188
428.6735	0.1847
428.8775	0.1874
429.0815	0.1839
429.2855	0.1929
429.4895	0.1812
429.6935	0.1835
429.8975	0.1728
430.1014	0.1902
430.3053	0.1908
430.5093	0.1787
430.7132	0.1762
430.9171	0.1762
431.1209	0.1818
431.3248	0.1602
431.5286	0.1762
431.7325	0.1724
431.9363	0.171
432.1401	0.1689
432.3439	0.1722
432.5477	0.153
432.7514	0.1627
432.9552	0.164
433.1589	0.1568
433.3627	0.1559
433.5664	0.1488
433.7701	0.1511
433.9737	0.1569
434.1774	0.1499
434.3811	0.1475
434.5847	0.1562
434.7883	0.1416
434.9919	0.13
435.1955	0.1478
435.3991	0.1473
435.6027	0.1398
435.8062	0.149
436.0098	0.1304
436.2133	0.1329
436.4168	0.1286
436.6203	0.1241
436.8238	0.1274
437.0272	0.1359
437.2307	0.1237
437.4341	0.1285
437.6375	0.128
437.841	0.113
438.0443	0.1219
438.2477	0.1184
438.4511	0.1099
438.6545	0.1204
438.8578	0.1108
439.0611	0.117
439.2644	0.1175
439.4677	0.1148
439.671	0.108
439.8743	0.1175
440.0775	0.1038
440.2808	0.1045
440.484	0.1031
440.6872	0.1019
440.8904	0.0998
441.0936	0.1007
441.2967	0.0882
441.4999	0.0902
441.703	0.0928
441.9062	0.0894
442.1093	0.0994
442.3124	0.0909
442.5155	0.086
442.7185	0.0822
442.9216	0.0919
443.1246	0.0835
443.3276	0.0866
443.5307	0.0791
443.7337	0.0894
443.9366	0.0763
444.1396	0.0775
444.3426	0.0749
444.5455	0.0802
444.7484	0.0737
444.9513	0.0777
445.1542	0.079
445.3571	0.0651
445.56	0.0629
445.7628	0.0653
445.9657	0.0651
446.1685	0.0684
446.3713	0.0703
446.5741	0.061
446.7769	0.0738
446.9797	0.068
447.1824	0.066
447.3852	0.0437
447.5879	0.0523
447.7906	0.0556
447.9933	0.0593
448.196	0.051
448.3986	0.0518
448.6013	0.0488
448.8039	0.0602
449.0066	0.0612
449.2092	0.0529
449.4118	0.0477
449.6143	0.0531
449.8169	0.0542
450.0195	0.0497
450.222	0.0495
450.4245	0.0447
450.627	0.0465
450.8295	0.0402
451.032	0.0471
451.2345	0.0378
451.4369	0.0449
451.6394	0.0422
451.8418	0.0504
452.0442	0.0315
452.2466	0.0354
452.449	0.0377
452.6513	0.0391
452.8537	0.0353
453.056	0.0346
453.2583	0.0268
453.4607	0.0152
453.663	0.0339
453.8652	0.0269
454.0675	0.0326
454.2697	0.0288
454.472	0.0348
454.6742	0.0439
454.8764	0.0242
455.0786	0.0228
455.2808	0.0233
455.4829	0.0337
455.6851	0.0323
455.8872	0.0188
456.0893	0.0259
456.2915	0.0297
456.4935	0.027
456.6956	0.0184
456.8977	0.0239
457.0997	0.0316
457.3018	0.0237
457.5038	0.0202
457.7058	0.0258
457.9078	0.0237
458.1098	0.0237
458.3117	0.0309
458.5137	0.0124
458.7156	0.0277
458.9175	0.0272
459.1194	0.021
459.3213	0.0133
459.5232	0.0203
459.725	0.0159
459.9269	0.0231
460.1287	0.014
460.3305	0.0301
460.5323	0.0097
460.7341	0.0153
460.9359	0.0091
461.1376	0.0179
461.3394	0.0188
461.5411	0.0251
461.7428	0.017
461.9445	0.0156
462.1462	0.0101
462.3479	0.0158
462.5495	0.0252
462.7512	0.0222
462.9528	0.0154
463.1544	0.0152
463.356	0.0072
463.5576	0.0204
463.7592	0.0178
463.9607	0.0166
464.1623	0.0065
464.3638	0.0084
464.5653	0.012
464.7668	0.0204
464.9683	0.0107
465.1697	0.0101
465.3712	0.0077
465.5726	0.0078
465.7741	0.0171
465.9755	0.0106
466.1769	0.012
466.3782	0.0098
466.5796	0.0145
466.7809	0.0081
466.9823	0.0145
467.1836	0.0091
467.3849	0.0175
467.5862	0.0038
467.7875	0.0052
467.9887	0.0109
468.19	0.0098
468.3912	0.0192
468.5924	0.0056
468.7936	0.0151
468.9948	0.0059
469.196	0.0158
469.3972	-0.0001
469.5983	0.0091
469.7994	0.0151
470.0006	0.0092
470.2017	0.0114
470.4027	0.0246
470.6038	0.0052
470.8049	0.0026
471.0059	0.014
471.2069	0.0023
471.408	0.0114
471.6089	0.0172
471.8099	0.0119
472.0109	0.0015
472.2119	0.0165
472.4128	0.0101
472.6137	0.0108
472.8146	0.0119
473.0155	0.0137
473.2164	0.0106
473.4173	0.0018
473.6181	0.0044
473.819	0.0052
474.0198	-0.008
474.2206	-0.0012
474.4214	0.0088
474.6222	-0.0063
474.8229	0.0038
475.0237	0.0089
475.2244	0.007
475.4251	0.0084
475.6258	-0.0047
475.8265	0.0082
476.0272	0.0038
476.2278	0.0102
476.4285	0.0153
476.6291	0.0081
476.8297	0.0116
477.0303	0.0047
477.2309	0.0058
477.4315	0.0055
477.632	-0.0019
477.8326	0.01
478.0331	0.0122
478.2336	-0.0024
478.4341	0.0029
478.6346	-0.0013
478.8351	0.0027
479.0355	0.0157
479.236	0.0076
479.4364	0.0052
479.6368	0.0043
479.8372	0.0023
480.0376	0.0012
480.2379	0.0065
480.4383	0.012
480.6386	0.0002
480.8389	0.0084
481.0392	0.0041
481.2395	0.0139
481.4398	0.0143
481.6401	0.0085
481.8403	-0.004
482.0405	0.0048
482.2408	0.0103
482.441	0.0108
482.6411	0.009
482.8413	-0.001
483.0415	0.0118
483.2416	-0.0008
483.4417	0.006
483.6419	-0.001
483.8419	0.0068
484.042	0.0037
484.2421	0.0003
484.4422	0.004
484.6422	0.003
484.8422	0.0031
485.0422	0.0069
485.2422	0.0011
485.4422	0.0062
485.6422	0.0039
485.8421	0.0034
486.042	0.0101
486.242	0.0036
486.4419	0.0068
486.6417	0.003
486.8416	0.0015
487.0415	0.0006
487.2413	-0.0043
487.4411	0.004
487.641	-0.0032
487.8408	0.0037
488.0405	0.0076
488.2403	-0.0031
488.4401	0.0097
488.6398	0.0113
488.8395	0.0023
489.0392	0.0031
489.2389	0.0118
489.4386	-0.0007
489.6383	0.0056
489.8379	0.0032
490.0376	0.0138
490.2372	-0.0027
490.4368	0.0005
490.6364	-0.0053
490.836	0.0054
491.0355	0.0011
491.2351	0.0015
491.4346	0.005
491.6341	0.0036
491.8336	0.0079
492.0331	0.0084
492.2326	0.0064
492.432	0.0103
492.6315	0.0156
492.8309	0.0042
493.0303	-0.0042
493.2297	0.0078
493.4291	0.0031
493.6284	0.0069
493.8278	0.0071
494.0271	0.0066
494.2264	-0.0003
494.4257	0.0141
494.625	0.0038
494.8243	-0.0015
495.0236	0.0117
495.2228	0.0117
495.422	0.0085
495.6213	0.0033
495.8205	0.0074
496.0196	0.0066
496.2188	0.0062
496.418	0.0088
496.6171	0.0009
496.8162	0.0096
497.0153	-0.0004
497.2144	0.0074
497.4135	0.0048
497.6126	0.0045
497.8116	0.0102
498.0107	0.0052
498.2097	0.0034
498.4087	-0.0005
498.6077	-0.0087
498.8067	0.0081
499.0056	0.0054
499.2046	0.0115
499.4035	0.0106
499.6024	-0.0037
499.8013	0.0053
500.0002	0.0051
500.199	0.0192
500.3979	0.0027
500.5967	0.0065
500.7956	0.0041
500.9944	0.0043
501.1932	0.0123
501.3919	0.01
501.5907	0.0091
501.7895	-0
501.9882	0.0063
502.1869	0.0188
502.3856	0.0021
502.5843	0.0071
502.783	0.0037
502.9816	0.0043
503.1803	0.0064
503.3789	0.0156
503.5775	-0.0005
503.7761	0.0023
503.9747	0.002
504.1732	-0.003
504.3718	0.0191
504.5703	0.0025
504.7689	-0.0041
504.9674	-0.0005
505.1658	0.0004
505.3643	0.0116
505.5628	0.0112
505.7612	0.0058
505.9597	0.0083
506.1581	0.0016
506.3565	-0.0002
506.5549	0.0034
506.7532	-0.0031
506.9516	0.0114
507.1499	0.0126
507.3482	0.0043
507.5465	0.0088
507.7448	0.0064
507.9431	0.0086
508.1414	-0.0018
508.3396	0.0016
508.5379	-0.0054
508.7361	0.006
508.9343	0.0036
509.1325	0.004
509.3306	-0.0024
509.5288	0.0037
509.7269	0.01
509.9251	0.0128
510.1232	0.0118
510.3213	0.0071
510.5193	0.0052
510.7174	-0.001
510.9154	0.0127
511.1135	0.0025
511.3115	0.004
511.5095	0.0053
511.7075	0.001
511.9055	0.0098
512.1034	0.0076
512.3014	0.0002
512.4993	0.0076
512.6972	-0.0016
512.8951	0.0047
513.093	-0.0013
513.2908	0.0113
513.4887	0.0017
513.6865	0.0042
513.8844	0.0072
514.0822	-0.0005
514.2799	0.0061
514.4777	0.0006
514.6755	0.0045
514.8732	0.0005
515.0709	0.0019
515.2687	0.0057
515.4664	0.0094
515.664	0.0067
515.8617	0.0093
516.0594	0.0075
516.257	0.006
516.4546	0.0119
516.6522	0.0036
516.8498	0.0048
517.0474	0.0062
517.2449	-0.0031
517.4425	0.0017
517.64	0.0126
517.8375	0.01
518.035	0.0031
518.2325	-0.0077
518.43	0.0046
518.6274	-0.0003
518.8249	-0.0091
519.0223	0.0145
519.2197	0.0113
519.4171	-0.008
519.6145	0.0112
519.8118	-0.0125
520.0092	-0.0006
520.2065	0.0135
520.4038	0.0004
520.6011	0.0087
520.7984	0.0144
520.9956	0.002
521.1929	0.0117
521.3901	0.0099
521.5874	0.0062
521.7846	-0.0025
521.9818	-0.0012
522.1789	-0.0038
522.3761	0.0174
522.5732	0.0081
522.7704	-0.0001
522.9675	-0.0008
523.1646	-0.0102
523.3617	0.0071
523.5587	-0.0043
523.7558	0.0117
523.9528	0.0149
524.1498	-0.0008
524.3468	0.0081
524.5438	0.0124
524.7408	0.0051
524.9378	0.0051
525.1347	0.0092
525.3316	0.0039
525.5285	0.0008
525.7254	-0.0014
525.9223	0.0145
526.1192	0.0102
526.316	0.0128
526.5129	0.0064
526.7097	-0.0016
526.9065	0.0215
527.1033	0.001
527.3	0.0076
527.4968	0.0112
527.6935	-0.0018
527.8903	0.0011
528.087	0.0058
528.2837	0.0177
528.4804	-0.001
528.677	0.0091
528.8737	0.0045
529.0703	0.0044
529.2669	0.0113
529.4635	-0.0036
529.6601	-0.0074
529.8567	-0.0036
530.0532	0.0083
530.2498	0.0065
530.4463	-0.0013
530.6428	0.003
530.8393	0.0071
531.0358	0.012
531.2322	0.0018
531.4287	-0.0031
531.6251	-0.0027
531.8215	-0.0022
532.0179	0.0118
532.2143	0.0015
532.4107	0.0074
532.607	-0.0066
532.8034	-0.0055
532.9997	0.0016
533.196	0.0056
533.3923	0.0058
533.5886	0.01
533.7848	-0.0053
533.9811	0.0071
534.1773	0.0016
534.3735	0.0127
534.5697	0.0048
534.7659	0.0043
534.9621	0.0057
535.1582	0.0111
535.3544	0.0085
535.5505	0.0114
535.7466	0.0175
535.9427	0.0077
536.1387	0.0025
536.3348	0.0025
536.5308	0.0064
536.7269	-0.003
536.9229	0.0146
537.1189	0.0099
537.3148	0.0051
537.5108	0.0006
537.7068	0.007
537.9027	-0.0031
538.0986	0.0106
538.2945	0.0057
538.4904	-0.0045
538.6863	0.0046
538.8821	0.0077
539.078	-0.0042
539.2738	0.0134
539.4696	-0.0054
539.6654	0.0002
539.8611	0.0083
540.0569	0.0053
540.2526	0.0147
540.4484	0.0041
540.6441	0.0088
540.8398	0.0028
541.0355	0.0066
541.2311	0.0031
541.4268	0.0136
541.6224	0.0164
541.818	0.0123
542.0136	0.0117
542.2092	0.0161
542.4048	0.0048
542.6003	0.0021
542.7959	0.0099
542.9914	0.0156
543.1869	0.0076
543.3824	0.0036
543.5779	0.0062
543.7734	0.0127
543.9688	0.0068
544.1642	-0.0016
544.3596	0.0089
544.555	0.0052
544.7504	0.012
544.9458	0.0011
545.1411	0.0059
545.3365	0.0074
545.5318	0.0046
545.7271	0.0122
545.9224	-0.004
546.1177	0.0065
546.3129	0.0003
546.5081	0.0025
546.7034	0.006
546.8986	0.013
547.0938	0.0096
547.289	0.0073
547.4841	0.013
547.6793	-0.0022
547.8744	0.0052
548.0695	0.0001
548.2646	0.0138
548.4597	0.0095
548.6548	0.0106
548.8498	0.0153
549.0448	0.0005
549.2399	0.0139
549.4349	0.0064
549.6298	0.0089
549.8248	0.0006
550.0198	0.0063
550.2147	0.0139
550.4096	-0.0063
550.6045	0.0059
550.7994	0.0053
550.9943	0.0092
551.1892	-0.0138
551.384	0.0171
551.5788	0.0119
551.7737	0.0132
551.9685	0.0066
552.1632	0.0011
552.358	0.0054
552.5528	0.0032
552.7475	-0.0002
552.9422	0.0142
553.1369	0.0046
553.3316	0.0141
553.5263	0.0053
553.7209	0.001
553.9156	0.0032
554.1102	0.0125
554.3048	0.0008
554.4994	0.0107
554.694	0.0085
554.8885	0.0127
555.0831	0.0079
555.2776	0.0075
555.4721	0.001
555.6666	0.0108
555.8611	0.0051
556.0555	0.0057
556.25	0.0148
556.4444	0.0064
556.6388	0.008
556.8332	0.0062
557.0276	0.0093
557.222	0.0009
557.4163	0.0027
557.6107	0.0005
557.805	-0.0055
557.9993	0.0136
558.1936	-0.0005
558.3879	0.0063
558.5821	0.0001
558.7764	-0.0027
558.9706	0.002
559.1648	0.009
559.359	-0.0039
559.5532	0.0009
559.7473	-0.0011
559.9415	0.0002
560.1356	0.0212
560.3297	-0.0045
560.5238	0.0103
560.7179	0.0112
560.9119	0.0087
561.106	-0.0016
561.3	0.0028
561.494	-0.0043
561.688	0.0036
561.882	0.0094
562.076	0.0017
562.2699	0.0099
562.4639	0.0122
562.6578	0.0094
562.8517	0.0053
563.0456	0.0081
563.2395	0.0119
563.4333	0.0042
563.6272	0.0006
563.821	0.0074
564.0148	0.0043
564.2086	0.0045
564.4024	0.0065
564.5961	0.0051
564.7899	0.0046
564.9836	0.0082
565.1773	0.0047
565.371	-0.0032
565.5647	0.0101
565.7584	0.0162
565.952	0.0063
566.1456	0.0032
566.3393	0.0059
566.5329	0.0052
566.7264	0.0128
566.92	0.0071
567.1136	-0.0016
567.3071	-0.001
567.5006	0.0062
567.6941	0.0089
567.8876	0.005
568.0811	0.0154
568.2745	-0.0017
568.468	0.0064
568.6614	0.0114
568.8548	0.0065
569.0482	0.0071
569.2416	0.0077
569.4349	0.005
569.6283	0.0052
569.8216	0.007
570.0149	-0.0011
570.2082	0.0079
570.4015	0.0054
570.5947	0.0046
570.788	0.0079
570.9812	0.0038
571.1744	0.0046
571.3676	0.0032
571.5608	0.0054
571.754	0.0109
571.9471	0.009
572.1402	0.0078
572.3333	0.0031
572.5264	0.0036
572.7195	0.0048
572.9126	0.0045
573.1057	0.0062
573.2987	0.0028
573.4917	0.0031
573.6847	0.0063
573.8777	0.0051
574.0707	0.0042
574.2636	0.0051
574.4566	0.0023
574.6495	0.0036
574.8424	0.0096
575.0353	0.0066
575.2281	0.0118
575.421	0.0021
575.6138	0.0039
575.8067	0.0046
575.9995	0.0049
576.1923	0.0022
576.385	0.0068
576.5778	0.0078
576.7706	0.0058
576.9633	0.0083
577.156	-0.001
577.3487	0.0036
577.5414	0.0033
577.734	0.0023
577.9267	0.0065
578.1193	0.01
578.3119	0.0027
578.5045	0.0039
578.6971	0.0021
578.8897	0.0056
579.0822	0.0059
579.2747	0.0028
579.4673	0.0076
579.6598	0.0079
579.8522	0.0006
580.0447	0.0051
580.2372	0.0064
580.4296	0.0093
580.622	0.0024
580.8144	0.0063
581.0068	0.0045
581.1992	0.0038
581.3915	-0.0001
581.5839	0.0065
581.7762	0.0052
581.9685	0.0046
582.1608	0.0025
582.353	0.0061
582.5453	0.0061
582.7375	0.009
582.9298	0.0006
583.122	0.0021
583.3142	0.0049
583.5063	0.0048
583.6985	-0.0006
583.8906	0.002
584.0827	0.011
584.2749	0.006
584.4669	0.0026
584.659	0.0051
584.8511	0.0074
585.0431	0.0054
585.2352	0.0037
585.4272	0.0026
585.6192	0.0049
585.8111	0.0044
586.0031	0.0044
586.195	0.0038
586.387	0.0008
586.5789	0.0038
586.7708	0.0082
586.9627	0.0076
587.1545	0.0062
587.3464	0.0079
587.5382	0.0077
587.73	0.0085
587.9218	0.0013
588.1136	-0.0054
588.3053	0.0012
588.4971	0.0045
588.6888	0.0031
588.8805	-0.0022
589.0722	0.0107
589.2639	0.0066
589.4556	0.0056
589.6472	0.0079
589.8389	0.005
590.0305	-0.0044
590.2221	0.0073
590.4137	0.0025
590.6052	0.0056
590.7968	0.0024
590.9883	0.013
591.1798	0.0026
591.3713	0.003
591.5628	0.004
591.7543	0.0038
591.9458	0.0067
592.1372	0.007
592.3286	0.0004
592.52	0.0058
592.7114	-0.0002
592.9028	0.0116
593.0941	-0.0022
593.2855	0.0044
593.4768	0.0055
593.6681	0.0056
593.8594	0.0056
594.0506	0.0021
594.2419	0.0043
594.4331	-0.0003
594.6244	0.001
594.8156	0.0028
595.0067	0.001
595.1979	0.003
595.3891	0.0089
595.5802	0.0057
595.7713	0.0071
595.9624	0.0092
596.1535	0.0025
596.3446	-0.003
596.5357	0.0039
596.7267	0.0063
596.9177	-0.0045
597.1087	0.0019
597.2997	0.0073
597.4907	0.0031
597.6817	0.0078
597.8726	0.0059
598.0635	-0.0032
598.2544	0.0019
598.4453	0.0063
598.6362	-0.0006
598.827	0.0026
599.0179	0.0057
599.2087	0.0056
599.3995	0.0036
599.5903	0.006
599.7811	0.0109
599.9718	0.0042
600.1626	0.003
600.3533	0.0018
600.544	0.0021
600.7347	0.0056
600.9254	0.0152
601.116	0.007
601.3067	0.0052
601.4973	0.0098
601.6879	0.0037
601.8785	0.0033
602.0691	0.006
602.2596	0.0053
602.4502	0.0154
602.6407	0.0052
602.8312	0.0045
603.0217	0.0055
603.2122	0.004
603.4027	-0.0006
603.5931	0.0039
603.7835	0.0059
603.9739	0.0036
604.1643	0.0054
604.3547	0.0118
604.5451	0.0087
604.7354	0.0002
604.9257	0.0031
605.116	-0.0017
605.3063	0.0066
605.4966	0.0037
605.6869	0.0074
605.8771	0.0053
606.0673	0.0048
606.2575	-0.0015
606.4477	0.0116
606.6379	0.0031
606.8281	0.0055
607.0182	-0.0016
607.2083	0.0069
607.3985	0.0043
607.5885	0.0023
607.7786	0.0041
607.9687	0.0054
608.1587	0.0067
608.3488	0.0069
608.5388	0.001
608.7288	-0.0098
608.9187	0.0035
609.1087	0.0073
609.2986	0.0046
609.4886	0.0027
609.6785	0.0062
609.8684	0.0008
610.0582	-0.0006
610.2481	-0.0046
610.4379	0.0009
610.6278	0.002
610.8176	0.0077
611.0074	0.0036
611.1971	-0.0008
611.3869	0.0086
611.5766	-0.0024
611.7664	0.0149
611.9561	0.0036
612.1458	0.0114
612.3354	0.0024
612.5251	0.0013
612.7147	0.0062
612.9044	0.0008
613.094	0.0061
613.2836	0.0038
613.4731	0.0047
613.6627	0.0054
613.8522	0.0035
614.0417	0.0054
614.2313	0.0032
614.4207	0.0061
614.6102	0.0074
614.7997	0.0038
614.9891	0.0075
615.1785	-0.002
615.3679	0.007
615.5573	0.0031
615.7467	-0.0005
615.9361	-0.0078
616.1254	0.0068
616.3147	0.0057
616.504	0.0024
616.6933	0.0015
616.8826	-0
617.0718	0.0119
617.2611	0.0019
617.4503	0.0103
617.6395	0.0034
617.8287	0.0127
618.0179	0.0056
618.207	0.0127
618.3961	-0.0042
618.5853	-0.0012
618.7744	0.0061
618.9634	0.0082
619.1525	0.0045
619.3416	0.0062
619.5306	0.0076
619.7196	0.0069
619.9086	0.0028
620.0976	-0.0019
620.2866	0.0139
620.4755	-0.0046
620.6645	0.0127
620.8534	0.0075
621.0423	0.0099
621.2312	0.0116
621.42	-0.0083
621.6089	0.0126
621.7977	0.0096
621.9865	0.0075
622.1753	-0.0007
622.3641	-0.0062
622.5529	0.0007
622.7416	-0.0013
622.9303	0.0012
623.1191	0.0023
623.3078	0.008
623.4964	0.0058
623.6851	-0.0008
623.8737	0.0036
624.0624	-0.0094
624.251	0.0136
624.4396	-0.0059
624.6282	0.0121
624.8167	-0.0109
625.0053	0.0127
625.1938	0.0007
625.3823	0.0072
625.5708	-0.0112
625.7593	-0.0022
625.9477	0.0054
626.1362	0.0009
626.3246	0.0098
626.513	0.011
626.7014	0.0075
626.8898	0.0111
627.0781	0.0105
627.2665	0.0083
627.4548	-0.004
627.6431	0.007
627.8314	0.0143
628.0197	0.0093
628.2079	0.0012
628.3962	0.0057
628.5844	0.0063
628.7726	0.0049
628.9608	0.0064
629.1489	0.0075
629.3371	0.0038
629.5252	0.0101
629.7134	0.008
629.9015	0.0173
630.0895	-0.0029
630.2776	-0.005
630.4657	0.0069
630.6537	0.0062
630.8417	-0.011
631.0297	0.004
631.2177	0.0078
631.4057	0.0019
631.5936	0.0069
631.7815	0.0092
631.9695	0.0288
632.1574	0.0088
632.3452	0.0155
632.5331	-0.0137
632.7209	0.0235
632.9088	-0.0053
633.0966	0.0195
633.2844	0.0075
633.4722	0.0125
633.6599	0.0122
633.8477	-0.0014
634.0354	0.0121
634.2231	0.0014
634.4108	-0.0123
634.5985	0.0045
634.7861	-0.0082
634.9738	-0.0047
635.1614	0.003
635.349	-0.0099
635.5366	0.0073
635.7242	0.0012
635.9117	0.002
636.0993	0.0202
636.2868	-0.0151
636.4743	-0.0065
636.6618	-0.0024
636.8492	0.0184
637.0367	-0.0108
637.2241	0.0025
637.4115	0.0215
637.5989	-0.0053
637.7863	0.0297
637.9737	-0.0108
638.161	0.0044
638.3484	-0.0064
638.5357	0.0045
638.723	0.0166
638.9103	-0.0233
639.0975	-0.0062
639.2848	0.0013
639.472	0.0047
639.6592	-0.0021
639.8464	0.0174
640.0336	0.0116
640.2208	-0.0005
640.4079	-0.0087
640.595	-0.0135
640.7821	0.0121
640.9692	-0.0024
641.1563	0.0019
641.3434	0.0163
641.5304	0.021
641.7174	0.0142
641.9044	0.007
642.0914	0.0447
642.2784	0.0197
642.4653	-0.0033
642.6523	0.0133
642.8392	-0.0044
643.0261	0.0163
643.213	-0.0017
643.3999	0.0298
643.5867	0.0052
643.7735	-0.0165
643.9604	0.0213
644.1472	-0.0031
644.3339	-0.0036
644.5207	-0.002
644.7075	-0.0044
644.8942	0.0024
645.0809	0.0003
645.2676	-0.0124
645.4543	0.0052
645.6409	0.0145
645.8276	0.0161
646.0142	0.006
646.2008	-0.0107
646.3874	0.0003
646.574	-0.0076
646.7605	0.0124
646.9471	-0.0068
647.1336	-0.0073
647.3201	0.015
647.5066	0.0144
647.6931	-0.0018
647.8795	0.0049
648.0659	0.0017
648.2524	-0.0068
648.4388	0.0052
648.6252	0.0056
648.8115	0.0005
648.9979	0.012
649.1842	0.0159
649.3705	0.0024
649.5568	-0.003
649.7431	-0.0072
649.9294	-0.0052
650.1156	-0.0007
650.3018	0.0121
650.488	0.0006
650.6742	0.0265
650.8604	0.0063
651.0466	-0.0019
651.2327	-0.0172
651.4188	0.0085
651.6049	0.0285
651.791	0.0174
651.9771	-0.0036
652.1632	0.0115
652.3492	-0.0017
652.5352	0.0148
652.7212	-0.0037
652.9072	-0.0146
653.0932	0.0024
653.2791	0.0149
653.465	0.0013
653.651	0.0003
653.8369	0.0109
654.0227	-0.0042
654.2086	0.0009
654.3944	0.017
654.5803	-0.0004
654.7661	0.0035
654.9519	0.0007
655.1377	-0.0001
655.3234	-0.0001
655.5092	-0.0001
655.6949	-0.0001
655.8806	-0.0001
656.0663	-0.0001
656.2519	-0.0001
656.4376	-0.0001
656.6232	-0.0001
656.8088	-0.0001
656.9945	-0.0001
657.18	-0.0001
657.3656	-0.0001
657.5511	-0.0001
657.7367	-0.0001
657.9222	-0.0001
658.1077	-0.0001
658.2932	-0.0001
658.4786	-0.0001
658.6641	-0.0001
658.8495	-0.0001
659.0349	-0.0001
659.2203	-0.0001
659.4057	-0.0001
659.591	0.1759
659.7764	0.0225
659.9617	0.0026
660.147	0.0113
660.3323	0.0046
660.5176	-0.0124
660.7028	-0.0143
660.888	0.0014
661.0733	0.0126
661.2585	0.0045
661.4436	0.0157
661.6288	0.0259
661.8139	-0.014
661.9991	-0.0148
662.1842	-0.0012
662.3693	-0.0049
662.5544	0.0261
662.7394	0.0083
662.9245	0.0014
663.1095	-0.0111
663.2945	-0.005
663.4795	0.0023
663.6644	0.003
663.8494	0.0095
664.0343	0.0047
664.2193	0.0131
664.4042	0.0131
664.589	-0.0034
664.7739	0.0035
664.9587	-0.0036
665.1436	-0.0009
665.3284	0.0048
665.5132	-0.0114
665.698	0.025
665.8827	0.0089
666.0675	-0.0202
666.2522	-0.0005
666.4369	0.0011
666.6216	0.0008
666.8063	-0.0113
666.9909	-0.0142
667.1756	-0.0113
667.3602	-0.01
667.5448	0.0056
667.7294	0.0062
667.9139	0.0135
668.0985	-0.0006
668.283	-0.0013
668.4675	0.0061
668.652	0.0053
668.8365	-0.0371
669.0209	0.0202
669.2054	0.0256
669.3898	0.0145
669.5742	0.0269
669.7586	0.0169
669.943	0.005
670.1273	0.0074
670.3117	0.0236
670.496	0.0125
670.6803	0.0144
670.8646	-0.0097
671.0488	0.0223
671.2331	-0.0006
671.4173	0.0048
671.6015	0.0105
671.7857	0.0067
671.9699	0.0118
672.1541	-0.0076
672.3382	0.0051
672.5223	0.014
672.7064	-0.0039
672.8905	-0.0017
673.0746	0.0126
673.2587	0.0047
673.4427	0.022
673.6267	0.0036
673.8107	0.0196
673.9947	0.0167
674.1787	0.0158
674.3626	-0.0177
674.5465	0.0282
674.7304	0.003
674.9143	0.0004
675.0982	-0.0109
675.2821	0.0021
675.4659	-0.0064
675.6497	0.0174
675.8335	-0.005
676.0173	-0.012
676.2011	0.0046
676.3849	0.0113
676.5686	0.0272
676.7523	0.0011
676.936	-0.0005
677.1197	-0.0067
677.3034	0.021
677.487	-0.003
677.6706	-0.0065
677.8542	0.0021
678.0378	0.0036
678.2214	0.0094
678.405	-0.0016
678.5885	0.0003
678.772	0.0141
678.9555	-0.0006
679.139	0.0122
679.3225	-0.0093
679.5059	-0.0038
679.6894	-0.0011
679.8728	-0.0096
680.0562	0.0159
680.2395	-0.0053
680.4229	-0.0083
680.6062	0.0169
680.7896	-0.0139
680.9729	0.0071
681.1562	-0.0045
681.3394	0.0053
681.5227	0.0093
681.7059	0.0306
681.8891	0.0079
682.0723	0.0048
682.2555	-0.0055
682.4387	0.0171
682.6218	0.0175
682.805	0.0224
682.9881	0.0255
683.1712	-0.0053
683.3542	-0.0129
683.5373	-0.0112
683.7203	0.0108
683.9034	-0.0004
684.0864	0.0015
684.2694	0.0058
684.4523	0.0175
684.6353	-0.0073
684.8182	0.0038
685.0011	0.0078
685.184	0.0069
685.3669	0.0217
685.5498	-0.0172
685.7326	-0.0035
685.9154	-0.0063
686.0982	0.0119
686.281	-0.0083
686.4638	0.0218
686.6465	-0.0053
686.8293	-0.0053
687.012	0.0091
687.1947	-0.0031
687.3774	0.0109
687.56	0.0067
687.7427	0.0175
687.9253	-0.0182
688.1079	0.02
688.2905	0.0259
688.4731	0.0058
688.6556	0.0094
688.8382	-0.019
689.0207	0.0151
689.2032	0.0241
689.3857	0.0065
689.5681	0.0076
689.7506	0.0255
689.933	-0.0248
690.1154	0.0171
690.2978	0.0074
690.4802	0.0124
690.6626	-0.0069
690.8449	0.0032
691.0272	0.0087
691.2095	-0.019
691.3918	0.0307
691.5741	0.0062
691.7563	0.025
691.9386	0.0106
692.1208	-0.0118
692.303	0.0092
692.4852	0.002
692.6673	0.0003
692.8495	0.0137
693.0316	0.0041
693.2137	0.0186
693.3958	0.0076
693.5778	-0.0034
693.7599	0.0011
693.9419	-0.0058
694.1239	0.0015
694.3059	0.0014
694.4879	-0.0129
694.6699	-0.0188
694.8518	0.0095
695.0337	0.0022
695.2157	0.0151
695.3975	-0.022
695.5794	-0.0116
695.7613	-0.0081
695.9431	-0.0116
696.1249	0.0121
696.3067	-0.0108
696.4885	0.0316
696.6703	0.0021
696.852	0.0173
697.0337	0.0144
697.2154	0.004
697.3971	-0.0108
697.5788	0.0121
697.7605	-0.0026
697.9421	0.0153
698.1237	0.007
698.3053	0.0051
698.4869	0.0133
698.6685	-0.0299
698.85	-0.0068
699.0315	-0.0271
699.213	0.0112
699.3945	0.0021
699.576	0.0252
699.7575	0.0213
699.9389	-0.0072
700.1203	0.009
700.3017	0.0021
700.4831	0.0394
700.6645	0.0476
700.8458	-0.0003
701.0271	0.0331
701.2084	-0.0103
701.3897	-0.0102
701.571	-0.0089
701.7523	-0.0254
701.9335	0.0243
702.1147	0.0075
702.2959	-0.0108
702.4771	-0.0099
702.6583	0.0129
702.8394	-0.0165
703.0205	0.0179
703.2016	-0.0155
703.3827	0.0036
703.5638	0.0147
703.7449	0.0081
703.9259	-0.006
704.1069	-0.0136
704.2879	-0.01
704.4689	-0.009
704.6499	0.0254
704.8308	-0.01
705.0117	0.0089
705.1927	-0.0023
705.3735	-0.0061
705.5544	0.0051
705.7353	0.0185
705.9161	-0.0058
706.0969	0.0038
706.2777	0.0129
706.4585	0.0024
706.6393	0.0154
706.82	0.0123
707.0007	-0.0006
707.1815	0.0018
707.3621	0.0105
707.5428	0.0085
707.7235	-0.01
707.9041	-0.001
708.0847	0.0138
708.2653	0.0225
708.4459	-0.0168
708.6265	-0.0421
708.807	-0.0108
708.9875	0.0082
709.168	-0.0128
709.3485	0.0243
709.529	0.0159
709.7095	-0.0214
709.8899	0.0157
710.0703	-0.003
710.2507	-0.0088
710.4311	-0.011
710.6115	0.0242
710.7918	0.025
710.9721	0.0018
711.1524	-0.0047
711.3327	0.0044
711.513	0.0049
711.6932	-0.002
711.8735	0.0192
712.0537	-0.0084
712.2339	-0.0039
712.4141	0.0287
712.5942	-0.0171
712.7744	0.0173
712.9545	0.0143
713.1346	0.0016
713.3147	0.0147
713.4947	0.0028
713.6748	-0.0013
713.8548	0.028
714.0348	0.0092
714.2148	0.0099
714.3948	0.0102
714.5748	0.003
714.7547	0.0029
714.9346	0.0136
715.1145	0.0085
715.2944	-0.0184
715.4743	0.0005
715.6541	-0.0208
715.834	0.0242
716.0138	0.0171
716.1936	-0.0201
716.3733	-0.0247
716.5531	0.0018
716.7328	0.0329
716.9126	-0.0205
717.0923	-0.0286
717.2719	0.0093
717.4516	-0.0085
717.6312	-0.0015
717.8109	0.0285
717.9905	0.0114
718.1701	0.0143
718.3496	0.0068
718.5292	-0.0059
718.7087	-0.0153
718.8882	0.0301
719.0677	-0.0025
719.2472	-0.0245
719.4267	-0.0123
719.6061	0.0092
719.7856	0.0334
719.965	-0.0284
720.1443	0.0021
720.3237	0.0085
720.5031	0.0047
720.6824	0.007
720.8617	0.0096
721.041	0.0414
721.2203	-0.0185
721.3995	-0.0179
721.5788	0.0029
721.758	-0.011
721.9372	0.0174
722.1164	-0.0059
722.2956	-0.0137
722.4747	0.0107
722.6538	-0.0069
722.8329	0.0136
723.012	0.0197
723.1911	-0.0214
723.3702	0.0146
723.5492	0.0248
723.7282	-0.0245
723.9072	0.0139
724.0862	0.0001
724.2652	-0.0224
724.4441	0.0108
724.623	0.0126
724.8019	0.0146
724.9808	0.0154
725.1597	0.0199
725.3385	0.0052
725.5174	0.0086
725.6962	0.0268
725.875	0.0323
726.0538	0.0018
726.2325	0.0017
726.4112	-0.0225
726.59	-0.0037
726.7687	-0.0036
726.9474	0.007
727.126	0.0251
727.3047	-0.0119
727.4833	-0.0129
727.6619	0.0012
727.8405	0.0015
728.0191	0.0141
728.1976	0.0033
728.3762	0.014
728.5547	-0.0068
728.7332	0.0551
728.9116	0.0076
729.0901	-0.0099
729.2686	0.001
729.447	-0.0164
729.6254	0.0131
729.8038	0.0048
729.9821	-0.0105
730.1605	-0.0059
730.3388	0.0032
730.5171	0.0093
730.6954	-0.0236
730.8737	-0.0087
731.0519	-0.0232
731.2302	0.0234
731.4084	0.0079
731.5866	-0.0002
731.7648	-0.0126
731.9429	0.043
732.1211	-0.019
732.2992	0.0268
732.4773	0.0119
732.6554	0.0049
732.8335	0.0064
733.0115	-0.0132
733.1896	0.003
733.3676	0.0309
733.5456	-0.0087
733.7235	-0.003
733.9015	0.0051
734.0794	0.0014
734.2574	-0.0086
734.4353	0.0104
734.6131	0.0065
734.791	-0.0063
734.9689	-0.0293
735.1467	-0.0103
735.3245	-0.0034
735.5023	0.0041
735.68	0.0042
735.8578	0.0112
736.0355	0.0188
736.2132	0.0003
736.3909	-0.0036
736.5686	0.0009
736.7463	-0.0038
736.9239	0.024
737.1015	-0.0017
737.2791	-0.0015
737.4567	0.0219
737.6343	-0.0045
737.8118	0.0129
737.9894	0.0033
738.1669	0.0071
738.3444	0.031
738.5218	-0.0117
738.6993	0.0226
738.8767	0.0031
739.0541	-0.0081
739.2315	-0.0226
739.4089	0.0212
739.5863	-0.0152
739.7636	0.0022
739.9409	-0.01
740.1182	-0.0098
740.2955	0.0115
740.4728	-0.0169
740.65	-0.0105
740.8272	0.0131
741.0044	-0.03
741.1816	0.0187
741.3588	-0.002
741.5359	0.0006
741.7131	-0.0091
741.8902	-0.0077
742.0673	-0.0224
742.2444	0.031
742.4214	0.0364
742.5985	-0.0206
742.7755	-0.0135
742.9525	-0.0455
743.1295	0.0052
743.3064	-0.0085
743.4834	0.0102
743.6603	0.031
743.8372	-0.0329
744.0141	0.0421
744.191	0.0091
744.3678	-0.0337
744.5446	-0.0021
744.7215	0.0132
744.8982	-0.004
745.075	0.0326
745.2518	0.001
745.4285	0.0149
745.6052	-0.0181
745.7819	0.0062
745.9586	0.0143
746.1353	0.0324
746.3119	0.0111
746.4885	0.0031
746.6651	-0.0067
746.8417	0.0035
747.0183	0.0363
747.1948	0.0133
747.3714	0.0039
747.5479	-0.0215
747.7244	0.0047
747.9008	0.0166
748.0773	0.0235
748.2537	-0.014
748.4301	0.007
748.6065	-0.0159
748.7829	-0.0278
748.9593	0.0005
749.1356	0.0004
749.3119	-0.004
749.4882	0.0318
749.6645	-0.0115
749.8408	0.0219
750.017	0.009
750.1933	-0.0119
750.3695	0.012
750.5457	-0.0233
750.7218	0.0055
750.898	-0.0112
751.0741	0.0033
751.2502	0.0063
751.4263	-0.0009
751.6024	0.0179
751.7784	0.0089
751.9545	-0.0039
752.1305	0.0163
752.3065	0.0155
752.4825	-0.0244
752.6584	-0.0171
752.8344	-0.0017
753.0103	-0.013
753.1862	0.0201
753.3621	-0.0144
753.5379	-0.0183
753.7138	0.0076
753.8896	-0.0003
754.0654	0.0086
754.2412	0.0081
754.417	0.0271
754.5927	0.0011
754.7685	0.0045
754.9442	0.0152
755.1199	0.0044
755.2956	0.0124
755.4712	-0.0105
755.6469	0.0114
755.8225	-0.0044
755.9981	-0.002
756.1736	0.0025
756.3492	-0.0096
756.5248	0.0216
756.7003	0.0062
756.8758	0.0139
757.0513	-0.0034
757.2267	0.0043
757.4022	-0.0072
757.5776	0.0033
757.753	0.0135
757.9284	-0.0031
758.1038	0.0283
758.2791	0.0355
758.4545	-0.0174
758.6298	0.0084
758.8051	0.0177
758.9803	0.0039
759.1556	-0.0069
759.3308	0.0136
759.506	-0.01
759.6812	-0.0082
759.8564	-0.0041
760.0316	-0.015
760.2067	0.0189
760.3819	-0.0022
760.557	-0.0046
760.732	-0.0062
760.9071	0.0241
761.0821	-0.016
761.2572	0.0127
761.4322	0.0154
761.6072	-0.0053
761.7821	-0.0113
761.9571	-0.0102
762.132	0.0121
762.3069	0.0098
762.4818	0.0016
762.6567	0.0135
762.8316	0.025
763.0064	0.0102
763.1812	0.0151
763.356	-0.0144
763.5308	0.041
763.7055	-0.0058
763.8803	-0.0226
764.055	0.0034
764.2297	0.0055
764.4044	-0.008
764.579	-0.017
764.7537	-0.0011
764.9283	0.0193
765.1029	0.0143
765.2775	0.013
765.4521	0.0109
765.6266	-0.0155
765.8011	0.0062
765.9756	0.0026
766.1501	0.0014
766.3246	0.0107
766.4991	0.0025
766.6735	0.0469
766.8479	0.0254
767.0223	-0.0031
767.1967	0.0093
767.371	0.0148
767.5454	0.0091
767.7197	-0.0011
767.894	-0.0153
768.0683	-0.0021
768.2425	0.0043
768.4168	0.0011
768.591	-0.0096
768.7652	0.0143
768.9394	-0.0187
769.1135	0.0036
769.2877	0.0198
769.4618	0.0518
769.6359	-0.0045
769.81	0.0285
769.984	-0.0183
770.1581	0.0243
770.3321	0.0285
770.5061	-0.0323
770.6801	-0.0022
770.8541	0.0116
771.028	0.0418
771.202	0.0344
771.3759	0.0123
771.5498	-0.0045
771.7236	-0.0092
771.8975	0.0347
772.0713	0.0033
772.2451	0.007
772.4189	-0.018
772.5927	-0.0321
772.7665	-0.0107
772.9402	-0.0183
773.1139	-0.0323
773.2876	-0.0219
773.4613	0.0299
773.635	0.0312
773.8086	0.0268
773.9822	0.0236
774.1558	0.0443
774.3294	-0.0185
774.503	0.0142
774.6765	-0.0139
774.8501	-0.0218
775.0236	0.0181
775.1971	-0.0074
775.3705	-0.0014
775.544	-0.0157
775.7174	0.0237
775.8908	-0.0334
776.0642	-0.0087
776.2376	0.0486
776.4109	0.0231
776.5843	0.0145
776.7576	0.0336
776.9309	0.0121
777.1041	-0.0428
777.2774	0.0077
777.4506	-0.0133
777.6238	0.0029
777.797	0.0037
777.9702	0.0068
778.1434	0.0191
778.3165	-0.006
778.4896	-0.0565
778.6627	0.0113
778.8358	-0.005
779.0089	-0.0181
779.1819	0.0295
779.3549	0.0313
779.5279	-0.0407
779.7009	0.0414
779.8739	0.0336
780.0468	-0.0238
780.2197	0.0096
780.3926	-0.0344
780.5655	0.0159
780.7384	-0.004
780.9112	0.0139
781.0841	0.0024
781.2569	0.0065
781.4297	0.0074
781.6024	0.0352
781.7752	0.0427
781.9479	0.0588
782.1206	0.0114
782.2933	-0.0077
782.466	-0.0252
782.6386	-0.0161
782.8113	-0.023
782.9839	0.0084
783.1565	0.0096
783.329	-0.0062
783.5016	0.0099
783.6741	0.0026
783.8466	0.0373
784.0191	-0.0212
784.1916	0.022
784.3641	-0.0247
784.5365	0.0079
784.7089	-0.0162
784.8813	0.0403
785.0537	0.027
785.2261	-0.0264
785.3984	-0.0285
785.5707	0.0214
785.743	0.024
785.9153	0.0099
786.0876	-0.0177
786.2598	-0.0174
786.432	-0.0043
786.6042	0.0414
786.7764	-0.0402
786.9486	-0.0408
787.1207	0.0089
787.2928	0.0398
787.4649	0.0034
787.637	-0.0194
787.8091	0.0043
787.9811	0.0584
788.1532	-0.0027
788.3252	-0.0102
788.4972	-0.0176
788.6691	-0.0022
788.8411	-0.0046
789.013	-0.0104
789.1849	-0.028
789.3568	-0.0228
789.5287	0.0356
789.7005	-0.0548
789.8723	-0.0252
790.0442	0.0217
790.2159	-0.017
790.3877	0.0461
790.5595	-0.011
790.7312	0.0083
790.9029	-0.0436
791.0746	0.0212
791.2463	-0.0055
791.4179	0.0003
791.5896	0.0142
791.7612	0.0124
791.9328	0.0041
792.1044	-0.0098
792.2759	-0.0555
792.4474	-0.0055
792.619	-0.045
792.7905	0.0142
792.9619	0.096
793.1334	0.0352
793.3048	0.0095
793.4762	-0.0006
793.6476	-0.0259
793.819	-0.0374
793.9904	-0.0077
794.1617	-0.0115
794.333	-0.0102
794.5043	0.0183
794.6756	0.0202
794.8469	-0.0172
795.0181	0.0149
795.1893	0.0291
795.3605	0.0279
795.5317	-0.0177
795.7029	0.0182
795.874	-0.0313
796.0452	-0.0078
796.2163	0.0632
796.3873	0.0515
796.5584	0.0699
796.7294	0.0125
796.9005	-0.0388
797.0715	-0.0431
797.2425	0.0771
797.4134	0.0821
797.5844	0.0232
797.7553	-0.0927
797.9262	0.0887
798.0971	0.027
798.2679	-0.0346
798.4388	0.0222
798.6096	-0.0375
798.7804	-0.0117
798.9512	-0.0451
799.122	-0.021
799.2927	0.0701
799.4635	-0.0707
799.6342	-0.0868
799.8049	0.0298
799.9755	-0.0644
800.1462	0.0227
800.3168	-0.0301
800.4874	-0.0739
800.658	0.0247
800.8286	-0.0073
800.9991	0.023
801.1696	-0.0278
801.3402	-0.021
801.5106	-0.1418
801.6811	-0.0013
801.8516	0.0319
802.022	-0.0144
802.1924	-0.0827
802.3628	-0.0407
802.5332	0.034
802.7035	0.0367
802.8739	-0.0185
803.0442	-0.0033
803.2145	-0.0446
803.3847	-0.0266
803.555	0.0397
803.7252	-0.0514
803.8954	-0.0204
804.0656	-0.0602
804.2358	-0.0329
804.4059	0.1441
804.5761	0.0592
804.7462	-0.0328
804.9163	-0.0074
805.0864	-0.0363
805.2564	-0.0393
805.4264	0.0155
805.5965	0.0355
805.7665	0.0065
805.9364	-0.0591
806.1064	-0.0124
806.2763	0.0195
806.4462	0.0021
806.6161	0.0037
806.786	0.04
806.9559	-0.016
807.1257	0.0084
807.2955	-0.0141
807.4653	-0.0044
807.6351	0.0536
807.8048	0.0058
807.9746	-0.0262
808.1443	-0.0506
808.314	-0.018
808.4837	0.0779
808.6533	-0.0414
808.8229	-0.0278
808.9926	-0.0131
809.1622	0.0344
809.3317	-0.0838
809.5013	-0.0313
809.6708	0.0279
809.8403	-0.0263
810.0098	0.0453
810.1793	-0.0016
810.3488	-0.0311
810.5182	0.1131
810.6876	0.0742
810.857	0.0186
811.0264	-0.1041
811.1958	0.0776
811.3651	-0.0018
811.5344	0.0596
811.7037	0.0768
811.873	0.0299
812.0422	-0.103
812.2115	-0.0064
812.3807	-0.103
812.5499	0.0896
812.7191	0.0052
812.8882	-0.1286
813.0574	-0.0779
813.2265	0.0007
813.3956	-0.0238
813.5646	-0.0447
813.7337	-0.0373
813.9027	-0.0589
814.0718	0.006
814.2407	0.0303
814.4097	0.0723
814.5787	0.0633
814.7476	-0.0237
814.9165	-0.0026
815.0854	-0.0376
815.2543	-0.0041
815.4232	0.1252
815.592	-0.0471
815.7608	-0.0486
815.9296	-0.0021
816.0984	0.0653
816.2671	-0.1338
816.4359	0.0109
816.6046	-0.0563
816.7733	0.0676
816.942	-0.0841
817.1106	-0.0261
817.2793	-0.005
817.4479	0.0248
817.6165	0.0099
817.785	0.0769
817.9536	-0.0473
818.1221	-0.0446
818.2906	-0.1288
818.4591	0.0305
818.6276	-0.0138
818.7961	0.0137
818.9645	0.0242
819.1329	0.2802
819.3013	-0.0329
819.4697	-0.0919
819.638	0.0487
819.8064	-0.0517
819.9747	0.0141
820.143	-0.1916
820.3113	0.1275
820.4795	-0.0232
820.6477	0.1571
820.816	0.3193
820.9842	0.1619
821.1523	0.022
821.3205	-0.0174
821.4886	-0.0254
821.6567	-0.0319
821.8248	0.0993
821.9929	-0.1102
822.1609	-0.0528
822.329	-0.0972
822.497	0.0392
822.665	0.0008
822.833	-0.0588
823.0009	0.0993
823.1688	0.0011
823.3367	-0.0747
823.5046	0.098
823.6725	0.0605
823.8404	-0.0572
824.0082	-0.1316
824.176	-0.0418
824.3438	0.0355
824.5116	-0.0728
824.6793	0.2192
824.847	-0.1621
825.0147	-0.0041
825.1824	0.0254
825.3501	0.1092
825.5177	-0.1123
825.6854	-0.1809
825.853	-0.1484
826.0206	-0.1675
826.1881	0.012
826.3557	0.0577
826.5232	0.0384
826.6907	0.0298
826.8582	-0.1434
827.0257	0.0568
827.1931	0.0322
827.3605	-0.0104
827.528	-0.075
827.6953	-0.3065
827.8627	-0.0696
828.03	-0.0445
828.1974	0.0394
828.3647	0.0463
828.532	0.0008
828.6992	0.0746
828.8665	-0.0758
829.0337	0.0975
829.2009	-0.1334
829.3681	-0.0642
829.5352	-0.3856
829.7024	-0.0562
829.8695	0.0664
830.0366	0.1808
830.2037	0.0933
830.3707	0.0569
830.5378	-0.1189
830.7048	-0.1056
830.8718	0.2292
831.0388	-0.0144
831.2057	0.1395
831.3727	-0.1346
831.5396	0.1305
831.7065	-0.7669
831.8734	0.0341
832.0402	0.099
832.2071	-0.1492
832.3739	-0.1909
832.5407	-1.9848
832.7075	-0.4943
832.8742	0.3881
833.041	0.3638
833.2077	0.3065
833.3744	0.145
833.541	-0.0259
833.7077	-0.1275
833.8743	-0.0195
834.0409	0.1131
834.2075	0.0585
834.3741	0.0387
834.5407	-0.0355
834.7072	-0.0988
834.8737	0.2449
835.0402	0.2891
835.2067	0.0291
835.3731	-0.1777
835.5395	-0.0799
835.706	0.5043
835.8723	-0.0216
836.0387	-0.0459
836.2051	-0.2021
836.3714	0.0929
836.5377	-0.0646
836.704	0.092
836.8703	-0.1605
837.0365	-0.8133
837.2027	-0.1101
837.3689	0.2481
837.5351	0.3005
837.7013	0.0557
837.8674	-0.5233
838.0335	0.0227
838.1997	0.0653
838.3657	-0
838.5318	-0
838.6978	0.1773
838.8639	-0.1514
839.0299	0.0086
839.1958	-0.0342
839.3618	-0.214
839.5277	0.0211
839.6937	0.1516
839.8596	-0.2068
840.0254	-0.1408
840.1913	-0.2462
840.3571	-0.3117
840.523	-0
840.6888	-0.2281
840.8545	-0.5204
841.0203	0.077
841.186	-0.1317
841.3517	-0.2201
841.5174	0.0576
841.6831	-0.0419
841.8488	0.1177
842.0144	0.0024
842.18	0.4705
842.3456	-0.8608
842.5112	-0
842.6767	0.1356
842.8422	-0.3664
843.0077	-0.0313
843.1732	-0.6611
843.3387	0.2999
843.5042	-0
843.6696	0.1698
843.835	-0.2041
844.0004	-0.1859
844.1657	-0.9861
844.3311	-0.1364
844.4964	-0.4525
844.6617	-0.0054
844.827	-0
844.9923	0.0473
845.1575	0.2991
845.3227	-0.3763
845.4879	-0.4376
845.6531	-0.0495
845.8183	0.0023
845.9834	-0
846.1485	-0.0706
846.3136	-0.2197
846.4787	-0
846.6438	0.7114
846.8088	-0
846.9738	-0
847.1388	-0.1563
847.3038	-0.1852
847.4687	-0
847.6337	-0.3791
847.7986	-0.2415
847.9635	0.322
848.1284	-0
848.2932	0.6539
848.458	-0
848.6228	-0.0931
848.7876	-0
848.9524	-0
849.1172	-2.1053
849.2819	-0
849.4466	0.1278
849.6113	0.233
849.7759	-0.6021
849.9406	-0.0449
850.1052	-1.3952
850.2698	0.2129
850.4344	-0.5063
850.599	0.2864
850.7635	-0.039
850.928	0.1068
851.0925	0.3623
851.257	0.4988
851.4215	-0
851.5859	-0.0382
851.7503	-0
851.9147	-0.1444
852.0791	-0.1954
852.2434	0.2398
852.4078	-0
852.5721	0.3095
852.7364	-0.2028
852.9007	-0.1874
853.0649	-0
853.2291	0.5119
853.3934	-0
853.5575	-0.351
853.7217	0.7648
853.8859	0.6566
854.05	-0.4653
854.2141	0.2655
854.3782	-0.469
854.5423	-0.4113
854.7063	0.2477
854.8703	0.2
855.0343	-0.1111
855.1983	-0.1956
855.3623	-0.0145
855.5262	-0
855.6901	0.7637
855.854	0.1084
856.0179	-0.1197
856.1818	0.6791
856.3456	0.2483
856.5094	-0
856.6732	-0.7116
856.837	-1.2246
857.0008	-0.252
857.1645	-0.2438
857.3282	-0.1851
857.4919	0.2776
857.6556	-0.6376
857.8192	-0.2371
857.9828	-0.1644
858.1465	0.4718
858.31	-0
858.4736	-0.1179
858.6372	-0.1982
858.8007	-0.1363
858.9642	0.2517
859.1277	1.1076
859.2911	-0.6225
859.4546	-0
859.618	-0.006
859.7814	-0.1212
859.9448	-0
860.1081	-0
860.2715	-0.359
860.4348	-0.0902
860.5981	0.2394
860.7614	-0.5628
860.9246	-0
861.0879	-0.2418
861.2511	-0
861.4143	-0.4638
861.5774	-0
861.7406	-0.2262
861.9037	-0.2515
862.0668	-0.6679
862.2299	-0.1807
862.393	-0
862.556	-0
862.7191	-0.5343
862.8821	0.0988
863.0451	-0.2962
863.208	-0
863.371	-0.5186
863.5339	0.7877
863.6968	0.8067
863.8597	0.5558
864.0225	-0.0545
864.1854	0.2557
864.3482	-0
864.511	-0.1601
864.6737	-0
864.8365	0.3091
864.9992	-0
865.1619	-0
865.3246	-2.1099
865.4873	-0.7669
865.65	-0
865.8126	0.7114
865.9752	0.0824
866.1378	0.2842
866.3004	-0.3172
866.4629	-1.8905
866.6254	-0.0925
866.7879	-0.2921
866.9504	0.0325
867.1129	-0.3964
867.2753	-0.0393
867.4377	-0.3023
867.6001	-0
867.7625	0.0746
867.9249	-0
868.0872	0.243
868.2495	-0
868.4118	-0
868.5741	-0.3052
868.7363	-0
868.8986	-0.0127
869.0608	-0.2617
869.223	-0.1533
869.3851	0.2012
869.5473	-0.0976
869.7094	-0
869.8715	-0.709
870.0336	0.0662
870.1957	-0.9084
870.3577	0.0262
870.5197	-0.0403
870.6817	-0.8747
870.8437	-0.5354
871.0057	-0
871.1676	0.4377
871.3295	0.6101
871.4914	-0
871.6533	-0
871.8151	0.4312
871.977	-0.2747
872.1388	-0.1286
872.3006	-0.4723
872.4623	-0.0469
872.6241	0.2295
872.7858	-0.2878
872.9475	-0
873.1092	-0.2913
873.2709	-0
873.4325	-2.2087
873.5941	-0.4612
873.7557	0.501
873.9173	-0
874.0789	-0.0055
874.2404	-0
874.4019	-0.1357
874.5634	-0
874.7249	-0.1948
874.8863	-0
875.0478	-0.2221
875.2092	0.2348
875.3706	0.0153
875.5319	-0
875.6933	-0
875.8546	0.4369
876.0159	0.2567
876.1772	0.3447
876.3385	0.0552
876.4997	-0.2435
876.6609	0.0863
876.8221	0.7298
876.9833	-0.0236
877.1445	0.0089
877.3056	-1.2345
877.4667	-0.6614
877.6278	-0
877.7889	-0.0217
877.9499	0.017
878.111	-0.6644
878.272	-0.244
878.433	-0.1877
878.5939	-0.4565
878.7549	-0.474
878.9158	-0
879.0767	-0
879.2376	-0.3039
879.3984	0.2196
879.5593	1.3133
879.7201	-1.9691
879.8809	-0.217
880.0417	-0.2068
880.2024	0.0939
880.3632	-0.5418
880.5239	0.4084
880.6846	0.132
880.8452	0.855
881.0059	-0.6422
881.1665	0.1709
881.3271	0.3165
881.4877	-0.0994
881.6483	-0.413
881.8088	-0
881.9693	-0.9844
882.1298	-0.9844
882.2903	-0.9844
