Data from D4ACN5uM440nmA_Absorbance_13-50-26-227.txt Node
Date: Fri Feb 21 13:50:26 GMT 2025
User: LASERRRRR
Spectrometer: FLMT03099
Trigger mode: 0
Integration Time (sec): 1.500000E-2
Scans to average: 1
Electric dark correction enabled: true
Nonlinearity correction enabled: false
Boxcar width: 0
XAxis mode: Wavelengths
Number of Pixels in Spectrum: 3648
>>>>>Begin Spectral Data<<<<<
179.3399	-0.6138
179.5586	-0.6138
179.7771	-0.6138
179.9957	-0.0606
180.2143	-1.1461
180.4329	0.1406
180.6514	-0.673
180.8699	-0
181.0885	-0
181.307	-0.018
181.5255	0.3032
181.744	0.5654
181.9625	0.2546
182.181	0.0519
182.3994	-0.4828
182.6179	0.08
182.8363	-0.3486
183.0547	0.6179
183.2732	0.3433
183.4916	0.4098
183.71	0.3379
183.9284	-0.0516
184.1467	0.4287
184.3651	-0.043
184.5835	0.198
184.8018	0.0169
185.0201	0.0744
185.2385	0.278
185.4568	0.0957
185.6751	0.149
185.8934	0.3166
186.1117	0.0141
186.3299	0.129
186.5482	0.1026
186.7664	0.0414
186.9847	0.1251
187.2029	0.239
187.4211	0.0015
187.6393	-0.0143
187.8575	0.2083
188.0757	0.3949
188.2939	0.0379
188.512	0.4303
188.7302	0.1425
188.9483	0.4477
189.1665	0.2218
189.3846	0.0941
189.6027	0.1703
189.8208	0.196
190.0389	0.1488
190.257	0.1676
190.475	0.1263
190.6931	0.2004
190.9111	0.0602
191.1292	0.0518
191.3472	0.1828
191.5652	0.2482
191.7832	0.1843
192.0012	0.1363
192.2192	0.3465
192.4371	0.1118
192.6551	0.2178
192.873	0.2344
193.091	0.2029
193.3089	0.2767
193.5268	0.3014
193.7447	0.1735
193.9626	0.1991
194.1805	0.1923
194.3984	0.156
194.6162	0.2835
194.8341	0.3317
195.0519	0.2193
195.2697	0.3516
195.4875	0.4323
195.7054	0.2918
195.9231	0.2062
196.1409	0.3965
196.3587	0.3423
196.5765	0.2527
196.7942	0.3293
197.012	0.3157
197.2297	0.3414
197.4474	0.4165
197.6651	0.3285
197.8828	0.3095
198.1005	0.4558
198.3182	0.3493
198.5358	0.3408
198.7535	0.379
198.9711	0.3527
199.1888	0.3541
199.4064	0.3782
199.624	0.3905
199.8416	0.3618
200.0592	0.4303
200.2767	0.4295
200.4943	0.423
200.7119	0.3972
200.9294	0.4407
201.1469	0.3802
201.3645	0.4757
201.582	0.3805
201.7995	0.3946
202.017	0.3733
202.2344	0.4182
202.4519	0.3958
202.6694	0.3976
202.8868	0.3835
203.1042	0.4116
203.3217	0.3947
203.5391	0.3777
203.7565	0.374
203.9739	0.3697
204.1913	0.3244
204.4086	0.345
204.626	0.3572
204.8433	0.3454
205.0607	0.3599
205.278	0.3163
205.4953	0.3547
205.7126	0.337
205.9299	0.3393
206.1472	0.3354
206.3644	0.3297
206.5817	0.3207
206.7989	0.333
207.0162	0.3201
207.2334	0.3196
207.4506	0.3057
207.6678	0.2884
207.885	0.309
208.1022	0.2816
208.3194	0.2833
208.5365	0.3128
208.7537	0.2721
208.9708	0.2969
209.1879	0.2962
209.405	0.2836
209.6222	0.2623
209.8392	0.3123
210.0563	0.2743
210.2734	0.2639
210.4905	0.2901
210.7075	0.2662
210.9245	0.2651
211.1416	0.2744
211.3586	0.2545
211.5756	0.2457
211.7926	0.2674
212.0096	0.2579
212.2265	0.2562
212.4435	0.2686
212.6604	0.2663
212.8774	0.2348
213.0943	0.254
213.3112	0.2488
213.5281	0.2456
213.745	0.2166
213.9619	0.2379
214.1788	0.2392
214.3956	0.2313
214.6125	0.2402
214.8293	0.2646
215.0461	0.2335
215.2629	0.2467
215.4798	0.25
215.6965	0.2511
215.9133	0.2398
216.1301	0.247
216.3469	0.2387
216.5636	0.2467
216.7803	0.2368
216.9971	0.2566
217.2138	0.2501
217.4305	0.2489
217.6472	0.2411
217.8639	0.2557
218.0805	0.2463
218.2972	0.2446
218.5138	0.2539
218.7305	0.2517
218.9471	0.2464
219.1637	0.2646
219.3803	0.2532
219.5969	0.2503
219.8135	0.2604
220.0301	0.2424
220.2466	0.2502
220.4632	0.2481
220.6797	0.2496
220.8962	0.25
221.1127	0.2605
221.3292	0.2677
221.5457	0.2681
221.7622	0.2582
221.9787	0.2743
222.1951	0.276
222.4116	0.2814
222.628	0.2816
222.8444	0.2732
223.0608	0.2717
223.2772	0.283
223.4936	0.2707
223.71	0.2933
223.9264	0.2848
224.1427	0.2805
224.3591	0.2786
224.5754	0.2898
224.7917	0.2931
225.008	0.3031
225.2243	0.2944
225.4406	0.298
225.6569	0.3049
225.8732	0.3038
226.0894	0.3132
226.3057	0.2974
226.5219	0.3006
226.7381	0.3145
226.9543	0.3062
227.1705	0.3235
227.3867	0.3201
227.6029	0.3178
227.8191	0.3307
228.0352	0.3261
228.2513	0.3496
228.4675	0.342
228.6836	0.3499
228.8997	0.3376
229.1158	0.3569
229.3319	0.3552
229.548	0.3634
229.764	0.3493
229.9801	0.3711
230.1961	0.3721
230.4121	0.3664
230.6282	0.3948
230.8442	0.3958
231.0602	0.3798
231.2761	0.3846
231.4921	0.388
231.7081	0.3954
231.924	0.4029
232.14	0.4022
232.3559	0.4008
232.5718	0.4149
232.7877	0.4037
233.0036	0.4105
233.2195	0.4134
233.4353	0.4161
233.6512	0.4171
233.867	0.4219
234.0829	0.4237
234.2987	0.4287
234.5145	0.4435
234.7303	0.4407
234.9461	0.4355
235.1619	0.4346
235.3776	0.4362
235.5934	0.4289
235.8091	0.4503
236.0249	0.4497
236.2406	0.4498
236.4563	0.4366
236.672	0.4533
236.8877	0.4396
237.1034	0.4422
237.319	0.455
237.5347	0.4482
237.7503	0.4484
237.966	0.4556
238.1816	0.4514
238.3972	0.4543
238.6128	0.4527
238.8284	0.4552
239.0439	0.462
239.2595	0.4569
239.475	0.4667
239.6906	0.4599
239.9061	0.4595
240.1216	0.4586
240.3371	0.4547
240.5526	0.4676
240.7681	0.4618
240.9836	0.4615
241.199	0.4503
241.4145	0.4494
241.6299	0.4495
241.8453	0.4373
242.0607	0.4408
242.2761	0.4353
242.4915	0.4277
242.7069	0.4188
242.9223	0.4199
243.1376	0.4063
243.353	0.4003
243.5683	0.4045
243.7836	0.3973
243.9989	0.3732
244.2142	0.3772
244.4295	0.3746
244.6448	0.3676
244.86	0.3546
245.0753	0.3491
245.2905	0.3414
245.5057	0.3487
245.721	0.3442
245.9362	0.3293
246.1514	0.3252
246.3665	0.3083
246.5817	0.3018
246.7969	0.3005
247.012	0.2941
247.2271	0.2976
247.4423	0.287
247.6574	0.2805
247.8725	0.2745
248.0876	0.273
248.3026	0.2689
248.5177	0.2548
248.7328	0.2523
248.9478	0.2532
249.1628	0.249
249.3779	0.2441
249.5929	0.2348
249.8079	0.2349
250.0228	0.2287
250.2378	0.2271
250.4528	0.2292
250.6677	0.2216
250.8827	0.2139
251.0976	0.2128
251.3125	0.2174
251.5274	0.2103
251.7423	0.2036
251.9572	0.2147
252.172	0.2017
252.3869	0.2085
252.6017	0.1994
252.8166	0.1963
253.0314	0.1979
253.2462	0.1975
253.461	0.1921
253.6758	0.1961
253.8906	0.188
254.1053	0.1985
254.3201	0.1913
254.5348	0.1891
254.7496	0.1877
254.9643	0.1919
255.179	0.1845
255.3937	0.1835
255.6083	0.1931
255.823	0.1843
256.0377	0.1816
256.2523	0.1823
256.467	0.1829
256.6816	0.1731
256.8962	0.1845
257.1108	0.1817
257.3254	0.1769
257.54	0.178
257.7545	0.1856
257.9691	0.1802
258.1836	0.1782
258.3981	0.1827
258.6127	0.1701
258.8272	0.1847
259.0417	0.1726
259.2561	0.1766
259.4706	0.1796
259.6851	0.1742
259.8995	0.173
260.114	0.1812
260.3284	0.1734
260.5428	0.1783
260.7572	0.1728
260.9716	0.1835
261.186	0.1778
261.4003	0.176
261.6147	0.1781
261.829	0.1767
262.0433	0.1723
262.2577	0.1754
262.472	0.1781
262.6863	0.1828
262.9005	0.1811
263.1148	0.1811
263.3291	0.1741
263.5433	0.1861
263.7576	0.1801
263.9718	0.1819
264.186	0.1827
264.4002	0.1808
264.6144	0.188
264.8286	0.1806
265.0427	0.1843
265.2569	0.1841
265.471	0.1889
265.6851	0.1846
265.8993	0.1851
266.1134	0.1859
266.3275	0.1841
266.5415	0.186
266.7556	0.1871
266.9697	0.1887
267.1837	0.1839
267.3978	0.1843
267.6118	0.1821
267.8258	0.1845
268.0398	0.1873
268.2538	0.1864
268.4677	0.18
268.6817	0.1827
268.8957	0.1752
269.1096	0.1759
269.3235	0.1901
269.5374	0.1822
269.7514	0.1812
269.9652	0.1784
270.1791	0.1791
270.393	0.1815
270.6068	0.1816
270.8207	0.1779
271.0345	0.1824
271.2483	0.1736
271.4622	0.1769
271.676	0.178
271.8897	0.173
272.1035	0.1841
272.3173	0.1793
272.531	0.1826
272.7448	0.1786
272.9585	0.1765
273.1722	0.1757
273.3859	0.1825
273.5996	0.1804
273.8133	0.1842
274.0269	0.1784
274.2406	0.1833
274.4542	0.1785
274.6679	0.1839
274.8815	0.1872
275.0951	0.1858
275.3087	0.1866
275.5223	0.1817
275.7358	0.1878
275.9494	0.1903
276.1629	0.1881
276.3765	0.1895
276.59	0.1813
276.8035	0.1901
277.017	0.192
277.2305	0.1948
277.444	0.1868
277.6574	0.192
277.8709	0.1954
278.0843	0.194
278.2978	0.1922
278.5112	0.1849
278.7246	0.1886
278.938	0.1909
279.1513	0.1907
279.3647	0.1909
279.5781	0.1851
279.7914	0.1864
280.0047	0.1903
280.2181	0.1826
280.4314	0.1883
280.6447	0.194
280.8579	0.1811
281.0712	0.1898
281.2845	0.1908
281.4977	0.1818
281.711	0.1828
281.9242	0.1859
282.1374	0.1931
282.3506	0.1877
282.5638	0.1864
282.7769	0.1801
282.9901	0.1857
283.2033	0.1922
283.4164	0.1844
283.6295	0.1839
283.8426	0.1826
284.0557	0.1874
284.2688	0.1835
284.4819	0.1777
284.695	0.1925
284.908	0.1837
285.1211	0.1919
285.3341	0.1843
285.5471	0.1898
285.7601	0.1843
285.9731	0.1835
286.1861	0.1903
286.3991	0.1865
286.612	0.1856
286.825	0.1974
287.0379	0.1848
287.2508	0.1858
287.4637	0.1876
287.6766	0.1891
287.8895	0.1849
288.1024	0.1865
288.3152	0.1924
288.5281	0.1846
288.7409	0.1898
288.9538	0.1872
289.1666	0.1884
289.3794	0.1804
289.5922	0.1831
289.8049	0.183
290.0177	0.1875
290.2304	0.1844
290.4432	0.1865
290.6559	0.1891
290.8686	0.189
291.0813	0.1914
291.294	0.1926
291.5067	0.1876
291.7194	0.1891
291.932	0.1849
292.1447	0.1887
292.3573	0.1882
292.5699	0.1874
292.7825	0.1863
292.9951	0.1824
293.2077	0.1885
293.4203	0.1859
293.6328	0.1865
293.8454	0.1836
294.0579	0.1875
294.2704	0.1915
294.4829	0.1838
294.6954	0.1875
294.9079	0.1838
295.1204	0.1797
295.3328	0.1874
295.5453	0.1869
295.7577	0.1877
295.9701	0.1871
296.1825	0.1877
296.3949	0.1863
296.6073	0.1836
296.8197	0.1908
297.0321	0.1875
297.2444	0.1832
297.4567	0.1916
297.6691	0.1863
297.8814	0.1852
298.0937	0.1864
298.306	0.1894
298.5182	0.1874
298.7305	0.1875
298.9428	0.1857
299.155	0.1797
299.3672	0.1805
299.5794	0.1822
299.7916	0.1881
300.0038	0.1874
300.216	0.1822
300.4282	0.1811
300.6403	0.1904
300.8525	0.1867
301.0646	0.1906
301.2767	0.1837
301.4888	0.1851
301.7009	0.1809
301.913	0.1864
302.125	0.1905
302.3371	0.1894
302.5491	0.1908
302.7612	0.193
302.9732	0.1911
303.1852	0.1858
303.3972	0.1921
303.6092	0.1889
303.8211	0.188
304.0331	0.1883
304.245	0.1831
304.457	0.185
304.6689	0.1829
304.8808	0.1835
305.0927	0.1868
305.3046	0.176
305.5164	0.1803
305.7283	0.1751
305.9401	0.1712
306.152	0.1746
306.3638	0.1779
306.5756	0.1784
306.7874	0.1673
306.9992	0.17
307.2109	0.1671
307.4227	0.1684
307.6344	0.1714
307.8462	0.1665
308.0579	0.1674
308.2696	0.1693
308.4813	0.1607
308.693	0.1581
308.9046	0.1605
309.1163	0.1644
309.328	0.1598
309.5396	0.1518
309.7512	0.1528
309.9628	0.1572
310.1744	0.1507
310.386	0.1473
310.5976	0.1488
310.8091	0.1507
311.0207	0.1493
311.2322	0.1425
311.4437	0.1451
311.6552	0.1487
311.8667	0.1478
312.0782	0.1437
312.2897	0.1409
312.5012	0.1512
312.7126	0.1413
312.924	0.1448
313.1355	0.1383
313.3469	0.1365
313.5583	0.135
313.7696	0.136
313.981	0.144
314.1924	0.1349
314.4037	0.1364
314.6151	0.1375
314.8264	0.1346
315.0377	0.1323
315.249	0.1379
315.4603	0.1317
315.6716	0.1324
315.8828	0.1323
316.0941	0.1369
316.3053	0.1281
316.5165	0.1348
316.7277	0.13
316.9389	0.1362
317.1501	0.1313
317.3613	0.1281
317.5724	0.1293
317.7836	0.1269
317.9947	0.1256
318.2058	0.1306
318.417	0.1257
318.6281	0.1334
318.8391	0.1309
319.0502	0.1263
319.2613	0.1291
319.4723	0.1271
319.6834	0.1259
319.8944	0.1324
320.1054	0.1311
320.3164	0.1243
320.5274	0.1285
320.7383	0.1299
320.9493	0.129
321.1602	0.1243
321.3712	0.1286
321.5821	0.1215
321.793	0.1321
322.0039	0.1303
322.2148	0.1288
322.4257	0.1281
322.6365	0.1264
322.8474	0.1275
323.0582	0.1323
323.269	0.1293
323.4798	0.1318
323.6906	0.1326
323.9014	0.1227
324.1122	0.1216
324.3229	0.1386
324.5337	0.1289
324.7444	0.1301
324.9551	0.1293
325.1658	0.1327
325.3765	0.1303
325.5872	0.1362
325.7979	0.1281
326.0085	0.1276
326.2192	0.1271
326.4298	0.1374
326.6404	0.137
326.851	0.1317
327.0616	0.1352
327.2722	0.134
327.4828	0.1376
327.6933	0.1413
327.9039	0.1313
328.1144	0.1363
328.3249	0.1403
328.5354	0.1376
328.7459	0.1391
328.9564	0.1402
329.1669	0.1447
329.3773	0.1353
329.5878	0.1341
329.7982	0.1364
330.0086	0.1443
330.219	0.1335
330.4294	0.1422
330.6398	0.1486
330.8502	0.1473
331.0605	0.1373
331.2708	0.1338
331.4812	0.1392
331.6915	0.1414
331.9018	0.1362
332.1121	0.1487
332.3224	0.1468
332.5326	0.1346
332.7429	0.1434
332.9531	0.1431
333.1633	0.1358
333.3735	0.1412
333.5837	0.1423
333.7939	0.1434
334.0041	0.1433
334.2143	0.1375
334.4244	0.1475
334.6346	0.1383
334.8447	0.1404
335.0548	0.1467
335.2649	0.1449
335.475	0.1479
335.685	0.1454
335.8951	0.1385
336.1051	0.151
336.3152	0.1514
336.5252	0.1434
336.7352	0.1411
336.9452	0.1395
337.1552	0.1417
337.3652	0.1399
337.5751	0.1403
337.7851	0.1406
337.995	0.1427
338.2049	0.1402
338.4148	0.146
338.6247	0.1486
338.8346	0.1418
339.0445	0.1402
339.2543	0.1493
339.4642	0.1441
339.674	0.1452
339.8838	0.1462
340.0936	0.1538
340.3034	0.1422
340.5132	0.146
340.7229	0.1483
340.9327	0.1582
341.1424	0.1478
341.3522	0.1451
341.5619	0.1499
341.7716	0.1539
341.9813	0.1505
342.1909	0.1529
342.4006	0.1566
342.6102	0.1519
342.8199	0.1485
343.0295	0.1567
343.2391	0.1521
343.4487	0.1564
343.6583	0.1644
343.8679	0.1553
344.0774	0.1498
344.287	0.1596
344.4965	0.1592
344.706	0.1615
344.9155	0.1579
345.125	0.1591
345.3345	0.171
345.544	0.1615
345.7534	0.1647
345.9629	0.1628
346.1723	0.1663
346.3817	0.1613
346.5911	0.1721
346.8005	0.1709
347.0099	0.1678
347.2193	0.1755
347.4286	0.1742
347.638	0.1675
347.8473	0.1738
348.0566	0.174
348.2659	0.1788
348.4752	0.1723
348.6845	0.1729
348.8937	0.1716
349.103	0.1669
349.3122	0.1791
349.5214	0.1797
349.7306	0.1824
349.9398	0.173
350.149	0.1717
350.3582	0.1746
350.5674	0.1776
350.7765	0.1845
350.9856	0.1806
351.1948	0.1766
351.4039	0.184
351.613	0.1853
351.822	0.1859
352.0311	0.1788
352.2402	0.1799
352.4492	0.1805
352.6582	0.1812
352.8672	0.1839
353.0762	0.1825
353.2852	0.1814
353.4942	0.1849
353.7032	0.1827
353.9121	0.1806
354.1211	0.1854
354.33	0.1837
354.5389	0.182
354.7478	0.1802
354.9567	0.1855
355.1655	0.1789
355.3744	0.1839
355.5833	0.1821
355.7921	0.1905
356.0009	0.1821
356.2097	0.1788
356.4185	0.1853
356.6273	0.1838
356.8361	0.186
357.0448	0.1884
357.2536	0.1861
357.4623	0.1864
357.671	0.1824
357.8797	0.1867
358.0884	0.1845
358.2971	0.1913
358.5057	0.1883
358.7144	0.1866
358.923	0.1918
359.1316	0.1917
359.3402	0.1856
359.5488	0.1829
359.7574	0.1976
359.966	0.1928
360.1746	0.195
360.3831	0.1953
360.5916	0.1993
360.8002	0.1981
361.0087	0.1998
361.2172	0.2044
361.4256	0.2006
361.6341	0.1985
361.8426	0.1939
362.051	0.2058
362.2594	0.1969
362.4678	0.2033
362.6762	0.2036
362.8846	0.2103
363.093	0.2037
363.3014	0.2173
363.5097	0.2154
363.718	0.2142
363.9264	0.2137
364.1347	0.2104
364.343	0.2153
364.5513	0.2122
364.7595	0.2131
364.9678	0.2117
365.176	0.2152
365.3842	0.2172
365.5925	0.2119
365.8007	0.2193
366.0089	0.2221
366.217	0.2266
366.4252	0.2242
366.6333	0.2232
366.8415	0.2259
367.0496	0.2181
367.2577	0.2283
367.4658	0.2185
367.6739	0.2236
367.882	0.2331
368.09	0.2263
368.2981	0.2336
368.5061	0.2292
368.7141	0.2232
368.9221	0.2416
369.1301	0.2333
369.3381	0.2418
369.5461	0.2344
369.754	0.2303
369.962	0.2278
370.1699	0.2352
370.3778	0.241
370.5857	0.2336
370.7936	0.2363
371.0015	0.2337
371.2093	0.2398
371.4172	0.2356
371.625	0.2448
371.8328	0.2346
372.0406	0.2505
372.2484	0.239
372.4562	0.2445
372.664	0.2482
372.8717	0.2402
373.0795	0.257
373.2872	0.2474
373.4949	0.2474
373.7026	0.2471
373.9103	0.2487
374.118	0.2491
374.3256	0.2544
374.5333	0.2458
374.7409	0.2486
374.9485	0.245
375.1561	0.2511
375.3637	0.2484
375.5713	0.2588
375.7789	0.2542
375.9864	0.2546
376.194	0.2621
376.4015	0.2584
376.609	0.2517
376.8165	0.2667
377.024	0.25
377.2315	0.2657
377.4389	0.2548
377.6464	0.2608
377.8538	0.2564
378.0612	0.2633
378.2686	0.263
378.476	0.2649
378.6834	0.2596
378.8908	0.267
379.0981	0.2589
379.3055	0.2703
379.5128	0.2578
379.7201	0.2688
379.9274	0.2665
380.1347	0.266
380.342	0.2726
380.5492	0.2671
380.7565	0.2703
380.9637	0.277
381.1709	0.2657
381.3781	0.2736
381.5853	0.2682
381.7925	0.2668
381.9997	0.2707
382.2068	0.2769
382.4139	0.2704
382.6211	0.2763
382.8282	0.2875
383.0353	0.2749
383.2424	0.2798
383.4494	0.2784
383.6565	0.2787
383.8635	0.2694
384.0706	0.2852
384.2776	0.2721
384.4846	0.2879
384.6916	0.276
384.8986	0.2713
385.1055	0.2849
385.3125	0.2821
385.5194	0.2794
385.7263	0.2771
385.9333	0.2807
386.1402	0.2776
386.347	0.2711
386.5539	0.2901
386.7608	0.2778
386.9676	0.2795
387.1744	0.2793
387.3813	0.277
387.5881	0.2731
387.7948	0.2819
388.0016	0.2858
388.2084	0.2816
388.4151	0.283
388.6219	0.2678
388.8286	0.278
389.0353	0.2852
389.242	0.286
389.4487	0.2774
389.6553	0.2625
389.862	0.2724
390.0686	0.2787
390.2753	0.272
390.4819	0.2805
390.6885	0.2756
390.8951	0.2774
391.1016	0.2674
391.3082	0.2737
391.5147	0.2701
391.7213	0.2696
391.9278	0.2651
392.1343	0.2672
392.3408	0.2682
392.5473	0.2622
392.7537	0.2669
392.9602	0.2688
393.1666	0.261
393.373	0.2648
393.5794	0.2529
393.7858	0.2712
393.9922	0.2601
394.1986	0.2489
394.4049	0.2517
394.6113	0.2551
394.8176	0.2548
395.0239	0.2464
395.2302	0.2499
395.4365	0.2485
395.6428	0.2589
395.8491	0.2491
396.0553	0.2388
396.2615	0.238
396.4678	0.2512
396.674	0.246
396.8802	0.2366
397.0863	0.2387
397.2925	0.2417
397.4987	0.2407
397.7048	0.2435
397.9109	0.2421
398.117	0.2418
398.3231	0.24
398.5292	0.2332
398.7353	0.2376
398.9413	0.2422
399.1474	0.2256
399.3534	0.2428
399.5594	0.2447
399.7654	0.2341
399.9714	0.2424
400.1774	0.2353
400.3833	0.2367
400.5893	0.2416
400.7952	0.2337
401.0011	0.2372
401.207	0.2382
401.4129	0.2348
401.6188	0.2353
401.8247	0.2472
402.0305	0.2325
402.2364	0.2337
402.4422	0.2343
402.648	0.2351
402.8538	0.2362
403.0596	0.2257
403.2654	0.2274
403.4711	0.2312
403.6768	0.2295
403.8826	0.2375
404.0883	0.2421
404.294	0.2391
404.4997	0.2444
404.7054	0.2362
404.911	0.2287
405.1167	0.2352
405.3223	0.2371
405.5279	0.2303
405.7335	0.2337
405.9391	0.229
406.1447	0.2356
406.3502	0.2235
406.5558	0.2301
406.7613	0.2306
406.9668	0.2353
407.1724	0.2414
407.3778	0.2295
407.5833	0.2286
407.7888	0.2312
407.9942	0.2312
408.1997	0.2373
408.4051	0.2344
408.6105	0.2395
408.8159	0.2325
409.0213	0.2355
409.2267	0.2315
409.432	0.2288
409.6374	0.2339
409.8427	0.2442
410.048	0.2348
410.2533	0.2286
410.4586	0.2223
410.6639	0.2358
410.8691	0.2336
411.0744	0.2349
411.2796	0.2366
411.4848	0.2354
411.69	0.2318
411.8952	0.232
412.1004	0.234
412.3056	0.2224
412.5107	0.2419
412.7158	0.2389
412.921	0.2308
413.1261	0.2372
413.3312	0.2313
413.5362	0.2333
413.7413	0.2343
413.9464	0.2258
414.1514	0.2274
414.3564	0.2258
414.5614	0.2253
414.7664	0.2183
414.9714	0.2263
415.1764	0.2367
415.3813	0.2202
415.5863	0.2374
415.7912	0.2304
415.9961	0.2204
416.201	0.2307
416.4059	0.2204
416.6108	0.2306
416.8156	0.2289
417.0205	0.2266
417.2253	0.2183
417.4301	0.2349
417.6349	0.2261
417.8397	0.2287
418.0445	0.2138
418.2492	0.2326
418.454	0.2239
418.6587	0.2306
418.8634	0.2273
419.0681	0.2234
419.2728	0.2221
419.4775	0.2285
419.6822	0.2179
419.8868	0.2213
420.0915	0.2155
420.2961	0.2112
420.5007	0.2108
420.7053	0.2138
420.9099	0.2164
421.1144	0.2228
421.319	0.2148
421.5235	0.2091
421.728	0.2238
421.9325	0.2192
422.137	0.2068
422.3415	0.211
422.546	0.2034
422.7504	0.2129
422.9549	0.2111
423.1593	0.2047
423.3637	0.2154
423.5681	0.2104
423.7725	0.2046
423.9769	0.2116
424.1812	0.2029
424.3856	0.2023
424.5899	0.2069
424.7942	0.2029
424.9985	0.1965
425.2028	0.2151
425.4071	0.1986
425.6113	0.2027
425.8156	0.2017
426.0198	0.2041
426.224	0.1977
426.4282	0.1965
426.6324	0.209
426.8366	0.1953
427.0407	0.1918
427.2449	0.1887
427.449	0.184
427.6531	0.1992
427.8572	0.1905
428.0613	0.1959
428.2654	0.189
428.4694	0.1774
428.6735	0.1855
428.8775	0.1845
429.0815	0.1778
429.2855	0.1828
429.4895	0.1778
429.6935	0.182
429.8975	0.1725
430.1014	0.1864
430.3053	0.1737
430.5093	0.1714
430.7132	0.166
430.9171	0.1731
431.1209	0.1666
431.3248	0.1668
431.5286	0.1613
431.7325	0.1788
431.9363	0.1624
432.1401	0.1555
432.3439	0.1583
432.5477	0.1519
432.7514	0.1506
432.9552	0.154
433.1589	0.1505
433.3627	0.1553
433.5664	0.1527
433.7701	0.1549
433.9737	0.1442
434.1774	0.1533
434.3811	0.1407
434.5847	0.1429
434.7883	0.1503
434.9919	0.1312
435.1955	0.1383
435.3991	0.139
435.6027	0.1375
435.8062	0.1454
436.0098	0.1251
436.2133	0.1245
436.4168	0.1342
436.6203	0.1208
436.8238	0.1312
437.0272	0.1297
437.2307	0.1247
437.4341	0.1293
437.6375	0.1226
437.841	0.1182
438.0443	0.1311
438.2477	0.1076
438.4511	0.1001
438.6545	0.1164
438.8578	0.1129
439.0611	0.1101
439.2644	0.1151
439.4677	0.1113
439.671	0.1072
439.8743	0.109
440.0775	0.0968
440.2808	0.0965
440.484	0.1013
440.6872	0.0993
440.8904	0.0907
441.0936	0.1005
441.2967	0.0905
441.4999	0.089
441.703	0.0872
441.9062	0.0897
442.1093	0.0991
442.3124	0.0812
442.5155	0.0896
442.7185	0.0744
442.9216	0.0817
443.1246	0.0814
443.3276	0.0856
443.5307	0.0787
443.7337	0.0763
443.9366	0.072
444.1396	0.0731
444.3426	0.0699
444.5455	0.074
444.7484	0.0697
444.9513	0.0668
445.1542	0.0679
445.3571	0.0671
445.56	0.0648
445.7628	0.07
445.9657	0.069
446.1685	0.0733
446.3713	0.0637
446.5741	0.0627
446.7769	0.0683
446.9797	0.0598
447.1824	0.0597
447.3852	0.0515
447.5879	0.0567
447.7906	0.0537
447.9933	0.0595
448.196	0.0535
448.3986	0.0486
448.6013	0.0515
448.8039	0.0538
449.0066	0.0614
449.2092	0.0569
449.4118	0.0489
449.6143	0.0581
449.8169	0.0436
450.0195	0.048
450.222	0.0488
450.4245	0.0535
450.627	0.04
450.8295	0.0419
451.032	0.0374
451.2345	0.0384
451.4369	0.0474
451.6394	0.0374
451.8418	0.0504
452.0442	0.0404
452.2466	0.0343
452.449	0.0381
452.6513	0.0351
452.8537	0.034
453.056	0.0359
453.2583	0.0275
453.4607	0.0243
453.663	0.0337
453.8652	0.0248
454.0675	0.0377
454.2697	0.0296
454.472	0.0272
454.6742	0.0388
454.8764	0.0261
455.0786	0.0249
455.2808	0.0337
455.4829	0.0259
455.6851	0.0272
455.8872	0.0174
456.0893	0.0235
456.2915	0.0214
456.4935	0.0302
456.6956	0.0243
456.8977	0.032
457.0997	0.0291
457.3018	0.0267
457.5038	0.0228
457.7058	0.024
457.9078	0.0196
458.1098	0.026
458.3117	0.0255
458.5137	0.0032
458.7156	0.022
458.9175	0.027
459.1194	0.0175
459.3213	0.011
459.5232	0.0219
459.725	0.0145
459.9269	0.0194
460.1287	0.008
460.3305	0.0241
460.5323	0.0186
460.7341	0.0164
460.9359	0.0163
461.1376	0.0191
461.3394	0.0151
461.5411	0.0185
461.7428	0.0203
461.9445	0.0142
462.1462	0.0168
462.3479	0.0162
462.5495	0.021
462.7512	0.0235
462.9528	0.0189
463.1544	0.0191
463.356	0.0202
463.5576	0.0172
463.7592	0.0152
463.9607	0.0193
464.1623	0.0113
464.3638	0.0054
464.5653	0.0088
464.7668	0.0162
464.9683	0.0147
465.1697	0.0069
465.3712	0.0055
465.5726	0.0026
465.7741	0.0223
465.9755	0.0124
466.1769	0.0104
466.3782	0.0119
466.5796	0.0178
466.7809	0.0203
466.9823	0.0008
467.1836	0.0121
467.3849	0.0096
467.5862	0.0002
467.7875	0.0084
467.9887	0.0147
468.19	0.0055
468.3912	0.0113
468.5924	0.0072
468.7936	0.0097
468.9948	0.0028
469.196	0.0046
469.3972	0.0117
469.5983	0.007
469.7994	0.0111
470.0006	0.009
470.2017	0.0069
470.4027	0.0252
470.6038	0.0032
470.8049	0.0156
471.0059	0.0067
471.2069	0.0119
471.408	0.0206
471.6089	0.0136
471.8099	0.012
472.0109	0.0159
472.2119	0.0064
472.4128	0.0103
472.6137	0.0052
472.8146	0.0056
473.0155	0.0139
473.2164	0.0037
473.4173	0.0016
473.6181	-0.001
473.819	-0.0024
474.0198	0.0102
474.2206	-0.0022
474.4214	0.0096
474.6222	-0.0004
474.8229	-0.0012
475.0237	0.0131
475.2244	0.0068
475.4251	0.0067
475.6258	0.003
475.8265	0.0019
476.0272	0.0073
476.2278	-0.0006
476.4285	0.0085
476.6291	0.003
476.8297	0.0048
477.0303	0.0026
477.2309	0.0084
477.4315	0.0039
477.632	0.0012
477.8326	0.0114
478.0331	0.0206
478.2336	0.0059
478.4341	0.0223
478.6346	-0.0012
478.8351	-0.0014
479.0355	0.0067
479.236	0.0069
479.4364	0.0034
479.6368	0.0076
479.8372	0.0085
480.0376	0.0074
480.2379	0.0073
480.4383	0.0076
480.6386	-0.0035
480.8389	-0.0045
481.0392	0.0049
481.2395	0.0116
481.4398	0.0134
481.6401	0.0056
481.8403	0.0036
482.0405	0.0017
482.2408	0.0128
482.441	0.0076
482.6411	0.0066
482.8413	0.0013
483.0415	0.0163
483.2416	0.0049
483.4417	0.0105
483.6419	0.0038
483.8419	0.0035
484.042	0.0013
484.2421	-0.0028
484.4422	0.0064
484.6422	0.0027
484.8422	0.0014
485.0422	0.0062
485.2422	0.0053
485.4422	0.0027
485.6422	0.0035
485.8421	0.0035
486.042	0.0162
486.242	0.0035
486.4419	0.0026
486.6417	0.002
486.8416	0.0057
487.0415	0.0025
487.2413	0.004
487.4411	0.001
487.641	0.0003
487.8408	0.0074
488.0405	0.0135
488.2403	0.0019
488.4401	0.0024
488.6398	0.007
488.8395	0.008
489.0392	0.0078
489.2389	0.0141
489.4386	-0.0044
489.6383	0.0052
489.8379	0.0026
490.0376	0.0097
490.2372	0.0018
490.4368	0.0036
490.6364	0.0031
490.836	-0.002
491.0355	-0.0011
491.2351	0.004
491.4346	-0.0005
491.6341	0.0003
491.8336	0.0082
492.0331	0.0076
492.2326	0.0069
492.432	0.0034
492.6315	0.0118
492.8309	0.0149
493.0303	0.0067
493.2297	0.0068
493.4291	0.0003
493.6284	0.0139
493.8278	-0.001
494.0271	0.0088
494.2264	-0.007
494.4257	0.0077
494.625	0.0033
494.8243	-0.0015
495.0236	0.003
495.2228	0.0135
495.422	0.005
495.6213	0.0034
495.8205	0.0113
496.0196	0.0044
496.2188	0.0076
496.418	0.0036
496.6171	0.0006
496.8162	0.0099
497.0153	0.0073
497.2144	0.0077
497.4135	-0.0022
497.6126	0.0043
497.8116	0.0016
498.0107	0.0006
498.2097	0.006
498.4087	0.0017
498.6077	-0.0024
498.8067	0.0037
499.0056	0.0012
499.2046	0.0105
499.4035	0.0073
499.6024	-0.0054
499.8013	0.0097
500.0002	0.0051
500.199	0.013
500.3979	0.0015
500.5967	0.0052
500.7956	0.0033
500.9944	0.0119
501.1932	0.01
501.3919	0.0069
501.5907	0.0104
501.7895	0.0019
501.9882	0.0057
502.1869	0.0102
502.3856	0.006
502.5843	-0.0015
502.783	0.0007
502.9816	0.0102
503.1803	0.0059
503.3789	0.0103
503.5775	0.0075
503.7761	0.0015
503.9747	0.0053
504.1732	0.0007
504.3718	0.0088
504.5703	0.0063
504.7689	0.0008
504.9674	-0.0012
505.1658	0.009
505.3643	0.0094
505.5628	-0.004
505.7612	0.0068
505.9597	0.0031
506.1581	-0.0021
506.3565	0.0054
506.5549	0.006
506.7532	-0.0029
506.9516	-0
507.1499	-0.0012
507.3482	0.0054
507.5465	0.0103
507.7448	0.0058
507.9431	0.0161
508.1414	-0.0065
508.3396	0.0107
508.5379	-0.0016
508.7361	0.0038
508.9343	0.0129
509.1325	0.0115
509.3306	0.0061
509.5288	-0.0016
509.7269	0.0086
509.9251	0.0038
510.1232	0.0065
510.3213	0.0049
510.5193	0.0017
510.7174	-0.0027
510.9154	0.0077
511.1135	0.0065
511.3115	0.003
511.5095	0.0025
511.7075	0.0015
511.9055	0.0051
512.1034	0.0023
512.3014	0.0045
512.4993	0.0094
512.6972	0.0122
512.8951	0.0061
513.093	0.0033
513.2908	0.0104
513.4887	0.0121
513.6865	0.0106
513.8844	0.0055
514.0822	0.0052
514.2799	0.0046
514.4777	-0.0044
514.6755	0.0058
514.8732	0.0063
515.0709	0.0034
515.2687	0.0084
515.4664	0.0141
515.664	0.0068
515.8617	0.0028
516.0594	0.009
516.257	0.0139
516.4546	0.0198
516.6522	0.0083
516.8498	0.0053
517.0474	0.0053
517.2449	0.0013
517.4425	0.0088
517.64	0.0031
517.8375	0.0087
518.035	-0.0005
518.2325	-0.0112
518.43	-0.0014
518.6274	0.0085
518.8249	-0.0036
519.0223	0.0085
519.2197	0.0012
519.4171	0.0015
519.6145	0.0153
519.8118	-0.0053
520.0092	0.0049
520.2065	0.0106
520.4038	-0.0001
520.6011	0.006
520.7984	0.0118
520.9956	0.0179
521.1929	0.0077
521.3901	0.0047
521.5874	0.0049
521.7846	0.0013
521.9818	0.0065
522.1789	-0.0022
522.3761	0.0176
522.5732	0.004
522.7704	-0.0186
522.9675	0.0018
523.1646	-0.0057
523.3617	0.0139
523.5587	0.0108
523.7558	0.0063
523.9528	0.0054
524.1498	0.0013
524.3468	-0.0002
524.5438	0.0131
524.7408	0.0013
524.9378	0.0088
525.1347	0.0041
525.3316	0.0015
525.5285	-0.0017
525.7254	0.0152
525.9223	0.0178
526.1192	0.007
526.316	0.0121
526.5129	0.0059
526.7097	0.0017
526.9065	0.0039
527.1033	0.0088
527.3	0.0083
527.4968	0.0005
527.6935	-0.0012
527.8903	0.006
528.087	0.0008
528.2837	0.0105
528.4804	0.0042
528.677	0.0092
528.8737	0.008
529.0703	-0.0084
529.2669	0.0047
529.4635	-0.0009
529.6601	0.0079
529.8567	-0.0057
530.0532	0.0013
530.2498	0.0117
530.4463	-0.0007
530.6428	0.0094
530.8393	0.0138
531.0358	0.0072
531.2322	0.0004
531.4287	0.0139
531.6251	-0.005
531.8215	-0.0016
532.0179	0.0106
532.2143	0.0036
532.4107	0.0035
532.607	-0.005
532.8034	-0.0018
532.9997	0.0014
533.196	-0.0022
533.3923	0.01
533.5886	0.0153
533.7848	0.0092
533.9811	0.0139
534.1773	0.0021
534.3735	0.0069
534.5697	-0.0053
534.7659	0.0034
534.9621	0.01
535.1582	0.0015
535.3544	0.0091
535.5505	0.006
535.7466	0.0133
535.9427	0.0022
536.1387	-0.0067
536.3348	0.018
536.5308	0.0035
536.7269	0.0032
536.9229	0.0064
537.1189	0.0096
537.3148	0.0098
537.5108	0.0037
537.7068	0.005
537.9027	-0.0108
538.0986	0.0171
538.2945	0.0013
538.4904	-0.001
538.6863	0.0091
538.8821	0.0089
539.078	0.0105
539.2738	0.0036
539.4696	-0.0014
539.6654	0.0083
539.8611	0.0062
540.0569	0.0046
540.2526	0.0075
540.4484	-0.0081
540.6441	0.0008
540.8398	0.0187
541.0355	-0.0009
541.2311	0.0032
541.4268	0.0154
541.6224	0.0157
541.818	0.0045
542.0136	0.0082
542.2092	0.016
542.4048	0.0153
542.6003	-0.0005
542.7959	0.0027
542.9914	0.0047
543.1869	0.005
543.3824	0.0076
543.5779	0.0198
543.7734	0.0103
543.9688	0.0151
544.1642	0.0005
544.3596	0.0096
544.555	0.0056
544.7504	0.0177
544.9458	-0.0055
545.1411	0.0078
545.3365	0.0025
545.5318	0.0185
545.7271	0.0096
545.9224	0.0054
546.1177	0.0023
546.3129	0.006
546.5081	0.0038
546.7034	0.0068
546.8986	0.0018
547.0938	0.012
547.289	0.0083
547.4841	0.0132
547.6793	0.0029
547.8744	0.0019
548.0695	0.004
548.2646	0.0042
548.4597	-0.0034
548.6548	0.0135
548.8498	0.0069
549.0448	0.0044
549.2399	0.02
549.4349	0.0097
549.6298	0.015
549.8248	0.0065
550.0198	0.009
550.2147	0.0125
550.4096	-0.0014
550.6045	-0.0022
550.7994	0.0115
550.9943	0.0071
551.1892	-0.0067
551.384	0.0104
551.5788	0.004
551.7737	0.0104
551.9685	0.009
552.1632	-0.0105
552.358	0.0068
552.5528	0.0047
552.7475	0.0088
552.9422	0.0061
553.1369	0.0069
553.3316	-0.0001
553.5263	0.01
553.7209	0.0018
553.9156	0.0086
554.1102	0.0008
554.3048	0.0013
554.4994	-0.0021
554.694	0.0197
554.8885	0.0049
555.0831	0.0081
555.2776	0.0029
555.4721	0.0101
555.6666	-0.0058
555.8611	0.0133
556.0555	0.0059
556.25	0.0066
556.4444	0.0019
556.6388	0.0001
556.8332	0.0005
557.0276	0.0042
557.222	0.0056
557.4163	0.0059
557.6107	0.0006
557.805	0.0014
557.9993	0
558.1936	-0.0042
558.3879	0.0114
558.5821	-0.0023
558.7764	0.0076
558.9706	0.008
559.1648	0.0089
559.359	-0.0018
559.5532	0.0068
559.7473	-0.0022
559.9415	-0.0057
560.1356	0.0216
560.3297	-0.0036
560.5238	0.0124
560.7179	0.0069
560.9119	0.0021
561.106	-0.0056
561.3	0.0026
561.494	-0.0047
561.688	-0.0006
561.882	-0.0063
562.076	0.0075
562.2699	0.0127
562.4639	0.0123
562.6578	0.0059
562.8517	0.0015
563.0456	0.0083
563.2395	0.0111
563.4333	0.0024
563.6272	0.005
563.821	0.0039
564.0148	-0.0043
564.2086	0.0118
564.4024	0.0123
564.5961	0.0054
564.7899	0.0075
564.9836	0.0004
565.1773	0.0037
565.371	0.0113
565.5647	0.0034
565.7584	0.0155
565.952	0.005
566.1456	0.0066
566.3393	0.0054
566.5329	-0.0016
566.7264	0.0021
566.92	0.0031
567.1136	0.0006
567.3071	-0.0035
567.5006	0.0103
567.6941	0.0052
567.8876	0.0043
568.0811	0.0187
568.2745	-0.0067
568.468	0.0041
568.6614	0.012
568.8548	0.0032
569.0482	0.008
569.2416	0.0087
569.4349	0.0057
569.6283	0.001
569.8216	0.0072
570.0149	0.0032
570.2082	0.0062
570.4015	0.0011
570.5947	-0.0009
570.788	0.0044
570.9812	0.0016
571.1744	0.002
571.3676	0.0041
571.5608	0.0028
571.754	0.0006
571.9471	0.0051
572.1402	0.0053
572.3333	0.0055
572.5264	0.009
572.7195	0.0032
572.9126	0.0024
573.1057	0.0089
573.2987	0.0056
573.4917	0.004
573.6847	0.0026
573.8777	0.0084
574.0707	0.0056
574.2636	0.0042
574.4566	0.005
574.6495	0.005
574.8424	0.0067
575.0353	0.0067
575.2281	0.0024
575.421	0.0061
575.6138	0.0028
575.8067	0.0047
575.9995	0.0064
576.1923	0.0058
576.385	0.0055
576.5778	0.0061
576.7706	0.004
576.9633	0.0062
577.156	-0.0039
577.3487	0.0061
577.5414	0.0028
577.734	0.0019
577.9267	0.0094
578.1193	0.0089
578.3119	0.0002
578.5045	0.0046
578.6971	0.0044
578.8897	0.0028
579.0822	0.0083
579.2747	0.0034
579.4673	0.0035
579.6598	0.0035
579.8522	0.0045
580.0447	0.0077
580.2372	0.0049
580.4296	0.0112
580.622	0.0003
580.8144	0.005
581.0068	0.0053
581.1992	0.0047
581.3915	0.0001
581.5839	0.0052
581.7762	0.0036
581.9685	0.0068
582.1608	0.005
582.353	0.0022
582.5453	0.0052
582.7375	0.0039
582.9298	0.0016
583.122	0.003
583.3142	0.0073
583.5063	0.0032
583.6985	0.0002
583.8906	0.0022
584.0827	0.0049
584.2749	0.0042
584.4669	-0.0017
584.659	0.007
584.8511	0.0084
585.0431	0.006
585.2352	0.0046
585.4272	0.0096
585.6192	0.0015
585.8111	0.0027
586.0031	0.0063
586.195	0.0029
586.387	-0.0001
586.5789	0.0044
586.7708	0.0073
586.9627	0.0047
587.1545	0.0025
587.3464	0.0002
587.5382	0.0018
587.73	0.0076
587.9218	0
588.1136	0.001
588.3053	0.0048
588.4971	0.004
588.6888	0.0058
588.8805	0.0019
589.0722	0.0069
589.2639	0.0043
589.4556	0.0118
589.6472	0.0049
589.8389	0.0032
590.0305	0.0007
590.2221	0.0073
590.4137	0.0036
590.6052	-0.0016
590.7968	0.0011
590.9883	0.0019
591.1798	0.0083
591.3713	0.009
591.5628	0.0005
591.7543	0.0069
591.9458	0.0027
592.1372	0.0082
592.3286	0.0063
592.52	0.0074
592.7114	0.0018
592.9028	0.0033
593.0941	0.0013
593.2855	0.0022
593.4768	0.0065
593.6681	0.0093
593.8594	0.0087
594.0506	0.0047
594.2419	0.0056
594.4331	0.0013
594.6244	0.0031
594.8156	-0.0005
595.0067	0.0019
595.1979	-0.0013
595.3891	0.0012
595.5802	0.0051
595.7713	0.0087
595.9624	0.0056
596.1535	0.002
596.3446	0.003
596.5357	0.0094
596.7267	0.006
596.9177	0.0017
597.1087	0.0036
597.2997	0.0003
597.4907	0.0047
597.6817	0.0039
597.8726	0.0046
598.0635	-0.0008
598.2544	0.012
598.4453	0.0011
598.6362	0.0026
598.827	0.0059
599.0179	0.0033
599.2087	0.0087
599.3995	0.0085
599.5903	0.007
599.7811	0.0104
599.9718	0.0025
600.1626	-0.002
600.3533	0.0022
600.544	0.0045
600.7347	0.0049
600.9254	0.0106
601.116	0.0082
601.3067	0.0021
601.4973	0.0095
601.6879	0.0081
601.8785	0.0072
602.0691	0.0051
602.2596	0.004
602.4502	0.0044
602.6407	0.0058
602.8312	0.0051
603.0217	0.0028
603.2122	0.0005
603.4027	0.0029
603.5931	0.0035
603.7835	0.0008
603.9739	0.0027
604.1643	0.0085
604.3547	0.016
604.5451	0.0119
604.7354	-0.0044
604.9257	0.0025
605.116	-0.004
605.3063	0.008
605.4966	0.0017
605.6869	0.0122
605.8771	0.0072
606.0673	0.0101
606.2575	0.0028
606.4477	0.0102
606.6379	0.0025
606.8281	-0.0004
607.0182	0.007
607.2083	0.0048
607.3985	0.0025
607.5885	0.0036
607.7786	0.0026
607.9687	0.0057
608.1587	0.0095
608.3488	0.0059
608.5388	0.0035
608.7288	-0.0015
608.9187	0.0039
609.1087	0.0035
609.2986	0.0136
609.4886	-0.0005
609.6785	0.0038
609.8684	0.0009
610.0582	-0.0014
610.2481	0.0007
610.4379	0.0042
610.6278	0.0081
610.8176	0.0118
611.0074	0.006
611.1971	0.0082
611.3869	0.0062
611.5766	0.0061
611.7664	0.0081
611.9561	0.0062
612.1458	0.0109
612.3354	0.0068
612.5251	0.0045
612.7147	0.0081
612.9044	0.0025
613.094	0.0113
613.2836	-0.0001
613.4731	0.0029
613.6627	0.0047
613.8522	0.011
614.0417	0.0098
614.2313	0.0061
614.4207	0.0133
614.6102	0.0074
614.7997	0.0084
614.9891	0.007
615.1785	-0.0046
615.3679	0.0069
615.5573	0.0119
615.7467	-0.0042
615.9361	0.0045
616.1254	0.0022
616.3147	0.0045
616.504	-0.0011
616.6933	-0.0047
616.8826	-0.0017
617.0718	0.005
617.2611	0.0032
617.4503	0.0043
617.6395	0.0024
617.8287	0.0133
618.0179	0.0103
618.207	0.0091
618.3961	-0.0047
618.5853	-0.001
618.7744	0.0064
618.9634	0.0145
619.1525	0.0034
619.3416	0.0026
619.5306	0.0116
619.7196	0.0021
619.9086	0.0075
620.0976	-0.0069
620.2866	0.0031
620.4755	0.0017
620.6645	0.0083
620.8534	0.0128
621.0423	-0.0062
621.2312	0.0033
621.42	0.0068
621.6089	0.0028
621.7977	0.0034
621.9865	-0.0051
622.1753	-0.0065
622.3641	-0.0046
622.5529	-0.001
622.7416	0.0053
622.9303	-0.0124
623.1191	0.0132
623.3078	0.0015
623.4964	0.0022
623.6851	0.007
623.8737	0.0012
624.0624	-0.0131
624.251	0.0113
624.4396	-0.0005
624.6282	0.0098
624.8167	0.0123
625.0053	0.0143
625.1938	0.0075
625.3823	0.0013
625.5708	-0.0005
625.7593	-0.0024
625.9477	0.0047
626.1362	0.0046
626.3246	-0.0046
626.513	0.0011
626.7014	0.0088
626.8898	0.0116
627.0781	0.0064
627.2665	0.0106
627.4548	-0.0085
627.6431	0.007
627.8314	0.015
628.0197	0.0054
628.2079	0.0003
628.3962	0.0038
628.5844	-0.0003
628.7726	0.007
628.9608	0.0025
629.1489	0.0043
629.3371	-0.0108
629.5252	0.0111
629.7134	-0.0093
629.9015	0.0145
630.0895	-0.0067
630.2776	0.0082
630.4657	0.0062
630.6537	0.0188
630.8417	-0.0047
631.0297	-0.0028
631.2177	-0.0039
631.4057	0.0048
631.5936	-0.0055
631.7815	-0.0029
631.9695	0.0069
632.1574	0.0234
632.3452	0.0065
632.5331	0.0031
632.7209	0.0173
632.9088	0.0088
633.0966	0.0207
633.2844	0.0019
633.4722	-0.0013
633.6599	0.0198
633.8477	0.0089
634.0354	0.0167
634.2231	-0.0136
634.4108	0.0087
634.5985	0.0137
634.7861	-0.0105
634.9738	-0.006
635.1614	-0.0024
635.349	-0.0064
635.5366	-0.0089
635.7242	0.0033
635.9117	0.0097
636.0993	0.0057
636.2868	-0.0071
636.4743	0.0104
636.6618	-0.0164
636.8492	0.0207
637.0367	-0.0073
637.2241	0.019
637.4115	0.0268
637.5989	-0.0124
637.7863	0.0257
637.9737	0.0016
638.161	-0.0036
638.3484	-0.0056
638.5357	0.0017
638.723	0.0114
638.9103	-0.0182
639.0975	0.0102
639.2848	0.0049
639.472	0.0067
639.6592	-0.0193
639.8464	-0.0048
640.0336	0.0029
640.2208	-0.0086
640.4079	0.0005
640.595	0.005
640.7821	0.0174
640.9692	-0.0144
641.1563	0.0027
641.3434	0.0114
641.5304	0.0108
641.7174	0.0102
641.9044	0.0062
642.0914	0.0161
642.2784	-0.0077
642.4653	-0.0169
642.6523	-0.0021
642.8392	0.0021
643.0261	0.0182
643.213	0.0124
643.3999	0.0096
643.5867	0.0133
643.7735	-0.0028
643.9604	0.0259
644.1472	0.0049
644.3339	-0.0006
644.5207	-0.0121
644.7075	-0.0112
644.8942	-0.002
645.0809	-0.0124
645.2676	-0.0105
645.4543	0.0116
645.6409	0.0188
645.8276	-0.0001
646.0142	0.0072
646.2008	0.0015
646.3874	-0.0051
646.574	-0.0002
646.7605	-0.003
646.9471	-0.0018
647.1336	-0.0144
647.3201	-0.0077
647.5066	0.0012
647.6931	0.0042
647.8795	0.0087
648.0659	-0.0035
648.2524	-0.0064
648.4388	0.0045
648.6252	0.0083
648.8115	0.0119
648.9979	-0.0065
649.1842	0.0081
649.3705	0.0259
649.5568	-0.0105
649.7431	0.0029
649.9294	0.0024
650.1156	-0.0114
650.3018	0.006
650.488	0.0033
650.6742	0.0331
650.8604	0.0201
651.0466	0.0038
651.2327	-0.0055
651.4188	0.0005
651.6049	0.0337
651.791	0.0057
651.9771	-0.0042
652.1632	0.0053
652.3492	0.003
652.5352	0.0119
652.7212	0.0078
652.9072	-0.0005
653.0932	0.018
653.2791	0.0134
653.465	0.0176
653.651	-0.0046
653.8369	0.0101
654.0227	0.0022
654.2086	0.0041
654.3944	0.0054
654.5803	-0.0002
654.7661	-0.0041
654.9519	-0.0027
655.1377	0.0001
655.3234	0.0001
655.5092	0.0001
655.6949	0.0001
655.8806	0.0001
656.0663	0.0001
656.2519	0.0001
656.4376	0.0001
656.6232	0.0001
656.8088	0.0001
656.9945	0.0001
657.18	0.0001
657.3656	0.0001
657.5511	0.0001
657.7367	0.0001
657.9222	0.0001
658.1077	0.0001
658.2932	0.0001
658.4786	0.0001
658.6641	0.0001
658.8495	0.0001
659.0349	0.0001
659.2203	0.0001
659.4057	0.0001
659.591	0.1562
659.7764	0.0289
659.9617	-0.0009
660.147	0.0087
660.3323	0.021
660.5176	-0.0047
660.7028	-0.0093
660.888	0.0026
661.0733	0.0152
661.2585	0.0111
661.4436	-0.0138
661.6288	0.0107
661.8139	-0.0051
661.9991	-0.0272
662.1842	-0.0046
662.3693	-0.0017
662.5544	0.0038
662.7394	0.0258
662.9245	0.0138
663.1095	-0.0108
663.2945	-0.0044
663.4795	-0.0206
663.6644	-0.0044
663.8494	-0.0004
664.0343	0.0047
664.2193	0.0078
664.4042	0.0153
664.589	-0.0074
664.7739	-0.0072
664.9587	0.0011
665.1436	0.0016
665.3284	-0.0011
665.5132	-0.0236
665.698	-0.0074
665.8827	-0.0043
666.0675	-0.0247
666.2522	0.0143
666.4369	0.0044
666.6216	0.0402
666.8063	0.0118
666.9909	-0.0135
667.1756	-0.018
667.3602	0.0041
667.5448	0.0107
667.7294	0.0187
667.9139	-0.005
668.0985	0.0192
668.283	0.0005
668.4675	0.0139
668.652	0.0086
668.8365	0.0122
669.0209	0.0122
669.2054	0.0216
669.3898	0.0091
669.5742	0.0198
669.7586	0.0207
669.943	0.0156
670.1273	-0.0092
670.3117	0.0069
670.496	0.0152
670.6803	0.0028
670.8646	-0.0171
671.0488	0.0231
671.2331	-0.0051
671.4173	0.0199
671.6015	0.0084
671.7857	0.0001
671.9699	0.0076
672.1541	0.0042
672.3382	-0.0077
672.5223	-0.0031
672.7064	-0.0159
672.8905	-0.0118
673.0746	0.0216
673.2587	0.0236
673.4427	-0.0018
673.6267	0.0196
673.8107	0.0171
673.9947	-0.0002
674.1787	0.0149
674.3626	0.0155
674.5465	0.003
674.7304	-0.0171
674.9143	0.0037
675.0982	0.0026
675.2821	-0.0101
675.4659	0.0095
675.6497	0.0007
675.8335	0.0022
676.0173	-0.0295
676.2011	0.0156
676.3849	0.0117
676.5686	0.016
676.7523	0.0118
676.936	-0.0011
677.1197	-0.0002
677.3034	0.0235
677.487	0.0057
677.6706	0.0097
677.8542	0.001
678.0378	0.0118
678.2214	0.0094
678.405	-0.0065
678.5885	0.0148
678.772	0.0104
678.9555	0.0013
679.139	0.0095
679.3225	0.0041
679.5059	-0.0075
679.6894	0.0014
679.8728	0.0001
680.0562	-0.0177
680.2395	-0.0023
680.4229	-0.0078
680.6062	0.0074
680.7896	-0.0174
680.9729	0.024
681.1562	0.0038
681.3394	-0.0026
681.5227	0.005
681.7059	0.0254
681.8891	0.0123
682.0723	0.0151
682.2555	0.007
682.4387	0.0253
682.6218	-0.0027
682.805	0.0123
682.9881	0.0182
683.1712	-0.0004
683.3542	0.0264
683.5373	-0.0174
683.7203	0.0059
683.9034	-0.0082
684.0864	0.0005
684.2694	0.0097
684.4523	0.0064
684.6353	-0.0081
684.8182	-0.0092
685.0011	0.0073
685.184	0.0041
685.3669	0.0175
685.5498	0.0039
685.7326	-0.0025
685.9154	-0.0128
686.0982	0.0101
686.281	-0.0111
686.4638	-0.007
686.6465	0.003
686.8293	-0.0229
687.012	0.0077
687.1947	0.0082
687.3774	0.0199
687.56	-0.0095
687.7427	-0.0007
687.9253	-0.012
688.1079	0.0061
688.2905	0.0077
688.4731	0.0065
688.6556	0.0046
688.8382	-0.0289
689.0207	0.0001
689.2032	0.0198
689.3857	-0.0033
689.5681	-0.0021
689.7506	0.0305
689.933	-0.002
690.1154	0.0064
690.2978	-0.0035
690.4802	0.01
690.6626	-0.0015
690.8449	-0.0016
691.0272	-0.0073
691.2095	-0.0113
691.3918	0.0156
691.5741	0.0078
691.7563	0.0024
691.9386	0.0127
692.1208	0.0078
692.303	0.008
692.4852	-0.0123
692.6673	0.0112
692.8495	-0.0141
693.0316	0.0018
693.2137	0.0066
693.3958	0.0052
693.5778	-0.0037
693.7599	0.0108
693.9419	-0.0037
694.1239	0.0144
694.3059	0.0024
694.4879	-0.0076
694.6699	0.0122
694.8518	0.0227
695.0337	0.0122
695.2157	0.0249
695.3975	0.0043
695.5794	-0.022
695.7613	-0.0069
695.9431	-0.0191
696.1249	-0.0017
696.3067	-0.003
696.4885	-0.0071
696.6703	-0.0112
696.852	-0.0095
697.0337	0.0178
697.2154	0.0048
697.3971	0.0038
697.5788	0.0172
697.7605	-0.0201
697.9421	0.0143
698.1237	-0.0026
698.3053	-0.0031
698.4869	0.0134
698.6685	-0.0128
698.85	0.0211
699.0315	-0.0134
699.213	-0.0041
699.3945	-0.0092
699.576	0.0189
699.7575	0.0157
699.9389	0.0033
700.1203	-0.0201
700.3017	0.0061
700.4831	0.0257
700.6645	0.0435
700.8458	-0.0123
701.0271	0.0201
701.2084	-0.023
701.3897	-0.0105
701.571	-0.0002
701.7523	-0.0053
701.9335	-0.0039
702.1147	0.0246
702.2959	-0.0263
702.4771	0.0058
702.6583	-0.003
702.8394	-0.0314
703.0205	0.0197
703.2016	0.0027
703.3827	-0.0146
703.5638	-0.0032
703.7449	-0.0002
703.9259	0.0122
704.1069	-0.0092
704.2879	0.0002
704.4689	-0.0183
704.6499	0.026
704.8308	-0.0117
705.0117	-0.0099
705.1927	0.0082
705.3735	0.008
705.5544	0.007
705.7353	-0.0023
705.9161	-0.0235
706.0969	0.0145
706.2777	0.0038
706.4585	-0.0001
706.6393	0.0188
706.82	0.0066
707.0007	-0.0034
707.1815	-0.0017
707.3621	0.0292
707.5428	0.0213
707.7235	0.0058
707.9041	-0.0183
708.0847	-0.0007
708.2653	0.0245
708.4459	-0.0025
708.6265	0.0059
708.807	-0.0002
708.9875	-0.0135
709.168	-0.0006
709.3485	0.0137
709.529	0.0153
709.7095	-0.0063
709.8899	0.0028
710.0703	-0.0106
710.2507	0.0073
710.4311	-0.0246
710.6115	0.0133
710.7918	0.0087
710.9721	0.0107
711.1524	-0.0211
711.3327	-0.0057
711.513	0.0014
711.6932	0.0096
711.8735	0.0252
712.0537	-0.0252
712.2339	-0.0272
712.4141	0.0181
712.5942	-0.0031
712.7744	0.0102
712.9545	0.004
713.1346	0.0324
713.3147	0.0066
713.4947	-0.0083
713.6748	0.0054
713.8548	0.0158
714.0348	-0.002
714.2148	0.0245
714.3948	0.0076
714.5748	0.0264
714.7547	0.0046
714.9346	0.0001
715.1145	-0.0103
715.2944	-0.0123
715.4743	0.0195
715.6541	-0.0376
715.834	0.0303
716.0138	0.0021
716.1936	-0.018
716.3733	0.0068
716.5531	-0.0187
716.7328	0.0319
716.9126	0.0446
717.0923	-0.032
717.2719	-0.0025
717.4516	-0.0123
717.6312	0.0014
717.8109	0.0169
717.9905	0.0216
718.1701	0.0068
718.3496	-0.0018
718.5292	-0.0062
718.7087	0.0017
718.8882	0.0241
719.0677	0.0087
719.2472	-0.0095
719.4267	-0.0191
719.6061	-0.0037
719.7856	0.0033
719.965	-0.0028
720.1443	-0.0076
720.3237	-0.0088
720.5031	0.0028
720.6824	-0.0159
720.8617	-0.0095
721.041	0.0112
721.2203	-0.0318
721.3995	0.0052
721.5788	-0.0045
721.758	-0.0085
721.9372	-0.005
722.1164	0.0285
722.2956	0.0082
722.4747	0.0126
722.6538	0.0086
722.8329	0.029
723.012	0.0296
723.1911	0.0002
723.3702	0.0151
723.5492	0.0154
723.7282	-0.01
723.9072	0.0023
724.0862	0.0092
724.2652	0.0002
724.4441	-0.0027
724.623	0.0002
724.8019	0.0095
724.9808	0.0165
725.1597	-0.0099
725.3385	-0.0072
725.5174	0.0118
725.6962	0.029
725.875	0.0018
726.0538	-0.0105
726.2325	-0.0097
726.4112	-0.0245
726.59	-0.0361
726.7687	-0.0176
726.9474	0.0002
727.126	0.0164
727.3047	-0.0321
727.4833	-0.0002
727.6619	0.0099
727.8405	-0.0163
728.0191	0.0199
728.1976	-0.0086
728.3762	0.0027
728.5547	0.0123
728.7332	0.0282
728.9116	0.0129
729.0901	0.003
729.2686	0.0231
729.447	0.0027
729.6254	-0.0144
729.8038	-0.0104
729.9821	-0.0153
730.1605	-0.0116
730.3388	-0.0072
730.5171	0.0334
730.6954	-0.0124
730.8737	0.0124
731.0519	0.0065
731.2302	0.01
731.4084	-0.0065
731.5866	-0.0028
731.7648	-0.0096
731.9429	0.0155
732.1211	0.0106
732.2992	0.0115
732.4773	-0.0078
732.6554	-0.0047
732.8335	0.0198
733.0115	-0.0075
733.1896	-0.0159
733.3676	0.0039
733.5456	-0.0001
733.7235	0.0014
733.9015	0.0281
734.0794	-0.0006
734.2574	-0.0324
734.4353	-0.0026
734.6131	-0.0073
734.791	-0.0153
734.9689	0.0041
735.1467	-0.0065
735.3245	0.0221
735.5023	0.0061
735.68	0.0056
735.8578	-0.0087
736.0355	-0.0015
736.2132	-0.0127
736.3909	0.0267
736.5686	-0.0045
736.7463	-0.0139
736.9239	0.0063
737.1015	0.0154
737.2791	-0.0043
737.4567	-0.0055
737.6343	-0.0139
737.8118	0.03
737.9894	0.0104
738.1669	-0.027
738.3444	0.0344
738.5218	-0.0228
738.6993	0.0206
738.8767	0.0056
739.0541	-0.0044
739.2315	-0.0091
739.4089	0.0335
739.5863	0.012
739.7636	0.0001
739.9409	-0.0024
740.1182	0.0111
740.2955	0.0213
740.4728	0.0002
740.65	-0.0031
740.8272	-0.0027
741.0044	-0.0229
741.1816	0.0315
741.3588	-0.0157
741.5359	0.0042
741.7131	0.0087
741.8902	-0.0109
742.0673	-0.0172
742.2444	0.0294
742.4214	0.0352
742.5985	-0.0011
742.7755	-0.0151
742.9525	0.0041
743.1295	-0.0484
743.3064	-0.0027
743.4834	0.0279
743.6603	0.0643
743.8372	-0.0294
744.0141	0.0074
744.191	-0.0091
744.3678	-0.0461
744.5446	-0.0016
744.7215	0.0324
744.8982	0.0085
745.075	0.0382
745.2518	0.0192
745.4285	0.0221
745.6052	-0.0255
745.7819	0.0002
745.9586	0.013
746.1353	-0.0118
746.3119	0.0035
746.4885	-0.0069
746.6651	0.0155
746.8417	-0.0015
747.0183	0.0369
747.1948	0.0067
747.3714	0.0199
747.5479	0.0183
747.7244	-0.0054
747.9008	0.011
748.0773	0.0327
748.2537	0.0347
748.4301	0.0155
748.6065	-0.0003
748.7829	-0.0332
748.9593	-0.0063
749.1356	0.012
749.3119	0.0082
749.4882	0.0051
749.6645	0.0161
749.8408	0.0163
750.017	0.0128
750.1933	-0.0178
750.3695	0.0195
750.5457	-0.0039
750.7218	-0.0005
750.898	-0.0085
751.0741	-0.004
751.2502	0.0145
751.4263	-0.0166
751.6024	0.0186
751.7784	-0.0009
751.9545	0.0087
752.1305	0.0097
752.3065	-0.0125
752.4825	-0.0235
752.6584	0.0136
752.8344	-0.0104
753.0103	-0.014
753.1862	0.0062
753.3621	0.0071
753.5379	-0.0205
753.7138	-0.0096
753.8896	-0.014
754.0654	0.0079
754.2412	0.0243
754.417	-0.0045
754.5927	0.006
754.7685	0.0043
754.9442	0.0106
755.1199	0.0134
755.2956	0.001
755.4712	0.0007
755.6469	0.0007
755.8225	-0.001
755.9981	0.0152
756.1736	0.0013
756.3492	-0.0145
756.5248	0.0158
756.7003	0.0061
756.8758	0.0014
757.0513	-0.0087
757.2267	0.0136
757.4022	0.0061
757.5776	0.0007
757.753	0.0107
757.9284	0.0057
758.1038	0.012
758.2791	0.0079
758.4545	0.0033
758.6298	0.0109
758.8051	-0.0016
758.9803	0.0066
759.1556	-0.0033
759.3308	-0.0243
759.506	-0.0082
759.6812	0.0122
759.8564	0.0062
760.0316	-0.0104
760.2067	0.0173
760.3819	-0.0001
760.557	-0.0072
760.732	0.0014
760.9071	0.0244
761.0821	-0.0059
761.2572	0.0015
761.4322	0.0001
761.6072	-0.0214
761.7821	-0.0217
761.9571	0.0351
762.132	-0.0089
762.3069	0.0099
762.4818	0.0051
762.6567	-0.0128
762.8316	0.0255
763.0064	-0.0117
763.1812	0.0112
763.356	-0.0317
763.5308	0.0326
763.7055	-0.0232
763.8803	-0.0112
764.055	-0.0258
764.2297	-0.0081
764.4044	-0.0143
764.579	-0.0029
764.7537	0.0176
764.9283	0.0191
765.1029	-0.0094
765.2775	0.0075
765.4521	0.0118
765.6266	0.0147
765.8011	0.0178
765.9756	0.0118
766.1501	-0.0131
766.3246	-0.0034
766.4991	0.0462
766.6735	0.0076
766.8479	0.0143
767.0223	0.0296
767.1967	0.0094
767.371	-0.0233
767.5454	0.0016
767.7197	0.0329
767.894	-0.0125
768.0683	0.0227
768.2425	0.0144
768.4168	0.0038
768.591	0.0257
768.7652	-0.0073
768.9394	-0.0222
769.1135	0.0116
769.2877	-0.0077
769.4618	0.0415
769.6359	-0.0105
769.81	0.0002
769.984	-0.0025
770.1581	0.0085
770.3321	0.0344
770.5061	-0.0013
770.6801	-0.0028
770.8541	0.0043
771.028	0.048
771.202	0.0195
771.3759	0.0002
771.5498	0.0099
771.7236	0.0002
771.8975	0.0212
772.0713	0.0251
772.2451	-0.0235
772.4189	0.0085
772.5927	-0.0145
772.7665	-0.0067
772.9402	0.0184
773.1139	-0.0223
773.2876	-0.017
773.4613	-0.0059
773.635	0.0251
773.8086	0.0348
773.9822	0.0193
774.1558	0.0294
774.3294	-0.0425
774.503	-0.0292
774.6765	0.0162
774.8501	-0.0018
775.0236	0.0234
775.1971	0.0057
775.3705	0.0066
775.544	-0.0707
775.7174	0.002
775.8908	-0.0452
776.0642	0.018
776.2376	-0.0005
776.4109	-0.0156
776.5843	-0.0109
776.7576	-0.0097
776.9309	-0.0334
777.1041	-0.023
777.2774	0.0259
777.4506	-0.0474
777.6238	-0.0317
777.797	-0.0046
777.9702	-0.0114
778.1434	0.0337
778.3165	-0.0143
778.4896	-0.0622
778.6627	-0.0173
778.8358	-0.0129
779.0089	-0.0327
779.1819	0.0291
779.3549	-0.0009
779.5279	-0.0477
779.7009	0.0429
779.8739	0.023
780.0468	-0.0039
780.2197	-0.0262
780.3926	-0.0145
780.5655	0.0002
780.7384	-0.0189
780.9112	0.0298
781.0841	0.0186
781.2569	0.0349
781.4297	0.015
781.6024	0.0255
781.7752	0.0224
781.9479	0.0382
782.1206	0.0131
782.2933	-0.0098
782.466	0.0204
782.6386	-0.0285
782.8113	-0.0084
782.9839	-0.0232
783.1565	0.0358
783.329	0.0302
783.5016	0.0066
783.6741	-0.0106
783.8466	0.0361
784.0191	0.0199
784.1916	-0.0067
784.3641	-0.0365
784.5365	0.0174
784.7089	-0.0295
784.8813	0.0674
785.0537	0.0279
785.2261	0.02
785.3984	-0.0025
785.5707	0.0176
785.743	0.0524
785.9153	-0.0034
786.0876	-0.0065
786.2598	-0.0223
786.432	0.0178
786.6042	-0.001
786.7764	-0.0444
786.9486	-0.01
787.1207	0.0569
787.2928	0.0435
787.4649	0.0127
787.637	-0.0079
787.8091	-0.0021
787.9811	0.0069
788.1532	-0.0323
788.3252	0.002
788.4972	-0.0003
788.6691	0.0026
788.8411	-0.0174
789.013	-0.006
789.1849	-0.0184
789.3568	-0.0067
789.5287	0.0254
789.7005	-0.0805
789.8723	0.007
790.0442	-0.0359
790.2159	-0.0006
790.3877	0.0094
790.5595	0.0522
790.7312	-0.0406
790.9029	-0.0186
791.0746	0.0155
791.2463	-0.0385
791.4179	0.0188
791.5896	0.0395
791.7612	-0.0075
791.9328	-0.0599
792.1044	-0.0152
792.2759	0.003
792.4474	0.0123
792.619	-0.0217
792.7905	0.0051
792.9619	0.0509
793.1334	0.0529
793.3048	0.0334
793.4762	-0.0129
793.6476	-0.0511
793.819	-0.0318
793.9904	-0.0457
794.1617	-0.0059
794.333	0.0327
794.5043	-0.0172
794.6756	0.0061
794.8469	0.0234
795.0181	-0.0128
795.1893	0.0497
795.3605	0.0101
795.5317	-0.0138
795.7029	-0.0063
795.874	0.0466
796.0452	-0.0165
796.2163	0.0853
796.3873	0.0271
796.5584	0.0088
796.7294	0.0236
796.9005	0.005
797.0715	0.0151
797.2425	0.1068
797.4134	0.0327
797.5844	-0.0007
797.7553	-0.0507
797.9262	0.0304
798.0971	0.0361
798.2679	-0.0091
798.4388	-0.0029
798.6096	-0.0049
798.7804	0.0217
798.9512	0.0319
799.122	-0.0503
799.2927	0.0312
799.4635	-0.0854
799.6342	0.0131
799.8049	-0.0093
799.9755	-0.0337
800.1462	0.0574
800.3168	0.018
800.4874	-0.0601
800.658	0.0528
800.8286	0.1276
800.9991	-0.0071
801.1696	0.0124
801.3402	-0.0051
801.5106	-0.06
801.6811	-0.0252
801.8516	0.1369
802.022	0.0321
802.1924	-0.0274
802.3628	-0.007
802.5332	-0.0072
802.7035	0.0234
802.8739	-0.0238
803.0442	-0.0247
803.2145	0.0814
803.3847	0.0622
803.555	0.0849
803.7252	-0.015
803.8954	-0.0091
804.0656	0.0255
804.2358	-0.0604
804.4059	0.018
804.5761	0.0343
804.7462	-0.0467
804.9163	0.0134
805.0864	-0.0502
805.2564	-0.0802
805.4264	-0.0059
805.5965	0.0404
805.7665	0.0489
805.9364	-0.0265
806.1064	0.0448
806.2763	0.0148
806.4462	0.0088
806.6161	0.0164
806.786	0.0304
806.9559	0.0369
807.1257	0.0441
807.2955	-0.0505
807.4653	0.0065
807.6351	0.075
807.8048	0.0259
807.9746	0.0131
808.1443	-0.0828
808.314	0.0448
808.4837	0.0479
808.6533	0.0166
808.8229	0.0583
808.9926	0.0019
809.1622	0.0209
809.3317	0.0165
809.5013	0.0044
809.6708	0.0057
809.8403	0.0105
810.0098	0.0914
810.1793	0.0136
810.3488	0.0266
810.5182	0.164
810.6876	-0.0069
810.857	-0.0207
811.0264	-0.0687
811.1958	0.1663
811.3651	-0.0996
811.5344	0.0791
811.7037	0.0663
811.873	0.0522
812.0422	-0.1527
812.2115	-0.0195
812.3807	-0.1488
812.5499	-0.0242
812.7191	0.0187
812.8882	-0.1042
813.0574	-0.0459
813.2265	-0.0454
813.3956	0.1515
813.5646	0.0644
813.7337	0.0098
813.9027	-0.0384
814.0718	0.061
814.2407	0.0482
814.4097	0.0488
814.5787	0.1075
814.7476	-0.0052
814.9165	0.0573
815.0854	0.0595
815.2543	0.0949
815.4232	0.1406
815.592	-0.0187
815.7608	-0.0103
815.9296	0.0125
816.0984	0.1467
816.2671	-0.2578
816.4359	0.0726
816.6046	0.0264
816.7733	-0.038
816.942	0.0203
817.1106	0.0705
817.2793	-0.0632
817.4479	-0.0129
817.6165	0.0278
817.785	0.0883
817.9536	-0.0902
818.1221	-0.0033
818.2906	-0.0279
818.4591	-0.0394
818.6276	0.0035
818.7961	0.0345
818.9645	0.1486
819.1329	0.1451
819.3013	-0.0412
819.4697	-0.1127
819.638	-0.1021
819.8064	0.0215
819.9747	-0.0598
820.143	-0.0879
820.3113	0.141
820.4795	0.0322
820.6477	0.0932
820.816	0.0078
820.9842	0.0663
821.1523	0.0297
821.3205	0.0832
821.4886	-0.027
821.6567	-0.1147
821.8248	0.1716
821.9929	-0.1167
822.1609	-0.0493
822.329	-0.0439
822.497	0.059
822.665	0.0112
822.833	-0.0022
823.0009	-0.0225
823.1688	0.0757
823.3367	0.1949
823.5046	0.0502
823.6725	0.0047
823.8404	-0.0349
824.0082	-0.002
824.176	-0.0176
824.3438	0.2341
824.5116	0.0211
824.6793	0.0207
824.847	0.0586
825.0147	0.0547
825.1824	-0.0186
825.3501	-0.1703
825.5177	-0.0089
825.6854	0.0444
825.853	0.0085
826.0206	-0.0265
826.1881	-0.0128
826.3557	-0.1321
826.5232	0.1328
826.6907	0.0154
826.8582	-0.0151
827.0257	0.3152
827.1931	0.2236
827.3605	-0.1298
827.528	-0.0872
827.6953	-0.2612
827.8627	-0.2215
828.03	0.1896
828.1974	-0.0183
828.3647	-0.0096
828.532	0.2228
828.6992	0.0127
828.8665	-0.1704
829.0337	0.0579
829.2009	-0.1795
829.3681	0.0379
829.5352	-0.3216
829.7024	0.1842
829.8695	0.0131
830.0366	0.1115
830.2037	0.1991
830.3707	-0.0079
830.5378	-0.1506
830.7048	-0.0208
830.8718	0.1095
831.0388	0.0533
831.2057	0.0909
831.3727	-0.0873
831.5396	-0.0738
831.7065	-0.4248
831.8734	0.1008
832.0402	0.1915
832.2071	-0
832.3739	-0.1424
832.5407	-1.5989
832.7075	-0.3751
832.8742	-0
833.041	0.089
833.2077	0.3206
833.3744	0.1941
833.541	0.3895
833.7077	0.093
833.8743	0.1279
834.0409	0.0333
834.2075	0.0833
834.3741	-0.0567
834.5407	-0.1105
834.7072	0.0057
834.8737	0.2331
835.0402	0.3652
835.2067	-0.1478
835.3731	0.2419
835.5395	-0.0732
835.706	0.0591
835.8723	-0.0532
836.0387	-0.1794
836.2051	0.1954
836.3714	-0.0238
836.5377	-0.0124
836.704	-0.0071
836.8703	-0.2182
837.0365	-0.2053
837.2027	0.1332
837.3689	0.3622
837.5351	0.3028
837.7013	-0.1254
837.8674	1.1527
838.0335	-0.1316
838.1997	0.0289
838.3657	-0
838.5318	0.48
838.6978	-0.0606
838.8639	-0.6508
839.0299	0.024
839.1958	-0.0855
839.3618	1.446
839.5277	0.2011
839.6937	0.2732
839.8596	0.4275
840.0254	0.0298
840.1913	-0.4737
840.3571	-0.1878
840.523	-0
840.6888	-0.0215
840.8545	-0.1618
841.0203	0.1043
841.186	0.3337
841.3517	-0.2135
841.5174	0.2919
841.6831	0.106
841.8488	-0.1749
842.0144	0.1843
842.18	0.5016
842.3456	-0.583
842.5112	-0.533
842.6767	0.0486
842.8422	-0.0434
843.0077	0.024
843.1732	0.4582
843.3387	-0.0077
843.5042	-0
843.6696	0.2752
843.835	-0.0073
844.0004	-0.2525
844.1657	-0
844.3311	-0
844.4964	-0.371
844.6617	-0
844.827	0.4284
844.9923	0.2106
845.1575	-0.1141
845.3227	-0.423
845.4879	0.0258
845.6531	0.1073
845.8183	-0.0946
845.9834	-0
846.1485	0.0885
846.3136	0.3403
846.4787	-0
846.6438	0.7998
846.8088	1.1387
846.9738	-0
847.1388	0.2535
847.3038	0.7823
847.4687	-0
847.6337	-0.3211
847.7986	0.0514
847.9635	0.0267
848.1284	-0
848.2932	0.2113
848.458	-0
848.6228	-0
848.7876	0.4221
848.9524	0.221
849.1172	-1.8591
849.2819	-0
849.4466	-0
849.6113	-0.0916
849.7759	-0
849.9406	-0.0058
850.1052	-1.0351
850.2698	-0
850.4344	-0.2714
850.599	-0.2577
850.7635	0.2391
850.928	-0
851.0925	0.2481
851.257	0.2537
851.4215	-0
851.5859	0.0627
851.7503	-0
851.9147	-0.5933
852.0791	0.1457
852.2434	0.1144
852.4078	-0
852.5721	0.3318
852.7364	-0.1067
852.9007	-0.0767
853.0649	-0
853.2291	0.409
853.3934	-0
853.5575	0.7849
853.7217	1.3892
853.8859	-0.4549
854.05	-0.7379
854.2141	-0
854.3782	-0.1504
854.5423	-0.0806
854.7063	-0.1524
854.8703	0.1251
855.0343	-0.1778
855.1983	0.3263
855.3623	-0
855.5262	-0.3141
855.6901	-0.027
855.854	0.1931
856.0179	0.94
856.1818	0.266
856.3456	0.4508
856.5094	-0
856.6732	-0.0257
856.837	-0.8704
857.0008	-0.6125
857.1645	-0
857.3282	-0.0708
857.4919	0.12
857.6556	-0
857.8192	-0.0761
857.9828	-0.3782
858.1465	-0.1287
858.31	-0.3333
858.4736	-0.7213
858.6372	-0
858.8007	0.4194
858.9642	-0.009
859.1277	0.3313
859.2911	-0.4003
859.4546	-0
859.618	0.4034
859.7814	0.5223
859.9448	-0
860.1081	-0.4939
860.2715	-1.8379
860.4348	-0
860.5981	-0
860.7614	-0.1954
860.9246	-0.2532
861.0879	-0.0065
861.2511	-0.2489
861.4143	-0.1289
861.5774	-0.0591
861.7406	-0
861.9037	-0
862.0668	-0.5197
862.2299	0.1104
862.393	1.2945
862.556	-0
862.7191	0.0118
862.8821	0.094
863.0451	0.3157
863.208	-0.6092
863.371	-0.6125
863.5339	-0
863.6968	0.1743
863.8597	0.1075
864.0225	-0.3508
864.1854	-0.2337
864.3482	-0
864.511	-0.1971
864.6737	-0
864.8365	0.3121
864.9992	-0
865.1619	0.4794
865.3246	-1.9694
865.4873	-0
865.65	-0
865.8126	0.0481
865.9752	-0.2737
866.1378	-0
866.3004	-0.316
866.4629	-0.9473
866.6254	-0
866.7879	0.3063
866.9504	-0
867.1129	-0.3697
867.2753	-0.0852
867.4377	-0.0376
867.6001	-0.837
867.7625	-0.0376
867.9249	0.5637
868.0872	-0.09
868.2495	0.3628
868.4118	-0
868.5741	-0.3489
868.7363	-0
868.8986	-0.1096
869.0608	-0.0233
869.223	-0.7488
869.3851	-0
869.5473	0.0123
869.7094	-0.0913
869.8715	-0.8635
870.0336	0.0248
870.1957	-0.5747
870.3577	0.1098
870.5197	-0.1631
870.6817	-0.5648
870.8437	-0.2545
871.0057	0.3271
871.1676	0.4137
871.3295	-0
871.4914	-0
871.6533	-0.524
871.8151	0.2808
871.977	-0
872.1388	-0.0127
872.3006	-0.1349
872.4623	0.7515
872.6241	-0
872.7858	-0.0481
872.9475	0.11
873.1092	-0.1306
873.2709	0.5907
873.4325	-1.8792
873.5941	-0
873.7557	0.3516
873.9173	0.2364
874.0789	0.4852
874.2404	-0
874.4019	0.011
874.5634	-0
874.7249	-0
874.8863	0.2948
875.0478	-0.0077
875.2092	-0
875.3706	-0.067
875.5319	-0
875.6933	-0
875.8546	0.1159
876.0159	0.427
876.1772	-0.2271
876.3385	-0
876.4997	0.1162
876.6609	0.7528
876.8221	-0
876.9833	-0.2157
877.1445	0.31
877.3056	-0
877.4667	-0
877.6278	-0
877.7889	-0
877.9499	0.3044
878.111	-0.6502
878.272	0.6921
878.433	-0.1069
878.5939	-0.3814
878.7549	-0
878.9158	0.2576
879.0767	0.0304
879.2376	0.0146
879.3984	-0
879.5593	0.3865
879.7201	-1.6681
879.8809	0.0684
880.0417	-0.4135
880.2024	-0.1928
880.3632	-0.2187
880.5239	-0.2095
880.6846	1.7118
880.8452	-0
881.0059	-0.971
881.1665	0.5767
881.3271	0.499
881.4877	0.1746
881.6483	-0
881.8088	-0.4514
881.9693	-0.7427
882.1298	-0.7427
882.2903	-0.7427
