Data from D4ACN5uM440nmA_Absorbance_13-50-25-447.txt Node
Date: Fri Feb 21 13:50:25 GMT 2025
User: LASERRRRR
Spectrometer: FLMT03099
Trigger mode: 0
Integration Time (sec): 1.500000E-2
Scans to average: 1
Electric dark correction enabled: true
Nonlinearity correction enabled: false
Boxcar width: 0
XAxis mode: Wavelengths
Number of Pixels in Spectrum: 3648
>>>>>Begin Spectral Data<<<<<
179.3399	-0
179.5586	-0
179.7771	-0
179.9957	-0.2909
180.2143	-0
180.4329	0.2547
180.6514	-0
180.8699	0.1298
181.0885	0.9496
181.307	-0.3037
181.5255	0.2767
181.744	-0.1655
181.9625	0.6214
182.181	-0.6386
182.3994	0.3479
182.6179	-0.4108
182.8363	-0.2311
183.0547	-0
183.2732	0.5419
183.4916	0.1681
183.71	0.2927
183.9284	-0.0047
184.1467	1.3044
184.3651	0.0538
184.5835	0.2921
184.8018	0.0684
185.0201	0.4128
185.2385	0.3428
185.4568	0.4948
185.6751	0.2194
185.8934	0.4023
186.1117	0.1169
186.3299	0.0741
186.5482	0.1895
186.7664	0.3455
186.9847	0.023
187.2029	0.4009
187.4211	0.0217
187.6393	0.2176
187.8575	0.1873
188.0757	0.4894
188.2939	0.2679
188.512	0.2387
188.7302	0.1123
188.9483	0.3945
189.1665	0.3411
189.3846	0.1466
189.6027	0.1159
189.8208	0.2928
190.0389	0.1746
190.257	0.2471
190.475	0.1779
190.6931	0.281
190.9111	0.239
191.1292	0.1561
191.3472	0.1177
191.5652	0.5132
191.7832	0.221
192.0012	0.0803
192.2192	0.1541
192.4371	0.1656
192.6551	0.3189
192.873	0.1604
193.091	0.2765
193.3089	0.2845
193.5268	0.306
193.7447	0.1885
193.9626	0.2312
194.1805	0.3291
194.3984	0.1767
194.6162	0.2551
194.8341	0.3655
195.0519	0.248
195.2697	0.3033
195.4875	0.4065
195.7054	0.2383
195.9231	0.2342
196.1409	0.3893
196.3587	0.2457
196.5765	0.3125
196.7942	0.3804
197.012	0.3747
197.2297	0.3508
197.4474	0.3938
197.6651	0.3444
197.8828	0.3577
198.1005	0.402
198.3182	0.4027
198.5358	0.3481
198.7535	0.3772
198.9711	0.4123
199.1888	0.4162
199.4064	0.4627
199.624	0.3385
199.8416	0.3715
200.0592	0.3814
200.2767	0.3879
200.4943	0.456
200.7119	0.4035
200.9294	0.4017
201.1469	0.4126
201.3645	0.4561
201.582	0.4328
201.7995	0.4422
202.017	0.428
202.2344	0.4169
202.4519	0.3875
202.6694	0.3937
202.8868	0.3876
203.1042	0.4424
203.3217	0.4015
203.5391	0.3988
203.7565	0.3703
203.9739	0.3654
204.1913	0.3747
204.4086	0.3623
204.626	0.3563
204.8433	0.3406
205.0607	0.3951
205.278	0.3288
205.4953	0.3616
205.7126	0.3424
205.9299	0.3302
206.1472	0.3113
206.3644	0.3515
206.5817	0.3279
206.7989	0.3168
207.0162	0.3265
207.2334	0.3433
207.4506	0.3349
207.6678	0.3227
207.885	0.2971
208.1022	0.289
208.3194	0.3001
208.5365	0.3087
208.7537	0.2998
208.9708	0.2994
209.1879	0.2933
209.405	0.2948
209.6222	0.2868
209.8392	0.2953
210.0563	0.2818
210.2734	0.2615
210.4905	0.2937
210.7075	0.2794
210.9245	0.2579
211.1416	0.2723
211.3586	0.2591
211.5756	0.2618
211.7926	0.2651
212.0096	0.2589
212.2265	0.262
212.4435	0.2611
212.6604	0.2427
212.8774	0.2374
213.0943	0.2585
213.3112	0.2559
213.5281	0.2625
213.745	0.2562
213.9619	0.2515
214.1788	0.256
214.3956	0.2717
214.6125	0.2523
214.8293	0.2447
215.0461	0.2581
215.2629	0.2582
215.4798	0.238
215.6965	0.2576
215.9133	0.2287
216.1301	0.2591
216.3469	0.2511
216.5636	0.2408
216.7803	0.2475
216.9971	0.2567
217.2138	0.2521
217.4305	0.2595
217.6472	0.2465
217.8639	0.2509
218.0805	0.2493
218.2972	0.249
218.5138	0.2566
218.7305	0.2632
218.9471	0.2423
219.1637	0.2761
219.3803	0.2627
219.5969	0.2579
219.8135	0.2516
220.0301	0.2577
220.2466	0.2646
220.4632	0.2571
220.6797	0.2615
220.8962	0.2531
221.1127	0.2665
221.3292	0.267
221.5457	0.2644
221.7622	0.255
221.9787	0.2887
222.1951	0.2654
222.4116	0.2777
222.628	0.2877
222.8444	0.2778
223.0608	0.2815
223.2772	0.2847
223.4936	0.2778
223.71	0.2946
223.9264	0.2898
224.1427	0.2883
224.3591	0.2915
224.5754	0.2879
224.7917	0.2842
225.008	0.295
225.2243	0.3
225.4406	0.2939
225.6569	0.3117
225.8732	0.3121
226.0894	0.2995
226.3057	0.3145
226.5219	0.3105
226.7381	0.319
226.9543	0.31
227.1705	0.3241
227.3867	0.3204
227.6029	0.3222
227.8191	0.3441
228.0352	0.3361
228.2513	0.3502
228.4675	0.3456
228.6836	0.3445
228.8997	0.3574
229.1158	0.354
229.3319	0.3644
229.548	0.3538
229.764	0.3603
229.9801	0.3734
230.1961	0.3752
230.4121	0.373
230.6282	0.3797
230.8442	0.3994
231.0602	0.3801
231.2761	0.379
231.4921	0.3922
231.7081	0.3902
231.924	0.3974
232.14	0.3988
232.3559	0.3989
232.5718	0.4163
232.7877	0.4066
233.0036	0.4018
233.2195	0.4198
233.4353	0.4119
233.6512	0.4147
233.867	0.4192
234.0829	0.4231
234.2987	0.4174
234.5145	0.4373
234.7303	0.4324
234.9461	0.4478
235.1619	0.441
235.3776	0.4258
235.5934	0.4326
235.8091	0.4451
236.0249	0.4373
236.2406	0.4481
236.4563	0.4423
236.672	0.4428
236.8877	0.4498
237.1034	0.4456
237.319	0.4524
237.5347	0.4446
237.7503	0.448
237.966	0.4664
238.1816	0.4553
238.3972	0.4576
238.6128	0.4705
238.8284	0.4631
239.0439	0.4628
239.2595	0.459
239.475	0.4681
239.6906	0.4553
239.9061	0.4592
240.1216	0.4593
240.3371	0.4583
240.5526	0.456
240.7681	0.4545
240.9836	0.4536
241.199	0.4555
241.4145	0.4579
241.6299	0.4495
241.8453	0.4431
242.0607	0.439
242.2761	0.4304
242.4915	0.4215
242.7069	0.4188
242.9223	0.419
243.1376	0.4147
243.353	0.4084
243.5683	0.396
243.7836	0.3907
243.9989	0.376
244.2142	0.3759
244.4295	0.3783
244.6448	0.3682
244.86	0.3507
245.0753	0.3515
245.2905	0.3481
245.5057	0.3423
245.721	0.343
245.9362	0.3356
246.1514	0.3128
246.3665	0.3095
246.5817	0.3046
246.7969	0.3002
247.012	0.2962
247.2271	0.2954
247.4423	0.2903
247.6574	0.2785
247.8725	0.2727
248.0876	0.2641
248.3026	0.2639
248.5177	0.2625
248.7328	0.2476
248.9478	0.2487
249.1628	0.2486
249.3779	0.2386
249.5929	0.2387
249.8079	0.232
250.0228	0.2336
250.2378	0.2329
250.4528	0.228
250.6677	0.2208
250.8827	0.2159
251.0976	0.2138
251.3125	0.2178
251.5274	0.208
251.7423	0.2075
251.9572	0.2077
252.172	0.2129
252.3869	0.2093
252.6017	0.2024
252.8166	0.2027
253.0314	0.1966
253.2462	0.1945
253.461	0.1924
253.6758	0.1926
253.8906	0.1928
254.1053	0.1964
254.3201	0.1914
254.5348	0.1849
254.7496	0.1875
254.9643	0.1944
255.179	0.1867
255.3937	0.1858
255.6083	0.1899
255.823	0.1899
256.0377	0.1844
256.2523	0.1812
256.467	0.188
256.6816	0.1843
256.8962	0.1794
257.1108	0.1887
257.3254	0.1819
257.54	0.1809
257.7545	0.1851
257.9691	0.1768
258.1836	0.1787
258.3981	0.1812
258.6127	0.1748
258.8272	0.1875
259.0417	0.1708
259.2561	0.1773
259.4706	0.1749
259.6851	0.1801
259.8995	0.1761
260.114	0.1797
260.3284	0.179
260.5428	0.1785
260.7572	0.172
260.9716	0.1803
261.186	0.1762
261.4003	0.1732
261.6147	0.1738
261.829	0.1759
262.0433	0.1777
262.2577	0.1732
262.472	0.1773
262.6863	0.1803
262.9005	0.173
263.1148	0.1801
263.3291	0.179
263.5433	0.1802
263.7576	0.1843
263.9718	0.1824
264.186	0.1827
264.4002	0.1829
264.6144	0.185
264.8286	0.1806
265.0427	0.1862
265.2569	0.1845
265.471	0.1827
265.6851	0.1841
265.8993	0.1827
266.1134	0.1817
266.3275	0.1831
266.5415	0.1833
266.7556	0.1849
266.9697	0.1826
267.1837	0.1822
267.3978	0.183
267.6118	0.1786
267.8258	0.182
268.0398	0.1845
268.2538	0.1869
268.4677	0.1811
268.6817	0.184
268.8957	0.1746
269.1096	0.1714
269.3235	0.1769
269.5374	0.1844
269.7514	0.1752
269.9652	0.1796
270.1791	0.1701
270.393	0.1759
270.6068	0.1777
270.8207	0.1765
271.0345	0.1743
271.2483	0.169
271.4622	0.1758
271.676	0.1781
271.8897	0.1759
272.1035	0.1795
272.3173	0.1764
272.531	0.1741
272.7448	0.173
272.9585	0.1696
273.1722	0.1706
273.3859	0.175
273.5996	0.1701
273.8133	0.1778
274.0269	0.1706
274.2406	0.1801
274.4542	0.1801
274.6679	0.1788
274.8815	0.1855
275.0951	0.1785
275.3087	0.1818
275.5223	0.1763
275.7358	0.1788
275.9494	0.1813
276.1629	0.1835
276.3765	0.1835
276.59	0.1807
276.8035	0.1779
277.017	0.1838
277.2305	0.1846
277.444	0.1829
277.6574	0.1794
277.8709	0.1903
278.0843	0.1855
278.2978	0.1849
278.5112	0.1919
278.7246	0.1719
278.938	0.1807
279.1513	0.1847
279.3647	0.1847
279.5781	0.1864
279.7914	0.1864
280.0047	0.1921
280.2181	0.1813
280.4314	0.1841
280.6447	0.1902
280.8579	0.1767
281.0712	0.1864
281.2845	0.1815
281.4977	0.1825
281.711	0.185
281.9242	0.1802
282.1374	0.1844
282.3506	0.1809
282.5638	0.1879
282.7769	0.1802
282.9901	0.1775
283.2033	0.1837
283.4164	0.1824
283.6295	0.1834
283.8426	0.1843
284.0557	0.1825
284.2688	0.1874
284.4819	0.1871
284.695	0.1855
284.908	0.1824
285.1211	0.1837
285.3341	0.1823
285.5471	0.1913
285.7601	0.1881
285.9731	0.188
286.1861	0.1875
286.3991	0.187
286.612	0.1917
286.825	0.1866
287.0379	0.1828
287.2508	0.188
287.4637	0.1929
287.6766	0.1887
287.8895	0.184
288.1024	0.1912
288.3152	0.1947
288.5281	0.184
288.7409	0.1916
288.9538	0.1903
289.1666	0.1898
289.3794	0.1859
289.5922	0.1862
289.8049	0.1951
290.0177	0.1904
290.2304	0.1888
290.4432	0.1896
290.6559	0.1923
290.8686	0.1912
291.0813	0.1879
291.294	0.1923
291.5067	0.19
291.7194	0.191
291.932	0.1905
292.1447	0.1898
292.3573	0.1891
292.5699	0.1988
292.7825	0.1859
292.9951	0.1907
293.2077	0.1859
293.4203	0.1879
293.6328	0.1931
293.8454	0.1928
294.0579	0.1859
294.2704	0.1937
294.4829	0.1927
294.6954	0.1871
294.9079	0.1873
295.1204	0.1883
295.3328	0.194
295.5453	0.1925
295.7577	0.1909
295.9701	0.192
296.1825	0.1952
296.3949	0.1862
296.6073	0.1892
296.8197	0.1866
297.0321	0.1981
297.2444	0.1884
297.4567	0.1936
297.6691	0.1909
297.8814	0.1922
298.0937	0.1881
298.306	0.1833
298.5182	0.1958
298.7305	0.1916
298.9428	0.1873
299.155	0.1845
299.3672	0.1928
299.5794	0.188
299.7916	0.1925
300.0038	0.1945
300.216	0.1906
300.4282	0.1918
300.6403	0.1951
300.8525	0.1902
301.0646	0.1922
301.2767	0.1923
301.4888	0.1913
301.7009	0.1959
301.913	0.1927
302.125	0.189
302.3371	0.1976
302.5491	0.193
302.7612	0.1946
302.9732	0.191
303.1852	0.1932
303.3972	0.1952
303.6092	0.1907
303.8211	0.1896
304.0331	0.1872
304.245	0.1841
304.457	0.1839
304.6689	0.1886
304.8808	0.1849
305.0927	0.1866
305.3046	0.1879
305.5164	0.1837
305.7283	0.1831
305.9401	0.1751
306.152	0.1776
306.3638	0.1733
306.5756	0.1795
306.7874	0.1758
306.9992	0.1705
307.2109	0.1734
307.4227	0.1707
307.6344	0.1733
307.8462	0.1677
308.0579	0.173
308.2696	0.1653
308.4813	0.1721
308.693	0.1607
308.9046	0.1624
309.1163	0.1623
309.328	0.1606
309.5396	0.1477
309.7512	0.1541
309.9628	0.1567
310.1744	0.1477
310.386	0.1481
310.5976	0.1478
310.8091	0.1513
311.0207	0.1454
311.2322	0.1432
311.4437	0.1453
311.6552	0.1478
311.8667	0.1417
312.0782	0.1455
312.2897	0.1432
312.5012	0.1406
312.7126	0.1329
312.924	0.1364
313.1355	0.1352
313.3469	0.1377
313.5583	0.1345
313.7696	0.1325
313.981	0.1411
314.1924	0.1306
314.4037	0.1307
314.6151	0.1341
314.8264	0.1394
315.0377	0.1347
315.249	0.1365
315.4603	0.13
315.6716	0.1317
315.8828	0.1268
316.0941	0.1335
316.3053	0.1302
316.5165	0.1267
316.7277	0.1321
316.9389	0.1334
317.1501	0.1299
317.3613	0.1308
317.5724	0.1237
317.7836	0.1197
317.9947	0.1263
318.2058	0.1274
318.417	0.1257
318.6281	0.1246
318.8391	0.128
319.0502	0.1276
319.2613	0.1252
319.4723	0.1285
319.6834	0.125
319.8944	0.1265
320.1054	0.13
320.3164	0.1173
320.5274	0.1214
320.7383	0.1251
320.9493	0.1309
321.1602	0.1219
321.3712	0.1281
321.5821	0.119
321.793	0.132
322.0039	0.1289
322.2148	0.1267
322.4257	0.1277
322.6365	0.1213
322.8474	0.1256
323.0582	0.1269
323.269	0.1267
323.4798	0.1329
323.6906	0.1263
323.9014	0.126
324.1122	0.1229
324.3229	0.1334
324.5337	0.1313
324.7444	0.1304
324.9551	0.1271
325.1658	0.1261
325.3765	0.1336
325.5872	0.1275
325.7979	0.1279
326.0085	0.1259
326.2192	0.1254
326.4298	0.133
326.6404	0.1332
326.851	0.1291
327.0616	0.1359
327.2722	0.1345
327.4828	0.1326
327.6933	0.1454
327.9039	0.1297
328.1144	0.1344
328.3249	0.1399
328.5354	0.1309
328.7459	0.1314
328.9564	0.1292
329.1669	0.1376
329.3773	0.1353
329.5878	0.1367
329.7982	0.1362
330.0086	0.1308
330.219	0.1351
330.4294	0.1379
330.6398	0.1357
330.8502	0.1431
331.0605	0.1386
331.2708	0.1368
331.4812	0.1345
331.6915	0.1335
331.9018	0.1356
332.1121	0.1437
332.3224	0.1379
332.5326	0.134
332.7429	0.1361
332.9531	0.1407
333.1633	0.137
333.3735	0.128
333.5837	0.1412
333.7939	0.1366
334.0041	0.1467
334.2143	0.1305
334.4244	0.1463
334.6346	0.141
334.8447	0.1316
335.0548	0.14
335.2649	0.1455
335.475	0.1476
335.685	0.1372
335.8951	0.137
336.1051	0.1423
336.3152	0.1428
336.5252	0.1388
336.7352	0.1367
336.9452	0.1384
337.1552	0.1418
337.3652	0.1366
337.5751	0.1404
337.7851	0.1473
337.995	0.143
338.2049	0.141
338.4148	0.144
338.6247	0.1437
338.8346	0.144
339.0445	0.1405
339.2543	0.1453
339.4642	0.1407
339.674	0.1367
339.8838	0.1484
340.0936	0.1421
340.3034	0.1453
340.5132	0.1338
340.7229	0.1452
340.9327	0.156
341.1424	0.1434
341.3522	0.1381
341.5619	0.1478
341.7716	0.1467
341.9813	0.1486
342.1909	0.1568
342.4006	0.1502
342.6102	0.152
342.8199	0.1504
343.0295	0.1496
343.2391	0.1546
343.4487	0.1546
343.6583	0.1589
343.8679	0.1546
344.0774	0.152
344.287	0.1548
344.4965	0.1584
344.706	0.1603
344.9155	0.1509
345.125	0.1555
345.3345	0.1603
345.544	0.1588
345.7534	0.157
345.9629	0.1659
346.1723	0.1623
346.3817	0.167
346.5911	0.1651
346.8005	0.1671
347.0099	0.1622
347.2193	0.1731
347.4286	0.1772
347.638	0.1667
347.8473	0.1749
348.0566	0.1748
348.2659	0.17
348.4752	0.1701
348.6845	0.1685
348.8937	0.1691
349.103	0.172
349.3122	0.1725
349.5214	0.1745
349.7306	0.1799
349.9398	0.1671
350.149	0.1778
350.3582	0.1739
350.5674	0.1767
350.7765	0.1777
350.9856	0.1714
351.1948	0.1856
351.4039	0.1834
351.613	0.1773
351.822	0.1774
352.0311	0.1852
352.2402	0.1778
352.4492	0.1802
352.6582	0.1791
352.8672	0.1789
353.0762	0.1841
353.2852	0.1815
353.4942	0.1919
353.7032	0.1807
353.9121	0.1789
354.1211	0.1918
354.33	0.1864
354.5389	0.1804
354.7478	0.1788
354.9567	0.1864
355.1655	0.1857
355.3744	0.1829
355.5833	0.1846
355.7921	0.1889
356.0009	0.1916
356.2097	0.1817
356.4185	0.1888
356.6273	0.1862
356.8361	0.1874
357.0448	0.191
357.2536	0.1901
357.4623	0.1952
357.671	0.1922
357.8797	0.1879
358.0884	0.189
358.2971	0.1942
358.5057	0.1942
358.7144	0.2043
358.923	0.1969
359.1316	0.1957
359.3402	0.1963
359.5488	0.1984
359.7574	0.1973
359.966	0.1956
360.1746	0.1974
360.3831	0.2067
360.5916	0.2035
360.8002	0.2084
361.0087	0.2031
361.2172	0.2058
361.4256	0.203
361.6341	0.211
361.8426	0.2101
362.051	0.2111
362.2594	0.2075
362.4678	0.2129
362.6762	0.2204
362.8846	0.2104
363.093	0.2064
363.3014	0.2206
363.5097	0.2148
363.718	0.2206
363.9264	0.2201
364.1347	0.2166
364.343	0.2213
364.5513	0.2129
364.7595	0.2238
364.9678	0.2298
365.176	0.2268
365.3842	0.2272
365.5925	0.2199
365.8007	0.2257
366.0089	0.2316
366.217	0.2267
366.4252	0.229
366.6333	0.2293
366.8415	0.2303
367.0496	0.2332
367.2577	0.2338
367.4658	0.2236
367.6739	0.2323
367.882	0.2403
368.09	0.235
368.2981	0.2391
368.5061	0.2382
368.7141	0.2377
368.9221	0.2452
369.1301	0.2363
369.3381	0.2457
369.5461	0.2407
369.754	0.2491
369.962	0.2404
370.1699	0.2503
370.3778	0.2518
370.5857	0.2395
370.7936	0.2431
371.0015	0.2378
371.2093	0.2472
371.4172	0.2438
371.625	0.2527
371.8328	0.2506
372.0406	0.2553
372.2484	0.2546
372.4562	0.2478
372.664	0.2467
372.8717	0.2531
373.0795	0.2572
373.2872	0.266
373.4949	0.2552
373.7026	0.2592
373.9103	0.2551
374.118	0.257
374.3256	0.261
374.5333	0.2554
374.7409	0.2658
374.9485	0.2607
375.1561	0.2628
375.3637	0.2687
375.5713	0.2755
375.7789	0.2526
375.9864	0.2566
376.194	0.2723
376.4015	0.26
376.609	0.2673
376.8165	0.2743
377.024	0.2675
377.2315	0.2701
377.4389	0.2654
377.6464	0.277
377.8538	0.2731
378.0612	0.2824
378.2686	0.2723
378.476	0.2856
378.6834	0.2752
378.8908	0.2802
379.0981	0.275
379.3055	0.2797
379.5128	0.2795
379.7201	0.2819
379.9274	0.2786
380.1347	0.2882
380.342	0.2916
380.5492	0.2772
380.7565	0.2804
380.9637	0.2892
381.1709	0.2911
381.3781	0.2863
381.5853	0.2838
381.7925	0.2848
381.9997	0.2914
382.2068	0.288
382.4139	0.2904
382.6211	0.2896
382.8282	0.2965
383.0353	0.2951
383.2424	0.2905
383.4494	0.288
383.6565	0.2931
383.8635	0.2941
384.0706	0.2977
384.2776	0.2926
384.4846	0.2913
384.6916	0.2899
384.8986	0.2925
385.1055	0.3021
385.3125	0.2945
385.5194	0.2989
385.7263	0.2838
385.9333	0.298
386.1402	0.2898
386.347	0.2926
386.5539	0.3042
386.7608	0.2891
386.9676	0.2898
387.1744	0.2958
387.3813	0.2956
387.5881	0.2871
387.7948	0.3076
388.0016	0.3108
388.2084	0.2956
388.4151	0.2945
388.6219	0.2859
388.8286	0.296
389.0353	0.297
389.242	0.2871
389.4487	0.2957
389.6553	0.2843
389.862	0.2889
390.0686	0.2898
390.2753	0.2951
390.4819	0.2927
390.6885	0.284
390.8951	0.2922
391.1016	0.2867
391.3082	0.284
391.5147	0.2816
391.7213	0.2812
391.9278	0.2785
392.1343	0.2894
392.3408	0.2826
392.5473	0.2732
392.7537	0.2696
392.9602	0.2715
393.1666	0.2746
393.373	0.2622
393.5794	0.263
393.7858	0.2742
393.9922	0.2616
394.1986	0.2781
394.4049	0.2676
394.6113	0.2647
394.8176	0.2615
395.0239	0.2611
395.2302	0.2629
395.4365	0.2672
395.6428	0.2603
395.8491	0.2577
396.0553	0.2675
396.2615	0.2557
396.4678	0.2605
396.674	0.2541
396.8802	0.2545
397.0863	0.2521
397.2925	0.2612
397.4987	0.2493
397.7048	0.261
397.9109	0.2473
398.117	0.2591
398.3231	0.2592
398.5292	0.2482
398.7353	0.2472
398.9413	0.2549
399.1474	0.2493
399.3534	0.2551
399.5594	0.2602
399.7654	0.2564
399.9714	0.2515
400.1774	0.2435
400.3833	0.2507
400.5893	0.2543
400.7952	0.2551
401.0011	0.2514
401.207	0.2466
401.4129	0.253
401.6188	0.2565
401.8247	0.2595
402.0305	0.2387
402.2364	0.2443
402.4422	0.2349
402.648	0.2496
402.8538	0.254
403.0596	0.2508
403.2654	0.2408
403.4711	0.2467
403.6768	0.2453
403.8826	0.2511
404.0883	0.2536
404.294	0.2461
404.4997	0.2593
404.7054	0.2519
404.911	0.245
405.1167	0.2545
405.3223	0.2405
405.5279	0.2515
405.7335	0.2577
405.9391	0.245
406.1447	0.2431
406.3502	0.2501
406.5558	0.2527
406.7613	0.2523
406.9668	0.2513
407.1724	0.2452
407.3778	0.2474
407.5833	0.2475
407.7888	0.2574
407.9942	0.2427
408.1997	0.2498
408.4051	0.2545
408.6105	0.2519
408.8159	0.2418
409.0213	0.2479
409.2267	0.2475
409.432	0.2507
409.6374	0.2506
409.8427	0.2571
410.048	0.2514
410.2533	0.2494
410.4586	0.2389
410.6639	0.2491
410.8691	0.2333
411.0744	0.2393
411.2796	0.2497
411.4848	0.2525
411.69	0.2478
411.8952	0.2554
412.1004	0.2428
412.3056	0.2411
412.5107	0.2521
412.7158	0.249
412.921	0.2569
413.1261	0.2472
413.3312	0.2522
413.5362	0.2589
413.7413	0.2479
413.9464	0.2348
414.1514	0.2417
414.3564	0.2411
414.5614	0.2409
414.7664	0.2463
414.9714	0.2385
415.1764	0.2301
415.3813	0.241
415.5863	0.2465
415.7912	0.2445
415.9961	0.2442
416.201	0.2431
416.4059	0.2392
416.6108	0.2435
416.8156	0.242
417.0205	0.2463
417.2253	0.2538
417.4301	0.2439
417.6349	0.2445
417.8397	0.2405
418.0445	0.2374
418.2492	0.2431
418.454	0.2325
418.6587	0.2499
418.8634	0.2506
419.0681	0.2332
419.2728	0.2441
419.4775	0.2441
419.6822	0.2363
419.8868	0.2284
420.0915	0.2359
420.2961	0.2248
420.5007	0.2397
420.7053	0.2308
420.9099	0.2358
421.1144	0.2239
421.319	0.2163
421.5235	0.2242
421.728	0.2313
421.9325	0.2385
422.137	0.2192
422.3415	0.2239
422.546	0.2141
422.7504	0.224
422.9549	0.2296
423.1593	0.2191
423.3637	0.2213
423.5681	0.2264
423.7725	0.2153
423.9769	0.2218
424.1812	0.2168
424.3856	0.2197
424.5899	0.2132
424.7942	0.2093
424.9985	0.2127
425.2028	0.2192
425.4071	0.2164
425.6113	0.2092
425.8156	0.204
426.0198	0.2044
426.224	0.2147
426.4282	0.1931
426.6324	0.2077
426.8366	0.2086
427.0407	0.2132
427.2449	0.2044
427.449	0.1941
427.6531	0.2133
427.8572	0.1968
428.0613	0.1996
428.2654	0.1973
428.4694	0.1921
428.6735	0.1912
428.8775	0.1971
429.0815	0.1968
429.2855	0.1917
429.4895	0.2022
429.6935	0.194
429.8975	0.181
430.1014	0.1986
430.3053	0.1884
430.5093	0.1839
430.7132	0.1877
430.9171	0.1797
431.1209	0.1769
431.3248	0.1702
431.5286	0.1719
431.7325	0.1775
431.9363	0.1723
432.1401	0.1777
432.3439	0.167
432.5477	0.1637
432.7514	0.1632
432.9552	0.1651
433.1589	0.1649
433.3627	0.1697
433.5664	0.1615
433.7701	0.1602
433.9737	0.1635
434.1774	0.1492
434.3811	0.1526
434.5847	0.1608
434.7883	0.1506
434.9919	0.1464
435.1955	0.1522
435.3991	0.1461
435.6027	0.1448
435.8062	0.1603
436.0098	0.1428
436.2133	0.1386
436.4168	0.1357
436.6203	0.1316
436.8238	0.1274
437.0272	0.1323
437.2307	0.1309
437.4341	0.1273
437.6375	0.1335
437.841	0.1165
438.0443	0.1327
438.2477	0.1167
438.4511	0.1136
438.6545	0.1263
438.8578	0.1232
439.0611	0.1114
439.2644	0.1157
439.4677	0.1171
439.671	0.1034
439.8743	0.1106
440.0775	0.1144
440.2808	0.1103
440.484	0.1065
440.6872	0.1049
440.8904	0.0993
441.0936	0.1026
441.2967	0.1
441.4999	0.0997
441.703	0.0913
441.9062	0.1033
442.1093	0.1088
442.3124	0.0969
442.5155	0.1002
442.7185	0.0857
442.9216	0.0798
443.1246	0.0923
443.3276	0.0942
443.5307	0.0762
443.7337	0.0862
443.9366	0.0812
444.1396	0.0786
444.3426	0.081
444.5455	0.0788
444.7484	0.0747
444.9513	0.0701
445.1542	0.0774
445.3571	0.0806
445.56	0.0658
445.7628	0.0736
445.9657	0.073
446.1685	0.0703
446.3713	0.0671
446.5741	0.0708
446.7769	0.0708
446.9797	0.0695
447.1824	0.0625
447.3852	0.0492
447.5879	0.0657
447.7906	0.0517
447.9933	0.0648
448.196	0.0515
448.3986	0.0559
448.6013	0.0542
448.8039	0.0584
449.0066	0.0609
449.2092	0.0631
449.4118	0.0512
449.6143	0.0506
449.8169	0.045
450.0195	0.0524
450.222	0.0495
450.4245	0.0442
450.627	0.0474
450.8295	0.0433
451.032	0.0488
451.2345	0.0362
451.4369	0.0431
451.6394	0.0381
451.8418	0.0478
452.0442	0.0483
452.2466	0.0298
452.449	0.043
452.6513	0.0332
452.8537	0.0345
453.056	0.0398
453.2583	0.0327
453.4607	0.0283
453.663	0.0358
453.8652	0.0324
454.0675	0.0393
454.2697	0.0311
454.472	0.0231
454.6742	0.032
454.8764	0.0398
455.0786	0.0343
455.2808	0.0276
455.4829	0.0344
455.6851	0.0267
455.8872	0.024
456.0893	0.0292
456.2915	0.0206
456.4935	0.0356
456.6956	0.0205
456.8977	0.0198
457.0997	0.0331
457.3018	0.0269
457.5038	0.0334
457.7058	0.0249
457.9078	0.0267
458.1098	0.0255
458.3117	0.0304
458.5137	0.0119
458.7156	0.0278
458.9175	0.0244
459.1194	0.0149
459.3213	0.0223
459.5232	0.0233
459.725	0.0146
459.9269	0.0234
460.1287	0.0123
460.3305	0.0248
460.5323	0.0175
460.7341	0.0244
460.9359	0.0081
461.1376	0.0237
461.3394	0.0251
461.5411	0.0288
461.7428	0.0187
461.9445	0.019
462.1462	0.012
462.3479	0.0172
462.5495	0.0243
462.7512	0.024
462.9528	0.0078
463.1544	0.0145
463.356	0.0141
463.5576	0.0132
463.7592	0.0163
463.9607	0.0168
464.1623	0.0151
464.3638	0.011
464.5653	0.0096
464.7668	0.0179
464.9683	0.0185
465.1697	0.0141
465.3712	0.0064
465.5726	0.0117
465.7741	0.0154
465.9755	0.0196
466.1769	0.0076
466.3782	0.0118
466.5796	0.0195
466.7809	0.0132
466.9823	0.018
467.1836	0.0108
467.3849	0.0101
467.5862	0.0012
467.7875	0.0052
467.9887	0.0093
468.19	-0.0002
468.3912	0.0177
468.5924	0.0082
468.7936	0.0129
468.9948	0.0093
469.196	0.0123
469.3972	0.0104
469.5983	0.0111
469.7994	0.0178
470.0006	0.0055
470.2017	0.0202
470.4027	0.0336
470.6038	0.0063
470.8049	0.0148
471.0059	0.0137
471.2069	0.0115
471.408	0.0055
471.6089	0.0194
471.8099	0.0074
472.0109	0.0106
472.2119	0.0114
472.4128	0.0142
472.6137	0.0152
472.8146	0.0096
473.0155	0.016
473.2164	0.014
473.4173	0.0058
473.6181	0.0065
473.819	0.0133
474.0198	0.0001
474.2206	0.0077
474.4214	0.0099
474.6222	0.0007
474.8229	0.0048
475.0237	0.0175
475.2244	0.0099
475.4251	0.0066
475.6258	0.0085
475.8265	0.0051
476.0272	0.0015
476.2278	0.0101
476.4285	0.0078
476.6291	0.0016
476.8297	0.0098
477.0303	0.0015
477.2309	0.008
477.4315	0.0068
477.632	-0.0023
477.8326	0.0123
478.0331	0.0076
478.2336	0.0051
478.4341	0.0071
478.6346	0.0038
478.8351	0.0006
479.0355	0.0079
479.236	0.0198
479.4364	0.0113
479.6368	0.0146
479.8372	0.0113
480.0376	0.0093
480.2379	0.0099
480.4383	0.0174
480.6386	-0
480.8389	0.0063
481.0392	0.0042
481.2395	0.0121
481.4398	0.0087
481.6401	0.0118
481.8403	-0.0036
482.0405	0.0056
482.2408	0.0086
482.441	0.0097
482.6411	0.0093
482.8413	0.0062
483.0415	0.0059
483.2416	0.0062
483.4417	0.0054
483.6419	-0.0018
483.8419	0.0041
484.042	0.0092
484.2421	0.0025
484.4422	0.0065
484.6422	-0.0048
484.8422	0.0066
485.0422	0.0052
485.2422	0.0055
485.4422	0.0043
485.6422	0.0046
485.8421	0.0032
486.042	0.0097
486.242	0.002
486.4419	-0.0003
486.6417	0.0038
486.8416	0.0062
487.0415	-0.0025
487.2413	0.0009
487.4411	0.0088
487.641	0.0083
487.8408	0.008
488.0405	0.0095
488.2403	0.0059
488.4401	-0.0013
488.6398	0.0028
488.8395	0.0042
489.0392	0.0118
489.2389	0.0098
489.4386	-0.0039
489.6383	0.0151
489.8379	0.0041
490.0376	0.0082
490.2372	-0.0014
490.4368	0.0028
490.6364	0.0045
490.836	0.0069
491.0355	-0.0027
491.2351	0.0073
491.4346	0.0035
491.6341	-0.0004
491.8336	0.015
492.0331	0.0046
492.2326	0.005
492.432	0.0006
492.6315	0.0145
492.8309	-0.0027
493.0303	0.0103
493.2297	0.0069
493.4291	0.0027
493.6284	0.0082
493.8278	0.0039
494.0271	0.0111
494.2264	-0.0016
494.4257	0.0123
494.625	-0.002
494.8243	-0.001
495.0236	0.0088
495.2228	0.0077
495.422	0.011
495.6213	0.01
495.8205	0.0099
496.0196	0.0059
496.2188	0.008
496.418	0.0115
496.6171	0.0059
496.8162	0.0087
497.0153	0.0121
497.2144	0.006
497.4135	0.005
497.6126	0.0045
497.8116	0.0029
498.0107	0.0108
498.2097	0.0079
498.4087	0.0078
498.6077	-0.0088
498.8067	-0.001
499.0056	0.0061
499.2046	0.0134
499.4035	0.0074
499.6024	-0.0042
499.8013	0.0132
500.0002	0.0071
500.199	0.0136
500.3979	0.0055
500.5967	0.0095
500.7956	0.0075
500.9944	0.0025
501.1932	0.0177
501.3919	0.0105
501.5907	0.01
501.7895	0.006
501.9882	0.0045
502.1869	0.0111
502.3856	0.0054
502.5843	0.0069
502.783	0.0108
502.9816	0.0145
503.1803	-0.0043
503.3789	0.0114
503.5775	0.0051
503.7761	-0.0043
503.9747	0.0159
504.1732	-0.0012
504.3718	0.0123
504.5703	0.0072
504.7689	-0.0013
504.9674	-0.0021
505.1658	0.0055
505.3643	0.0185
505.5628	0.0114
505.7612	0.0145
505.9597	0.0053
506.1581	0.0028
506.3565	0.0075
506.5549	0.0059
506.7532	0.0004
506.9516	0.006
507.1499	0.0068
507.3482	-0.0023
507.5465	0.0048
507.7448	0.0059
507.9431	0.0133
508.1414	0.0072
508.3396	0.0081
508.5379	0.0055
508.7361	0.0083
508.9343	0.0135
509.1325	0.0051
509.3306	0.0046
509.5288	0.0032
509.7269	0.0073
509.9251	0.0093
510.1232	0.007
510.3213	0.0106
510.5193	0.0018
510.7174	-0.0013
510.9154	0.0115
511.1135	0.0057
511.3115	0.0028
511.5095	0.0089
511.7075	0.0021
511.9055	0.0154
512.1034	0.003
512.3014	0.0048
512.4993	0.0157
512.6972	0.0039
512.8951	0.008
513.093	0.0031
513.2908	0.0164
513.4887	0.0126
513.6865	0.005
513.8844	0.0149
514.0822	0.0032
514.2799	-0.0025
514.4777	-0.0002
514.6755	0.0053
514.8732	-0.0012
515.0709	0.0109
515.2687	0.0029
515.4664	0.0184
515.664	0.0099
515.8617	0.0109
516.0594	0.0131
516.257	0.0076
516.4546	0.0179
516.6522	0.0086
516.8498	0.0036
517.0474	0.0069
517.2449	0.0086
517.4425	0.0011
517.64	0.0108
517.8375	0.0075
518.035	0.0027
518.2325	-0.0029
518.43	0.0088
518.6274	0.0056
518.8249	0.0017
519.0223	0.014
519.2197	0.0047
519.4171	0.0116
519.6145	0.0122
519.8118	-0.0055
520.0092	-0.0022
520.2065	0.011
520.4038	0.0017
520.6011	0.0056
520.7984	0.0099
520.9956	0.0132
521.1929	0.011
521.3901	0.0098
521.5874	0.0166
521.7846	-0.0049
521.9818	0.006
522.1789	0.0063
522.3761	0.0215
522.5732	0.0132
522.7704	0.0007
522.9675	0.0012
523.1646	0.0152
523.3617	0.0038
523.5587	0.0002
523.7558	0.002
523.9528	0.0151
524.1498	-0.0001
524.3468	0.0117
524.5438	0.0092
524.7408	-0.0005
524.9378	0.0234
525.1347	0.0186
525.3316	0.002
525.5285	0.0001
525.7254	0.006
525.9223	0.0179
526.1192	0.0196
526.316	0.0113
526.5129	0.0092
526.7097	0.0055
526.9065	0.0119
527.1033	0.0071
527.3	0.0051
527.4968	0.0077
527.6935	0.0028
527.8903	0.0018
528.087	0.0142
528.2837	0.0094
528.4804	-0.0028
528.677	0.0176
528.8737	0.0037
529.0703	0.0021
529.2669	0.0201
529.4635	0.0046
529.6601	-0.0021
529.8567	-0.0005
530.0532	0.0008
530.2498	0.0089
530.4463	-0.0069
530.6428	0.002
530.8393	0.007
531.0358	-0.0019
531.2322	0.0064
531.4287	-0.0006
531.6251	0.0044
531.8215	-0.0017
532.0179	0.0056
532.2143	0.0079
532.4107	0.0071
532.607	0.0109
532.8034	0.0045
532.9997	-0.0029
533.196	-0.0032
533.3923	0.0118
533.5886	0.0089
533.7848	0.0025
533.9811	0.0077
534.1773	0.0032
534.3735	-0.0011
534.5697	0.0097
534.7659	0.0106
534.9621	0.0107
535.1582	0.0131
535.3544	0.0074
535.5505	0.0084
535.7466	0.0041
535.9427	0.0059
536.1387	-0.0012
536.3348	0.0066
536.5308	0.0034
536.7269	0.001
536.9229	0.0099
537.1189	0.0146
537.3148	0.0052
537.5108	0.0098
537.7068	0.0094
537.9027	-0.0053
538.0986	0.0015
538.2945	0.0097
538.4904	0.0065
538.6863	0.0056
538.8821	0.0133
539.078	0.0061
539.2738	0.0161
539.4696	0.0044
539.6654	0.0051
539.8611	0.0091
540.0569	0.0002
540.2526	0.0141
540.4484	-0.0019
540.6441	0.0104
540.8398	0.014
541.0355	0.0004
541.2311	0.0092
541.4268	0.0142
541.6224	0.0139
541.818	0.0126
542.0136	0.0139
542.2092	0.0105
542.4048	0.0048
542.6003	0.0042
542.7959	0.0089
542.9914	0.008
543.1869	0.0067
543.3824	0.0087
543.5779	0.0104
543.7734	0.0103
543.9688	0.0114
544.1642	0.0061
544.3596	0.0146
544.555	0.0044
544.7504	0.0099
544.9458	0.0036
545.1411	0.0041
545.3365	0.006
545.5318	0.0031
545.7271	-0.0024
545.9224	0.0058
546.1177	0.0065
546.3129	0.0147
546.5081	0.0067
546.7034	0.0016
546.8986	0.0033
547.0938	0.0187
547.289	0.0106
547.4841	0.0094
547.6793	-0.0034
547.8744	0.0094
548.0695	0.006
548.2646	0.0001
548.4597	0.0024
548.6548	0.0173
548.8498	0.0046
549.0448	0.0128
549.2399	0.0164
549.4349	0.0095
549.6298	0.0069
549.8248	-0.0028
550.0198	0.0077
550.2147	0.0099
550.4096	-0.0041
550.6045	0.0004
550.7994	0.0036
550.9943	0.008
551.1892	-0.0083
551.384	0.0127
551.5788	0.0035
551.7737	0.0098
551.9685	-0.0032
552.1632	-0.002
552.358	0.0023
552.5528	0.0131
552.7475	0.0046
552.9422	0.0136
553.1369	0.01
553.3316	0.0137
553.5263	0.0126
553.7209	0.003
553.9156	0.0043
554.1102	0.0039
554.3048	-0.0056
554.4994	0.0122
554.694	0.0019
554.8885	0.0056
555.0831	0.0094
555.2776	0.0058
555.4721	0.0188
555.6666	-0.0007
555.8611	0.0098
556.0555	0.0089
556.25	0.0057
556.4444	0.0015
556.6388	0.0063
556.8332	0.0071
557.0276	0.014
557.222	-0.0014
557.4163	0.0175
557.6107	0.0006
557.805	-0.006
557.9993	0.0113
558.1936	0.0066
558.3879	0.0081
558.5821	-0.0013
558.7764	-0.005
558.9706	0.0033
559.1648	0.0138
559.359	-0.0027
559.5532	0.0053
559.7473	-0.003
559.9415	0.0072
560.1356	0.0163
560.3297	0.0071
560.5238	0.0118
560.7179	-0.0018
560.9119	0.0064
561.106	-0.0022
561.3	0.0063
561.494	-0.0013
561.688	-0.0036
561.882	0.001
562.076	0.0065
562.2699	0.0126
562.4639	0.0145
562.6578	0.0126
562.8517	0.0045
563.0456	0.0083
563.2395	0.0137
563.4333	0.0083
563.6272	0.0022
563.821	0.0077
564.0148	0.0052
564.2086	-0.0026
564.4024	0.0132
564.5961	0.0145
564.7899	0.0224
564.9836	0.0005
565.1773	0.0156
565.371	0.0065
565.5647	0.0165
565.7584	0.0119
565.952	0.0035
566.1456	0.0014
566.3393	0.0155
566.5329	0.0036
566.7264	0.0052
566.92	-0.0001
567.1136	0.0083
567.3071	-0.0026
567.5006	0.0215
567.6941	0.0063
567.8876	0.0025
568.0811	0.0214
568.2745	-0.0007
568.468	0.0068
568.6614	0.0092
568.8548	0.0082
569.0482	0.011
569.2416	0.0001
569.4349	0.0026
569.6283	-0.0026
569.8216	0.0122
570.0149	0.0002
570.2082	0.011
570.4015	0.0047
570.5947	0.0073
570.788	0.0088
570.9812	0.002
571.1744	0.004
571.3676	0.0027
571.5608	0.0045
571.754	0.0148
571.9471	0.009
572.1402	0.0066
572.3333	0.0096
572.5264	0.0055
572.7195	0.0011
572.9126	0.004
573.1057	0.0074
573.2987	0.0001
573.4917	0.0032
573.6847	0.0022
573.8777	0.0045
574.0707	0.0018
574.2636	0.0091
574.4566	0.0042
574.6495	0.0059
574.8424	0.006
575.0353	0.0062
575.2281	0.0102
575.421	-0
575.6138	0.0042
575.8067	0.0106
575.9995	0.0069
576.1923	0.0095
576.385	0.0055
576.5778	0.0101
576.7706	0.0068
576.9633	0.0096
577.156	-0.0019
577.3487	0.0002
577.5414	0.0012
577.734	0.004
577.9267	0.0056
578.1193	0.0063
578.3119	0.004
578.5045	0.0048
578.6971	0.0012
578.8897	0.001
579.0822	0.0064
579.2747	0.004
579.4673	0.0024
579.6598	0.009
579.8522	0.0027
580.0447	0.0037
580.2372	0.0096
580.4296	0.0116
580.622	0.0043
580.8144	0.0029
581.0068	0.0037
581.1992	0.0085
581.3915	0.0002
581.5839	0.0057
581.7762	0.0047
581.9685	0.004
582.1608	0.0054
582.353	0.0056
582.5453	0.0044
582.7375	0.0096
582.9298	-0.0012
583.122	0.003
583.3142	0.0072
583.5063	0.003
583.6985	-0.0018
583.8906	0.0017
584.0827	0.006
584.2749	0.0003
584.4669	0.0034
584.659	0.0083
584.8511	0.0081
585.0431	0.0116
585.2352	0.005
585.4272	0.0017
585.6192	0.0072
585.8111	0.003
586.0031	0.0042
586.195	0.0015
586.387	0.0029
586.5789	0.0083
586.7708	0.0076
586.9627	0.0039
587.1545	0.0039
587.3464	0.0052
587.5382	0.0023
587.73	0.0089
587.9218	0.0025
588.1136	-0.003
588.3053	0.0035
588.4971	0.0008
588.6888	0.0023
588.8805	-0
589.0722	0.0074
589.2639	0.0071
589.4556	0.0082
589.6472	0.008
589.8389	0.0008
590.0305	0.0054
590.2221	0.011
590.4137	0.0025
590.6052	-0.0004
590.7968	0.0097
590.9883	0.0007
591.1798	0.0109
591.3713	0.0042
591.5628	0.0061
591.7543	0.0065
591.9458	0.0031
592.1372	0.0045
592.3286	0
592.52	0.0031
592.7114	0.0043
592.9028	0.0099
593.0941	0.0058
593.2855	0.0065
593.4768	0.0101
593.6681	0.0075
593.8594	0.011
594.0506	0.0072
594.2419	0.0065
594.4331	0.004
594.6244	0.0007
594.8156	0.0012
595.0067	-0.0039
595.1979	0.0012
595.3891	0.006
595.5802	0.0036
595.7713	0.0108
595.9624	0.0133
596.1535	0.0052
596.3446	0.0036
596.5357	0.0102
596.7267	0.0106
596.9177	-0.002
597.1087	0.0006
597.2997	0.01
597.4907	-0
597.6817	0.0067
597.8726	0.0088
598.0635	-0.0003
598.2544	0.0044
598.4453	0.0069
598.6362	0.0041
598.827	0.0016
599.0179	0.0046
599.2087	0.0079
599.3995	0.0034
599.5903	0.0092
599.7811	0.0126
599.9718	0.0041
600.1626	0.0046
600.3533	0.0014
600.544	0.0053
600.7347	0.0004
600.9254	0.0073
601.116	0.0036
601.3067	0.0077
601.4973	0.0112
601.6879	0.0047
601.8785	0.0139
602.0691	0.0019
602.2596	0.0049
602.4502	0.0059
602.6407	0.0104
602.8312	0.0119
603.0217	0.0064
603.2122	0.0073
603.4027	0.0075
603.5931	0.0021
603.7835	0.0052
603.9739	-0.0004
604.1643	0.0115
604.3547	0.0079
604.5451	0.0088
604.7354	0.0024
604.9257	0.003
605.116	-0.0024
605.3063	0.0069
605.4966	0.0029
605.6869	0.0119
605.8771	0.0091
606.0673	0.0021
606.2575	0.0037
606.4477	0.0075
606.6379	0.0038
606.8281	-0.0013
607.0182	0.0061
607.2083	0.0052
607.3985	-0.002
607.5885	0.008
607.7786	0.0069
607.9687	0.0043
608.1587	0.001
608.3488	0.0087
608.5388	0.0067
608.7288	-0.0037
608.9187	0.0011
609.1087	0.0061
609.2986	0.0063
609.4886	0.0045
609.6785	0.0068
609.8684	-0.002
610.0582	0.0028
610.2481	-0.0038
610.4379	-0.0002
610.6278	0.0051
610.8176	0.0099
611.0074	-0.0017
611.1971	0.0072
611.3869	-0.0003
611.5766	0.0001
611.7664	0.0115
611.9561	0.0086
612.1458	0.0078
612.3354	0.0077
612.5251	-0.001
612.7147	0.004
612.9044	0.0026
613.094	0.0072
613.2836	0.0054
613.4731	0.0096
613.6627	0.0089
613.8522	0.007
614.0417	0.0115
614.2313	0.0035
614.4207	0.0074
614.6102	0.0088
614.7997	0.0183
614.9891	0.0057
615.1785	0.0004
615.3679	0.0043
615.5573	0.0046
615.7467	0.0063
615.9361	0.0042
616.1254	0.0133
616.3147	0.0033
616.504	-0.0007
616.6933	0.0037
616.8826	0.0013
617.0718	0.0036
617.2611	0.0035
617.4503	0.0032
617.6395	0.0054
617.8287	0.0023
618.0179	0.0029
618.207	0.0118
618.3961	-0.0005
618.5853	-0.0052
618.7744	0.007
618.9634	0.0067
619.1525	0.0002
619.3416	-0.002
619.5306	0.0059
619.7196	0.0168
619.9086	0.0077
620.0976	-0.0006
620.2866	0.0092
620.4755	-0.0008
620.6645	0.0115
620.8534	0.0025
621.0423	0.0108
621.2312	0.0041
621.42	-0.0018
621.6089	0.0033
621.7977	0.0116
621.9865	0.0032
622.1753	-0.0044
622.3641	0.003
622.5529	-0.005
622.7416	-0.0039
622.9303	0.0054
623.1191	0.0062
623.3078	0.0065
623.4964	0.0069
623.6851	0.0047
623.8737	0.0022
624.0624	0.0032
624.251	-0.0016
624.4396	0.0037
624.6282	0.0168
624.8167	0.0138
625.0053	0.0136
625.1938	0.0041
625.3823	0.0083
625.5708	-0.0043
625.7593	0.003
625.9477	0.0045
626.1362	-0.0015
626.3246	0.003
626.513	0.0041
626.7014	0.0025
626.8898	0.011
627.0781	0.0144
627.2665	0.0099
627.4548	-0.0006
627.6431	0.0105
627.8314	0.0168
628.0197	0.014
628.2079	0.0001
628.3962	0.0015
628.5844	0.0167
628.7726	-0.0014
628.9608	0.0103
629.1489	0.0093
629.3371	0.0031
629.5252	0.0056
629.7134	-0.0027
629.9015	0.0227
630.0895	-0.0148
630.2776	0.0192
630.4657	0.0219
630.6537	0.0087
630.8417	-0.0047
631.0297	0.0078
631.2177	0.0086
631.4057	0.0118
631.5936	0.0055
631.7815	-0.001
631.9695	0.0189
632.1574	0.01
632.3452	0.0189
632.5331	0.0104
632.7209	0.003
632.9088	0.0065
633.0966	0.0247
633.2844	0.0117
633.4722	0.0197
633.6599	0.0213
633.8477	0.0047
634.0354	0.0086
634.2231	-0.0142
634.4108	0.0059
634.5985	0.0122
634.7861	0.0098
634.9738	0.0023
635.1614	-0.0004
635.349	0.0197
635.5366	-0.0014
635.7242	0.0062
635.9117	0.0075
636.0993	0.0014
636.2868	-0.0065
636.4743	0.0023
636.6618	-0.0051
636.8492	0.024
637.0367	0.0025
637.2241	0.0163
637.4115	0.024
637.5989	0.0061
637.7863	0.0251
637.9737	-0.0027
638.161	0.0129
638.3484	-0.0159
638.5357	-0.0074
638.723	0.0062
638.9103	-0.0082
639.0975	0.0083
639.2848	0.0115
639.472	0.0231
639.6592	-0.0086
639.8464	0.0013
640.0336	0.0059
640.2208	0.0106
640.4079	-0.0057
640.595	-0
640.7821	0.0274
640.9692	-0.005
641.1563	0.0101
641.3434	0.0247
641.5304	0.018
641.7174	0.0107
641.9044	0.0242
642.0914	0.0246
642.2784	0.0028
642.4653	-0.0082
642.6523	0.0421
642.8392	-0.002
643.0261	0.0006
643.213	0.0057
643.3999	0.0237
643.5867	0.0146
643.7735	0.0112
643.9604	0.0018
644.1472	0.0185
644.3339	-0.0069
644.5207	0.003
644.7075	0.0014
644.8942	-0.0119
645.0809	-0.0038
645.2676	-0.009
645.4543	0.0169
645.6409	0.0227
645.8276	0.013
646.0142	-0.0038
646.2008	0.0161
646.3874	0.0081
646.574	-0.0057
646.7605	0.0088
646.9471	0.0055
647.1336	-0.0308
647.3201	-0.0037
647.5066	0.0004
647.6931	0.0078
647.8795	0.0092
648.0659	0.0086
648.2524	0.0012
648.4388	0.0122
648.6252	0.0112
648.8115	0.0015
648.9979	-0.0007
649.1842	0.0069
649.3705	0.0088
649.5568	-0.0134
649.7431	0.0142
649.9294	0.0071
650.1156	-0.0153
650.3018	0.019
650.488	0.0133
650.6742	0.0233
650.8604	0.015
651.0466	0.0019
651.2327	-0.0021
651.4188	0.0088
651.6049	0.0202
651.791	0.0122
651.9771	0.006
652.1632	0.0129
652.3492	-0.0055
652.5352	0.0153
652.7212	0.0147
652.9072	0.0038
653.0932	0.0023
653.2791	0.0014
653.465	-0.0038
653.651	0.0176
653.8369	0.0117
654.0227	-0.0118
654.2086	0.0122
654.3944	0.0086
654.5803	0.0119
654.7661	0.0081
654.9519	0.0018
655.1377	0.0002
655.3234	0.0002
655.5092	0.0002
655.6949	0.0002
655.8806	0.0002
656.0663	0.0002
656.2519	0.0002
656.4376	0.0002
656.6232	0.0002
656.8088	0.0002
656.9945	0.0002
657.18	0.0002
657.3656	0.0002
657.5511	0.0002
657.7367	0.0002
657.9222	0.0002
658.1077	0.0002
658.2932	0.0002
658.4786	0.0002
658.6641	0.0002
658.8495	0.0002
659.0349	0.0002
659.2203	0.0002
659.4057	0.0002
659.591	0.16
659.7764	0.0312
659.9617	0.0156
660.147	0.0282
660.3323	0.0061
660.5176	-0.0061
660.7028	-0.0096
660.888	-0.0019
661.0733	0.0188
661.2585	0.0024
661.4436	0.0048
661.6288	0.0228
661.8139	-0.004
661.9991	-0.0149
662.1842	-0.0032
662.3693	-0.0038
662.5544	0.021
662.7394	0.0127
662.9245	0.003
663.1095	-0.0115
663.2945	-0.0158
663.4795	0.0093
663.6644	0.0255
663.8494	0.0158
664.0343	0.0103
664.2193	-0.0011
664.4042	-0.0003
664.589	0.0129
664.7739	0.0084
664.9587	0.0059
665.1436	-0.0083
665.3284	-0.0104
665.5132	0.0019
665.698	0.0002
665.8827	0.0245
666.0675	-0.0155
666.2522	0.0093
666.4369	0.0132
666.6216	0.0064
666.8063	0.005
666.9909	0.0119
667.1756	-0.001
667.3602	-0.0161
667.5448	0.0158
667.7294	0.0142
667.9139	0.0062
668.0985	0.0261
668.283	-0.0024
668.4675	0.0174
668.652	0.0153
668.8365	-0.0147
669.0209	0.0197
669.2054	0.0245
669.3898	0.0073
669.5742	0.0243
669.7586	0.014
669.943	-0.0025
670.1273	-0.0192
670.3117	0.0142
670.496	0.0019
670.6803	0.0161
670.8646	-0.0293
671.0488	0.0067
671.2331	-0.0131
671.4173	0.0019
671.6015	0.01
671.7857	0.0046
671.9699	0.012
672.1541	0.0058
672.3382	-0.0087
672.5223	0.0048
672.7064	-0.0033
672.8905	-0.0131
673.0746	0.0141
673.2587	0.0096
673.4427	0.0394
673.6267	0.0234
673.8107	0.0251
673.9947	0.0211
674.1787	0.0138
674.3626	0.0268
674.5465	0.0305
674.7304	-0.0023
674.9143	-0.0017
675.0982	0.0172
675.2821	0.0005
675.4659	-0.0143
675.6497	0.0206
675.8335	-0.0012
676.0173	0.0118
676.2011	0.0298
676.3849	0.0359
676.5686	0.0175
676.7523	0.0013
676.936	0.0113
677.1197	-0.0112
677.3034	0.0271
677.487	0.0072
677.6706	0.0051
677.8542	-0.0041
678.0378	0.0227
678.2214	-0.0035
678.405	0.0018
678.5885	0.0131
678.772	-0.0015
678.9555	-0.0015
679.139	0.0131
679.3225	0.0142
679.5059	-0.0002
679.6894	0.0162
679.8728	0.019
680.0562	0.0081
680.2395	0.0049
680.4229	-0.0104
680.6062	0.0113
680.7896	-0.002
680.9729	0.0128
681.1562	-0.0049
681.3394	0.0063
681.5227	0.0075
681.7059	0.0103
681.8891	0.0016
682.0723	0.0107
682.2555	0.0046
682.4387	0.0207
682.6218	-0.0048
682.805	0.0166
682.9881	0.0075
683.1712	0.0252
683.3542	0.026
683.5373	-0.014
683.7203	0.0137
683.9034	0.0107
684.0864	-0.0046
684.2694	0.0126
684.4523	0.01
684.6353	-0.0086
684.8182	-0.0093
685.0011	0.0107
685.184	0.0006
685.3669	0.0199
685.5498	-0.0052
685.7326	0.002
685.9154	0.0114
686.0982	0.0151
686.281	-0.0054
686.4638	0.0197
686.6465	0.0083
686.8293	-0.0027
687.012	0.0161
687.1947	0.0017
687.3774	-0.006
687.56	-0.0097
687.7427	0.0122
687.9253	-0.0152
688.1079	0.0101
688.2905	-0.0169
688.4731	0.0207
688.6556	0.0102
688.8382	-0.0224
689.0207	0.0055
689.2032	0.0044
689.3857	-0.0074
689.5681	0.0143
689.7506	0.0242
689.933	0.0015
690.1154	0.0059
690.2978	0.0002
690.4802	0.014
690.6626	0.0045
690.8449	0.0044
691.0272	0.0141
691.2095	-0.0261
691.3918	0.0021
691.5741	0.0074
691.7563	0.0122
691.9386	0.0308
692.1208	-0.0051
692.303	0.0174
692.4852	-0.0008
692.6673	0.0007
692.8495	-0.0015
693.0316	0.0053
693.2137	0.0108
693.3958	0.004
693.5778	0.0094
693.7599	0.0198
693.9419	-0.0063
694.1239	-0.0058
694.3059	0.0264
694.4879	0.0062
694.6699	-0.0034
694.8518	0.0111
695.0337	0.0132
695.2157	0.0138
695.3975	0.0064
695.5794	-0.015
695.7613	0.0181
695.9431	-0.0136
696.1249	0.0214
696.3067	-0.0026
696.4885	0.0235
696.6703	0.0034
696.852	-0.0021
697.0337	0.0221
697.2154	0.008
697.3971	0.029
697.5788	0.0083
697.7605	-0.0003
697.9421	0.0104
698.1237	0.0054
698.3053	0.001
698.4869	0.0215
698.6685	-0.0077
698.85	0.01
699.0315	-0.0066
699.213	0.0228
699.3945	-0.0001
699.576	0.0294
699.7575	0.008
699.9389	-0.0008
700.1203	-0.0091
700.3017	0.0094
700.4831	0.0207
700.6645	0.0056
700.8458	0.0128
701.0271	0.0065
701.2084	0.0042
701.3897	0.0166
701.571	-0.012
701.7523	0.0244
701.9335	0.0193
702.1147	0.0035
702.2959	-0.0067
702.4771	0.0194
702.6583	0.006
702.8394	-0.0202
703.0205	0.036
703.2016	0.0007
703.3827	0.0081
703.5638	0.0076
703.7449	0.0161
703.9259	0.0195
704.1069	0.0099
704.2879	0.0362
704.4689	-0.0101
704.6499	0.0105
704.8308	0.0312
705.0117	0.0186
705.1927	0.0226
705.3735	0.0091
705.5544	0.0192
705.7353	0.008
705.9161	-0.0104
706.0969	-0.0015
706.2777	0.0042
706.4585	0.0185
706.6393	0.0173
706.82	0.0071
707.0007	-0.0031
707.1815	0.0022
707.3621	0.0377
707.5428	0.0226
707.7235	0.0189
707.9041	0.0257
708.0847	0.0123
708.2653	0.0176
708.4459	-0.0103
708.6265	-0.0067
708.807	0.0017
708.9875	-0.0172
709.168	0.0081
709.3485	0.0135
709.529	0.0074
709.7095	-0.0045
709.8899	0.0105
710.0703	0.0106
710.2507	0.0144
710.4311	-0.0056
710.6115	0.0267
710.7918	0.0129
710.9721	0.0003
711.1524	0.007
711.3327	-0.0148
711.513	-0.0044
711.6932	0.011
711.8735	0.0141
712.0537	0.0057
712.2339	-0.019
712.4141	0.0329
712.5942	-0.003
712.7744	0.0336
712.9545	0.0136
713.1346	0.0277
713.3147	0.0216
713.4947	0.0128
713.6748	0.0002
713.8548	0.0399
714.0348	0.0097
714.2148	0.0067
714.3948	0.0163
714.5748	-0.0021
714.7547	0.034
714.9346	0.0263
715.1145	-0.0073
715.2944	-0.0189
715.4743	0.0285
715.6541	0.0174
715.834	0.0361
716.0138	0.0304
716.1936	-0.0038
716.3733	0.0034
716.5531	-0.0038
716.7328	0.0383
716.9126	0.0279
717.0923	-0.0123
717.2719	-0.0055
717.4516	0.0181
717.6312	-0.0118
717.8109	0.0287
717.9905	0.0152
718.1701	0.0051
718.3496	0.0019
718.5292	-0.0185
718.7087	0.0281
718.8882	0.0143
719.0677	0.0209
719.2472	0.001
719.4267	-0.0136
719.6061	-0.0413
719.7856	0.0247
719.965	-0.0001
720.1443	-0.004
720.3237	0.0185
720.5031	0.0107
720.6824	-0.0035
720.8617	0.006
721.041	0.0234
721.2203	0.0056
721.3995	0.0275
721.5788	0.0071
721.758	-0.0054
721.9372	0.0159
722.1164	-0.0148
722.2956	0.0133
722.4747	0.0017
722.6538	-0.0079
722.8329	0.0025
723.012	0.0221
723.1911	0.0221
723.3702	0.0104
723.5492	-0.0161
723.7282	0.0012
723.9072	0.0208
724.0862	-0.0124
724.2652	-0.0026
724.4441	0.002
724.623	0.016
724.8019	0.0126
724.9808	0.002
725.1597	0.0075
725.3385	0.0092
725.5174	0.0151
725.6962	0.0194
725.875	0.0107
726.0538	0.0161
726.2325	0.0373
726.4112	-0.024
726.59	-0.0008
726.7687	0.007
726.9474	0.0415
727.126	0.0355
727.3047	-0.0005
727.4833	0.0075
727.6619	-0.0221
727.8405	0.0206
728.0191	0.0401
728.1976	-0.005
728.3762	-0.0058
728.5547	0.0258
728.7332	0.0211
728.9116	0.0061
729.0901	0.0183
729.2686	0.0302
729.447	-0.006
729.6254	0.004
729.8038	0.016
729.9821	-0.0085
730.1605	0.012
730.3388	-0.0081
730.5171	0.0153
730.6954	-0
730.8737	0.004
731.0519	-0.0113
731.2302	0.008
731.4084	0.0282
731.5866	-0.0075
731.7648	0.0039
731.9429	0.0052
732.1211	0.0053
732.2992	-0.0052
732.4773	-0.0071
732.6554	0.0048
732.8335	0.028
733.0115	0.0252
733.1896	-0.0075
733.3676	0.0182
733.5456	0.0103
733.7235	0.004
733.9015	0.0233
734.0794	0.002
734.2574	-0.0157
734.4353	0.0343
734.6131	0.0022
734.791	0.0151
734.9689	-0.0082
735.1467	0.018
735.3245	0.0331
735.5023	0.0273
735.68	0.013
735.8578	0.0119
736.0355	0.0221
736.2132	0.0172
736.3909	0.0026
736.5686	0.0065
736.7463	-0.0023
736.9239	0.0259
737.1015	0.0029
737.2791	0.007
737.4567	0.0165
737.6343	0.0141
737.8118	0.0216
737.9894	-0.0025
738.1669	-0.0037
738.3444	0.0037
738.5218	-0.021
738.6993	-0.0044
738.8767	0.0201
739.0541	0.0017
739.2315	0.0039
739.4089	0.0141
739.5863	0.0214
739.7636	-0.0049
739.9409	0.0155
740.1182	0.0244
740.2955	0.021
740.4728	0.0213
740.65	-0.0134
740.8272	-0.0098
741.0044	-0.0038
741.1816	0.0218
741.3588	-0.0028
741.5359	-0.0139
741.7131	0.003
741.8902	-0.0143
742.0673	-0.0182
742.2444	0.0159
742.4214	0.0161
742.5985	0.0169
742.7755	0.0082
742.9525	-0.0086
743.1295	-0.011
743.3064	-0.0337
743.4834	0.0192
743.6603	0.0527
743.8372	-0.0189
744.0141	0.0141
744.191	0.0152
744.3678	-0.0252
744.5446	0.0063
744.7215	0.0098
744.8982	0.0216
745.075	0.069
745.2518	0.0063
745.4285	0.031
745.6052	-0.029
745.7819	-0.017
745.9586	0.0202
746.1353	0.0061
746.3119	-0.0139
746.4885	0.0369
746.6651	0.013
746.8417	-0.0005
747.0183	0.0509
747.1948	0.0212
747.3714	0.0196
747.5479	0.0373
747.7244	0.0044
747.9008	0.0055
748.0773	0.0463
748.2537	0.0116
748.4301	0.0438
748.6065	-0.0121
748.7829	-0.0353
748.9593	0.0107
749.1356	0.0037
749.3119	0.0151
749.4882	0.017
749.6645	0.0172
749.8408	0.0045
750.017	-0.0109
750.1933	-0.0199
750.3695	0.0149
750.5457	-0.0117
750.7218	-0.0032
750.898	-0.0087
751.0741	0.0054
751.2502	-0.0004
751.4263	0.0028
751.6024	0.0353
751.7784	0.0035
751.9545	-0.017
752.1305	0.0022
752.3065	0.0218
752.4825	-0.0021
752.6584	0.0102
752.8344	0.0033
753.0103	-0.0187
753.1862	0.0233
753.3621	0.0085
753.5379	-0.0184
753.7138	0.014
753.8896	0.0063
754.0654	0.0275
754.2412	-0.0086
754.417	0.0115
754.5927	0.0099
754.7685	0.0335
754.9442	0.0138
755.1199	0.0123
755.2956	0.0083
755.4712	0.0172
755.6469	0.0194
755.8225	0.0138
755.9981	-0.0036
756.1736	0.0094
756.3492	-0.0051
756.5248	0.0182
756.7003	-0.0081
756.8758	-0.01
757.0513	0.0062
757.2267	0.0102
757.4022	0.0165
757.5776	-0.0044
757.753	0.0271
757.9284	-0.0152
758.1038	0.0228
758.2791	0.0183
758.4545	0.0014
758.6298	0.0086
758.8051	0.0209
758.9803	0.0135
759.1556	0.0085
759.3308	0.0112
759.506	0.0104
759.6812	0.0121
759.8564	0.0059
760.0316	-0.0015
760.2067	0.0267
760.3819	0.0052
760.557	0.0025
760.732	0.0088
760.9071	0.0097
761.0821	-0.0232
761.2572	0.0238
761.4322	0.0193
761.6072	-0.0108
761.7821	-0.0311
761.9571	0.0123
762.132	0.0246
762.3069	0.0332
762.4818	0.0282
762.6567	-0.0066
762.8316	0.0383
763.0064	0.0019
763.1812	0.0245
763.356	0.0042
763.5308	0.0435
763.7055	0.0094
763.8803	-0.0014
764.055	-0.0026
764.2297	0.0026
764.4044	0.0017
764.579	0.0286
764.7537	0.0123
764.9283	0.0224
765.1029	0.0113
765.2775	0.0196
765.4521	-0.0009
765.6266	0.0094
765.8011	0.003
765.9756	0.0131
766.1501	0.0171
766.3246	0.0208
766.4991	0.0028
766.6735	0.0434
766.8479	-0.0132
767.0223	0.0093
767.1967	0.0201
767.371	0.014
767.5454	0.0205
767.7197	0.0185
767.894	0.006
768.0683	0.016
768.2425	-0.0111
768.4168	0.0274
768.591	0.0149
768.7652	-0.0053
768.9394	-0.0278
769.1135	-0.0116
769.2877	0.0406
769.4618	0.0467
769.6359	-0.0116
769.81	-0.0122
769.984	-0.0049
770.1581	0.0063
770.3321	0.0361
770.5061	-0.0015
770.6801	0.0104
770.8541	0.0154
771.028	0.0249
771.202	0.016
771.3759	0.0073
771.5498	0.0321
771.7236	0.0262
771.8975	0.0272
772.0713	0.0124
772.2451	0.0138
772.4189	-0.0121
772.5927	-0.0207
772.7665	-0.0201
772.9402	0.028
773.1139	0.0237
773.2876	0.0248
773.4613	0.029
773.635	0.016
773.8086	0.0296
773.9822	-0.0189
774.1558	0.0861
774.3294	0.0179
774.503	0.0219
774.6765	0.0208
774.8501	0.018
775.0236	0.0163
775.1971	-0.0325
775.3705	-0.0001
775.544	-0.0393
775.7174	-0.0082
775.8908	-0.0122
776.0642	0.0305
776.2376	0.0529
776.4109	0.0517
776.5843	-0.0323
776.7576	0.0481
776.9309	0.031
777.1041	-0.0054
777.2774	-0.0108
777.4506	-0.0111
777.6238	0.0177
777.797	0.0267
777.9702	0.0193
778.1434	0.0086
778.3165	-0.0123
778.4896	-0.041
778.6627	0.0309
778.8358	-0.0018
779.0089	-0.0195
779.1819	0.027
779.3549	-0.003
779.5279	-0.0223
779.7009	0.0546
779.8739	0.0318
780.0468	0.0298
780.2197	0.0107
780.3926	-0.0162
780.5655	0.0241
780.7384	0.0199
780.9112	0.0196
781.0841	0.0427
781.2569	0.0221
781.4297	0.0133
781.6024	0.0454
781.7752	0.0472
781.9479	0.0369
782.1206	0.0052
782.2933	0.0409
782.466	0.0162
782.6386	0.0033
782.8113	0.0381
782.9839	-0.0088
783.1565	0.0082
783.329	-0.0188
783.5016	0.0028
783.6741	0.0011
783.8466	0.0686
784.0191	0.0475
784.1916	0.0094
784.3641	-0.026
784.5365	0.0681
784.7089	-0.0076
784.8813	0.0608
785.0537	0.0545
785.2261	0.0006
785.3984	0.0054
785.5707	-0.0045
785.743	0.028
785.9153	0.0258
786.0876	0.0114
786.2598	0.0151
786.432	0.0066
786.6042	0.0511
786.7764	-0.0096
786.9486	-0.0243
787.1207	0.0558
787.2928	0.03
787.4649	-0.0052
787.637	-0.0007
787.8091	0.0352
787.9811	0.0116
788.1532	0.0005
788.3252	-0.0024
788.4972	0.0167
788.6691	0.0011
788.8411	-0.0275
789.013	0.0043
789.1849	0.002
789.3568	0.0394
789.5287	0.0345
789.7005	0.0046
789.8723	-0.0256
790.0442	0.0372
790.2159	-0.0339
790.3877	0.0659
790.5595	0.031
790.7312	-0.0002
790.9029	-0.0212
791.0746	-0.0287
791.2463	-0.0128
791.4179	0.0477
791.5896	0.0241
791.7612	0.0224
791.9328	-0.0161
792.1044	0.0268
792.2759	-0.029
792.4474	0.0068
792.619	0.0377
792.7905	0.0208
792.9619	0.0717
793.1334	0.0413
793.3048	0.0958
793.4762	0.0267
793.6476	-0.0179
793.819	-0.0014
793.9904	-0.0097
794.1617	-0.0136
794.333	0.0594
794.5043	0.0594
794.6756	0.0086
794.8469	0.0237
795.0181	0.0285
795.1893	0.0183
795.3605	0.027
795.5317	0.0047
795.7029	-0.0254
795.874	0.0209
796.0452	0.0527
796.2163	0.0431
796.3873	0.0599
796.5584	0.0825
796.7294	0.0042
796.9005	0.0162
797.0715	-0.0536
797.2425	0.0793
797.4134	0.0917
797.5844	0.0098
797.7553	-0.1072
797.9262	0.1113
798.0971	0.031
798.2679	0.0171
798.4388	0.0524
798.6096	0.0236
798.7804	0.0327
798.9512	0.0583
799.122	0.0208
799.2927	0.0289
799.4635	-0.044
799.6342	-0.0521
799.8049	0.0201
799.9755	-0.0405
800.1462	0.0323
800.3168	0.0425
800.4874	-0.047
800.658	0.0578
800.8286	0.0285
800.9991	0.0289
801.1696	0.0115
801.3402	-0.0141
801.5106	-0.0229
801.6811	0.0626
801.8516	0.0505
802.022	-0.0241
802.1924	-0.0712
802.3628	0.0259
802.5332	0.0182
802.7035	0.036
802.8739	0.0713
803.0442	0.0072
803.2145	0.0181
803.3847	0.0203
803.555	0.0463
803.7252	0.0565
803.8954	0.0338
804.0656	0.0058
804.2358	0.0202
804.4059	0.0558
804.5761	0.0518
804.7462	0.1157
804.9163	0.0478
805.0864	0.0475
805.2564	0.027
805.4264	-0.0351
805.5965	0.0568
805.7665	-0.0531
805.9364	0.0044
806.1064	-0.0025
806.2763	0.0466
806.4462	0.0111
806.6161	0.0232
806.786	0.0161
806.9559	0.0808
807.1257	-0.0333
807.2955	0.0387
807.4653	0.0294
807.6351	-0.0051
807.8048	0.0565
807.9746	0.0582
808.1443	-0.0174
808.314	0.0275
808.4837	0.0714
808.6533	0.039
808.8229	0.0269
808.9926	-0.0214
809.1622	0.019
809.3317	-0.0596
809.5013	-0.0076
809.6708	-0.0166
809.8403	0.0641
810.0098	0.0793
810.1793	0.0255
810.3488	-0.1132
810.5182	0.1841
810.6876	0.1065
810.857	0.0487
811.0264	-0.0435
811.1958	0.2149
811.3651	-0.0386
811.5344	0.0403
811.7037	0.0729
811.873	-0.0036
812.0422	-0.1285
812.2115	-0.0096
812.3807	-0.157
812.5499	0.1352
812.7191	0.0713
812.8882	-0.083
813.0574	0.0825
813.2265	-0.0191
813.3956	-0.0343
813.5646	0.035
813.7337	0.0694
813.9027	0.0185
814.0718	0.0126
814.2407	0.0161
814.4097	0.0588
814.5787	0.0541
814.7476	0.0101
814.9165	-0.0166
815.0854	-0.0383
815.2543	0.0761
815.4232	0.0912
815.592	0.1273
815.7608	-0.078
815.9296	0.0224
816.0984	-0.0041
816.2671	0.0317
816.4359	0.2061
816.6046	0.058
816.7733	-0.0367
816.942	-0.0872
817.1106	0.0826
817.2793	-0.0469
817.4479	0.1177
817.6165	0.0053
817.785	0.0978
817.9536	-0.0725
818.1221	0.0038
818.2906	-0.0105
818.4591	0.0415
818.6276	0.074
818.7961	0.0091
818.9645	0.0713
819.1329	0.3099
819.3013	-0.0429
819.4697	0.5634
819.638	0.0367
819.8064	0.0406
819.9747	0.023
820.143	-0.1356
820.3113	0.1053
820.4795	-0.0085
820.6477	-0.0004
820.816	0.1122
820.9842	0.0972
821.1523	0.0019
821.3205	0.0225
821.4886	-0.0223
821.6567	0.0784
821.8248	0.0696
821.9929	-0.1088
822.1609	-0.0628
822.329	-0.0319
822.497	0.1207
822.665	-0.0346
822.833	0.0305
823.0009	0.1108
823.1688	0.021
823.3367	-0.0009
823.5046	0.2264
823.6725	-0.0005
823.8404	-0.1561
824.0082	-0.0178
824.176	0.2585
824.3438	0.4952
824.5116	0.0649
824.6793	0.1211
824.847	0.3317
825.0147	0.0101
825.1824	-0.0172
825.3501	0.0756
825.5177	-0.0405
825.6854	-0.2079
825.853	-0.0681
826.0206	0.0292
826.1881	0.1394
826.3557	0.0766
826.5232	0.1522
826.6907	0.1116
826.8582	0.0212
827.0257	0.2318
827.1931	0.134
827.3605	-0.1083
827.528	0.0427
827.6953	-0.1274
827.8627	-0.023
828.03	0.0671
828.1974	-0.0714
828.3647	-0.0085
828.532	0.0687
828.6992	0.1154
828.8665	-0.2627
829.0337	0.1893
829.2009	-0.0627
829.3681	0.1365
829.5352	-0.2501
829.7024	0.1364
829.8695	-0.0862
830.0366	0.3013
830.2037	0.0077
830.3707	0.1115
830.5378	0.1263
830.7048	-0.2535
830.8718	-0.005
831.0388	0.15
831.2057	-0.1048
831.3727	0.0954
831.5396	0.1278
831.7065	-0.6734
831.8734	0.1727
832.0402	0.3305
832.2071	-0.5355
832.3739	-0.2156
832.5407	-1.8334
832.7075	0.0954
832.8742	0.513
833.041	0.5041
833.2077	-0.0562
833.3744	-0.0127
833.541	0.3014
833.7077	-0.1341
833.8743	0.0208
834.0409	0.0498
834.2075	0.0753
834.3741	-0.0541
834.5407	-0.0011
834.7072	0.4588
834.8737	0.1541
835.0402	0.3574
835.2067	-0.039
835.3731	-0.1013
835.5395	-0.0079
835.706	0.1414
835.8723	0.0049
836.0387	-0.001
836.2051	-0.0755
836.3714	0.974
836.5377	0.5398
836.704	0.0841
836.8703	-0.0373
837.0365	0.3058
837.2027	0.2353
837.3689	0.0888
837.5351	0.5473
837.7013	0.0187
837.8674	-0.5848
838.0335	-0.068
838.1997	-0.113
838.3657	0.3245
838.5318	-0.1732
838.6978	0.4965
838.8639	-0.4189
839.0299	0.0057
839.1958	0.279
839.3618	0.7533
839.5277	-0.0545
839.6937	0.9422
839.8596	-0.1532
840.0254	0.2247
840.1913	-0.3477
840.3571	0.2637
840.523	-1.6646
840.6888	0.0947
840.8545	0.2746
841.0203	-0.0216
841.186	-0.1285
841.3517	-0.1008
841.5174	0.6439
841.6831	0.4298
841.8488	0.1132
842.0144	-0.1272
842.18	-0
842.3456	-0.3435
842.5112	-0.5689
842.6767	0.2671
842.8422	-0.2569
843.0077	0.204
843.1732	-0.4169
843.3387	-0
843.5042	-0
843.6696	0.1187
843.835	-0.0921
844.0004	0.064
844.1657	-0.8318
844.3311	-0
844.4964	-0.8499
844.6617	-0
844.827	0.8166
844.9923	0.0615
845.1575	0.0718
845.3227	-0.2542
845.4879	0.0532
845.6531	-0.0193
845.8183	-0
845.9834	0.3646
846.1485	0.4486
846.3136	-0.1218
846.4787	-0
846.6438	-0.0153
846.8088	0.501
846.9738	-0
847.1388	-0
847.3038	-0
847.4687	0.0522
847.6337	-0.7589
847.7986	-0.2761
847.9635	-0.1139
848.1284	-0
848.2932	0.2167
848.458	-1.6646
848.6228	-0.1983
848.7876	0.2218
848.9524	-0.091
849.1172	-2.0714
849.2819	-0
849.4466	0.4115
849.6113	-0
849.7759	-0
849.9406	-0.1719
850.1052	-0.3745
850.2698	-0.2539
850.4344	-0.5475
850.599	-0
850.7635	0.1631
850.928	0.7235
851.0925	0.1458
851.257	0.2638
851.4215	-0
851.5859	0.0661
851.7503	-0
851.9147	-0.3771
852.0791	0.3104
852.2434	0.3801
852.4078	-0
852.5721	0.2839
852.7364	0.1454
852.9007	0.0852
853.0649	-0
853.2291	0.0476
853.3934	-0
853.5575	0.1317
853.7217	0.4624
853.8859	-0.0809
854.05	0.4158
854.2141	-0
854.3782	-0
854.5423	-0.3756
854.7063	0.3112
854.8703	0.4647
855.0343	0.0731
855.1983	0.3495
855.3623	-0
855.5262	-0
855.6901	1.2808
855.854	0.4911
856.0179	-0.1587
856.1818	-0
856.3456	-0
856.5094	0.0444
856.6732	-0
856.837	-1.1761
857.0008	-0
857.1645	0.6152
857.3282	0.5898
857.4919	0.1567
857.6556	0.3558
857.8192	-0.0993
857.9828	0.0454
858.1465	-0
858.31	-0
858.4736	-0.2435
858.6372	1.0261
858.8007	-0.0381
858.9642	0.2475
859.1277	0.5124
859.2911	-0.5296
859.4546	-0
859.618	0.787
859.7814	0.1344
859.9448	-0
860.1081	-0
860.2715	-0
860.4348	-0
860.5981	0.5259
860.7614	-0
860.9246	-0.2502
861.0879	0.4809
861.2511	-0
861.4143	-0
861.5774	0.2851
861.7406	0.1653
861.9037	-0
862.0668	-0
862.2299	0.0625
862.393	-0
862.556	-0
862.7191	-0.2347
862.8821	0.2619
863.0451	0.1164
863.208	-0.0975
863.371	0.3596
863.5339	0.3278
863.6968	0.0674
863.8597	-0
864.0225	-0
864.1854	-0.1782
864.3482	-0.2645
864.511	-0.0457
864.6737	-0
864.8365	0.6639
864.9992	-0
865.1619	-0.3726
865.3246	-0.7324
865.4873	-0
865.65	0.7082
865.8126	-0
865.9752	0.0337
866.1378	1.0442
866.3004	0.1831
866.4629	-1.6449
866.6254	0.4898
866.7879	-0.2398
866.9504	-0.2191
867.1129	0.0938
867.2753	-0.164
867.4377	-0
867.6001	-0.3593
867.7625	0.0958
867.9249	-0.2345
868.0872	1.0168
868.2495	-0
868.4118	-0
868.5741	-0
868.7363	-0
868.8986	-0.3361
869.0608	0.0356
869.223	0.559
869.3851	-0.2179
869.5473	0.2767
869.7094	-0
869.8715	-0.8393
870.0336	-0.0117
870.1957	-1.1845
870.3577	1.1709
870.5197	0.1756
870.6817	-0.3503
870.8437	-0
871.0057	-0
871.1676	0.4456
871.3295	1.2579
871.4914	-0
871.6533	-0.528
871.8151	-0
871.977	-0.3226
872.1388	0.0679
872.3006	-0.311
872.4623	-0.4771
872.6241	-0
872.7858	0.1285
872.9475	0.0332
873.1092	0.3697
873.2709	0.5783
873.4325	-0.9938
873.5941	-0.5275
873.7557	-0
873.9173	0.3327
874.0789	0.5438
874.2404	0.1745
874.4019	-0.1805
874.5634	0.0627
874.7249	-0
874.8863	-0
875.0478	-0.2982
875.2092	-0
875.3706	0.0014
875.5319	-0
875.6933	-0
875.8546	0.2218
876.0159	0.8634
876.1772	-0
876.3385	-0
876.4997	-0
876.6609	-0.1927
876.8221	-0
876.9833	-0
877.1445	0.5285
877.3056	-0
877.4667	-1.4266
877.6278	-0
877.7889	0.7593
877.9499	-0.2092
878.111	-0.0049
878.272	-0.1643
878.433	-0
878.5939	-0
878.7549	0.6152
878.9158	-0
879.0767	1.9716
879.2376	-0
879.3984	-0
879.5593	1.0069
879.7201	-1.6773
879.8809	0.9766
880.0417	0.2148
880.2024	-0.0688
880.3632	-0.4644
880.5239	0.6702
880.6846	-0
880.8452	-0.0472
881.0059	-0.7851
881.1665	0.2897
881.3271	-0
881.4877	0.2367
881.6483	-0.7652
881.8088	0.9853
881.9693	-0.8595
882.1298	-0.8595
882.2903	-0.8595
