Data from D4ACN5uM440nmA_Absorbance_13-50-26-647.txt Node
Date: Fri Feb 21 13:50:26 GMT 2025
User: LASERRRRR
Spectrometer: FLMT03099
Trigger mode: 0
Integration Time (sec): 1.500000E-2
Scans to average: 1
Electric dark correction enabled: true
Nonlinearity correction enabled: false
Boxcar width: 0
XAxis mode: Wavelengths
Number of Pixels in Spectrum: 3648
>>>>>Begin Spectral Data<<<<<
179.3399	-0.5093
179.5586	-0.5093
179.7771	-0.5093
179.9957	-0.2091
180.2143	-0
180.4329	-0
180.6514	-0.7182
180.8699	-0
181.0885	-0.0974
181.307	-0
181.5255	0.2492
181.744	1.3188
181.9625	0.0856
182.181	-0
182.3994	-0.5494
182.6179	-0.538
182.8363	0.5212
183.0547	-0.1543
183.2732	0.1379
183.4916	0.2691
183.71	0.1843
183.9284	-0.0194
184.1467	0.271
184.3651	-0.0205
184.5835	0.1459
184.8018	0.2336
185.0201	0.0246
185.2385	0.2121
185.4568	0.1549
185.6751	0.2288
185.8934	0.1544
186.1117	-0.0586
186.3299	0.1697
186.5482	0.1015
186.7664	0.186
186.9847	0.0933
187.2029	0.1818
187.4211	-0.0033
187.6393	0.3465
187.8575	0.6118
188.0757	0.2548
188.2939	0.058
188.512	0.1094
188.7302	0.1912
188.9483	0.2418
189.1665	0.3057
189.3846	0.2965
189.6027	0.1893
189.8208	0.2035
190.0389	0.0693
190.257	0.0405
190.475	0.0901
190.6931	0.1931
190.9111	0.312
191.1292	0.2277
191.3472	0.1247
191.5652	0.3308
191.7832	0.256
192.0012	0.2913
192.2192	0.1093
192.4371	0.1417
192.6551	0.1864
192.873	0.2647
193.091	0.1633
193.3089	0.2075
193.5268	0.2909
193.7447	0.2839
193.9626	0.1091
194.1805	0.2337
194.3984	0.2058
194.6162	0.1888
194.8341	0.3541
195.0519	0.2582
195.2697	0.3362
195.4875	0.3152
195.7054	0.2812
195.9231	0.197
196.1409	0.3239
196.3587	0.2951
196.5765	0.2931
196.7942	0.3305
197.012	0.3516
197.2297	0.3061
197.4474	0.4967
197.6651	0.3226
197.8828	0.2966
198.1005	0.4257
198.3182	0.3662
198.5358	0.3935
198.7535	0.3751
198.9711	0.4679
199.1888	0.3457
199.4064	0.4033
199.624	0.3821
199.8416	0.3898
200.0592	0.4041
200.2767	0.3942
200.4943	0.4397
200.7119	0.3998
200.9294	0.4039
201.1469	0.4176
201.3645	0.5184
201.582	0.391
201.7995	0.3997
202.017	0.3828
202.2344	0.3944
202.4519	0.4231
202.6694	0.381
202.8868	0.4175
203.1042	0.3915
203.3217	0.3761
203.5391	0.4109
203.7565	0.342
203.9739	0.3629
204.1913	0.3504
204.4086	0.3624
204.626	0.3516
204.8433	0.3646
205.0607	0.3501
205.278	0.3329
205.4953	0.3416
205.7126	0.3451
205.9299	0.3381
206.1472	0.3239
206.3644	0.3427
206.5817	0.3346
206.7989	0.3386
207.0162	0.3025
207.2334	0.3497
207.4506	0.2783
207.6678	0.3446
207.885	0.2907
208.1022	0.3009
208.3194	0.2843
208.5365	0.3244
208.7537	0.2825
208.9708	0.298
209.1879	0.2878
209.405	0.2901
209.6222	0.2678
209.8392	0.2975
210.0563	0.2833
210.2734	0.2551
210.4905	0.2792
210.7075	0.2645
210.9245	0.2803
211.1416	0.2677
211.3586	0.2487
211.5756	0.2357
211.7926	0.2631
212.0096	0.2638
212.2265	0.2615
212.4435	0.242
212.6604	0.2341
212.8774	0.2325
213.0943	0.2461
213.3112	0.2563
213.5281	0.2471
213.745	0.2307
213.9619	0.2465
214.1788	0.2503
214.3956	0.2365
214.6125	0.2606
214.8293	0.241
215.0461	0.2338
215.2629	0.2564
215.4798	0.2421
215.6965	0.2329
215.9133	0.2321
216.1301	0.2449
216.3469	0.2493
216.5636	0.2458
216.7803	0.2432
216.9971	0.2532
217.2138	0.2492
217.4305	0.2326
217.6472	0.2491
217.8639	0.248
218.0805	0.2507
218.2972	0.2428
218.5138	0.2576
218.7305	0.264
218.9471	0.2412
219.1637	0.252
219.3803	0.256
219.5969	0.2498
219.8135	0.2644
220.0301	0.252
220.2466	0.2498
220.4632	0.237
220.6797	0.2486
220.8962	0.2499
221.1127	0.2596
221.3292	0.2668
221.5457	0.2578
221.7622	0.2569
221.9787	0.2725
222.1951	0.2701
222.4116	0.2885
222.628	0.2803
222.8444	0.2671
223.0608	0.2657
223.2772	0.2816
223.4936	0.2817
223.71	0.2761
223.9264	0.2796
224.1427	0.278
224.3591	0.281
224.5754	0.2972
224.7917	0.2879
225.008	0.2889
225.2243	0.2999
225.4406	0.2963
225.6569	0.3002
225.8732	0.3004
226.0894	0.3032
226.3057	0.3133
226.5219	0.2986
226.7381	0.3128
226.9543	0.2991
227.1705	0.3145
227.3867	0.3146
227.6029	0.333
227.8191	0.3357
228.0352	0.3455
228.2513	0.34
228.4675	0.3393
228.6836	0.3446
228.8997	0.3428
229.1158	0.3654
229.3319	0.3468
229.548	0.3569
229.764	0.3584
229.9801	0.3665
230.1961	0.3722
230.4121	0.3607
230.6282	0.3799
230.8442	0.3896
231.0602	0.3921
231.2761	0.3792
231.4921	0.4002
231.7081	0.3973
231.924	0.3925
232.14	0.4101
232.3559	0.4132
232.5718	0.4247
232.7877	0.3902
233.0036	0.4167
233.2195	0.4103
233.4353	0.4153
233.6512	0.4182
233.867	0.4178
234.0829	0.424
234.2987	0.4308
234.5145	0.4366
234.7303	0.4447
234.9461	0.4385
235.1619	0.4384
235.3776	0.4375
235.5934	0.4254
235.8091	0.4409
236.0249	0.4487
236.2406	0.4383
236.4563	0.4463
236.672	0.447
236.8877	0.4488
237.1034	0.4469
237.319	0.4522
237.5347	0.4492
237.7503	0.4429
237.966	0.4518
238.1816	0.4561
238.3972	0.459
238.6128	0.4534
238.8284	0.4559
239.0439	0.4652
239.2595	0.463
239.475	0.4545
239.6906	0.4612
239.9061	0.4581
240.1216	0.4691
240.3371	0.4621
240.5526	0.4622
240.7681	0.458
240.9836	0.4499
241.199	0.4521
241.4145	0.4578
241.6299	0.4464
241.8453	0.4344
242.0607	0.4368
242.2761	0.4431
242.4915	0.4336
242.7069	0.4118
242.9223	0.4279
243.1376	0.4167
243.353	0.4014
243.5683	0.4026
243.7836	0.3975
243.9989	0.3809
244.2142	0.3773
244.4295	0.3738
244.6448	0.3762
244.86	0.3545
245.0753	0.3542
245.2905	0.3412
245.5057	0.3468
245.721	0.3479
245.9362	0.329
246.1514	0.3272
246.3665	0.3223
246.5817	0.3049
246.7969	0.3067
247.012	0.2973
247.2271	0.295
247.4423	0.2862
247.6574	0.2831
247.8725	0.2772
248.0876	0.2731
248.3026	0.2723
248.5177	0.2614
248.7328	0.2548
248.9478	0.2513
249.1628	0.2464
249.3779	0.2412
249.5929	0.2446
249.8079	0.2374
250.0228	0.2337
250.2378	0.2317
250.4528	0.2315
250.6677	0.2246
250.8827	0.2207
251.0976	0.2193
251.3125	0.219
251.5274	0.2094
251.7423	0.2101
251.9572	0.2109
252.172	0.2104
252.3869	0.2075
252.6017	0.2072
252.8166	0.1971
253.0314	0.2007
253.2462	0.1974
253.461	0.1889
253.6758	0.1906
253.8906	0.189
254.1053	0.1943
254.3201	0.1915
254.5348	0.1787
254.7496	0.1802
254.9643	0.1897
255.179	0.1919
255.3937	0.1895
255.6083	0.1887
255.823	0.185
256.0377	0.1775
256.2523	0.1878
256.467	0.1904
256.6816	0.1807
256.8962	0.1908
257.1108	0.1793
257.3254	0.1808
257.54	0.1784
257.7545	0.183
257.9691	0.1813
258.1836	0.1754
258.3981	0.1834
258.6127	0.175
258.8272	0.1798
259.0417	0.1733
259.2561	0.1769
259.4706	0.1782
259.6851	0.1783
259.8995	0.1813
260.114	0.1761
260.3284	0.1753
260.5428	0.1763
260.7572	0.1773
260.9716	0.1854
261.186	0.1753
261.4003	0.1768
261.6147	0.1794
261.829	0.1791
262.0433	0.1832
262.2577	0.1768
262.472	0.1796
262.6863	0.1805
262.9005	0.1762
263.1148	0.1783
263.3291	0.178
263.5433	0.1812
263.7576	0.1811
263.9718	0.1899
264.186	0.1812
264.4002	0.1878
264.6144	0.19
264.8286	0.186
265.0427	0.1911
265.2569	0.1884
265.471	0.1868
265.6851	0.1831
265.8993	0.1833
266.1134	0.1891
266.3275	0.1864
266.5415	0.1886
266.7556	0.1938
266.9697	0.1862
267.1837	0.1905
267.3978	0.1864
267.6118	0.1801
267.8258	0.1935
268.0398	0.1908
268.2538	0.1915
268.4677	0.1936
268.6817	0.1853
268.8957	0.1829
269.1096	0.18
269.3235	0.1788
269.5374	0.1883
269.7514	0.1829
269.9652	0.1794
270.1791	0.1823
270.393	0.1862
270.6068	0.1814
270.8207	0.1786
271.0345	0.1802
271.2483	0.1779
271.4622	0.1845
271.676	0.1802
271.8897	0.1767
272.1035	0.1827
272.3173	0.1786
272.531	0.178
272.7448	0.18
272.9585	0.1762
273.1722	0.1768
273.3859	0.1817
273.5996	0.181
273.8133	0.1848
274.0269	0.1792
274.2406	0.1828
274.4542	0.1809
274.6679	0.1832
274.8815	0.1924
275.0951	0.1944
275.3087	0.1913
275.5223	0.1925
275.7358	0.1913
275.9494	0.1916
276.1629	0.1897
276.3765	0.1882
276.59	0.1908
276.8035	0.184
277.017	0.1945
277.2305	0.1905
277.444	0.1961
277.6574	0.2001
277.8709	0.2017
278.0843	0.1966
278.2978	0.1959
278.5112	0.1917
278.7246	0.1915
278.938	0.202
279.1513	0.1948
279.3647	0.1911
279.5781	0.1953
279.7914	0.1883
280.0047	0.1947
280.2181	0.1924
280.4314	0.1916
280.6447	0.1921
280.8579	0.1888
281.0712	0.1845
281.2845	0.1891
281.4977	0.1923
281.711	0.1832
281.9242	0.1895
282.1374	0.1865
282.3506	0.1913
282.5638	0.1904
282.7769	0.1806
282.9901	0.1876
283.2033	0.1878
283.4164	0.1898
283.6295	0.185
283.8426	0.1896
284.0557	0.1861
284.2688	0.1863
284.4819	0.1833
284.695	0.1835
284.908	0.1859
285.1211	0.1872
285.3341	0.1786
285.5471	0.1829
285.7601	0.189
285.9731	0.1887
286.1861	0.1868
286.3991	0.1869
286.612	0.1832
286.825	0.1904
287.0379	0.1873
287.2508	0.1902
287.4637	0.1862
287.6766	0.1853
287.8895	0.184
288.1024	0.1938
288.3152	0.1892
288.5281	0.1896
288.7409	0.1878
288.9538	0.1822
289.1666	0.184
289.3794	0.1845
289.5922	0.186
289.8049	0.1818
290.0177	0.189
290.2304	0.1828
290.4432	0.1897
290.6559	0.1927
290.8686	0.1855
291.0813	0.1835
291.294	0.186
291.5067	0.1861
291.7194	0.1885
291.932	0.1808
292.1447	0.1886
292.3573	0.1877
292.5699	0.1869
292.7825	0.1819
292.9951	0.1868
293.2077	0.1829
293.4203	0.1894
293.6328	0.1853
293.8454	0.1885
294.0579	0.1859
294.2704	0.1921
294.4829	0.1834
294.6954	0.1835
294.9079	0.1888
295.1204	0.1888
295.3328	0.1914
295.5453	0.1821
295.7577	0.1853
295.9701	0.18
296.1825	0.1894
296.3949	0.1807
296.6073	0.182
296.8197	0.1877
297.0321	0.1896
297.2444	0.1838
297.4567	0.188
297.6691	0.1819
297.8814	0.1877
298.0937	0.1809
298.306	0.1832
298.5182	0.1904
298.7305	0.1863
298.9428	0.186
299.155	0.1792
299.3672	0.183
299.5794	0.1859
299.7916	0.1847
300.0038	0.1851
300.216	0.1876
300.4282	0.1876
300.6403	0.1876
300.8525	0.1814
301.0646	0.1867
301.2767	0.1887
301.4888	0.1889
301.7009	0.1891
301.913	0.1873
302.125	0.1867
302.3371	0.1897
302.5491	0.1858
302.7612	0.1909
302.9732	0.1857
303.1852	0.1898
303.3972	0.187
303.6092	0.1898
303.8211	0.1836
304.0331	0.1858
304.245	0.1782
304.457	0.1819
304.6689	0.1851
304.8808	0.1776
305.0927	0.1894
305.3046	0.1844
305.5164	0.1759
305.7283	0.1826
305.9401	0.1813
306.152	0.1764
306.3638	0.1811
306.5756	0.1792
306.7874	0.1683
306.9992	0.1764
307.2109	0.1697
307.4227	0.1686
307.6344	0.1745
307.8462	0.1659
308.0579	0.1728
308.2696	0.1645
308.4813	0.1647
308.693	0.1617
308.9046	0.165
309.1163	0.161
309.328	0.1606
309.5396	0.1537
309.7512	0.1585
309.9628	0.1576
310.1744	0.1515
310.386	0.1506
310.5976	0.151
310.8091	0.15
311.0207	0.148
311.2322	0.1442
311.4437	0.1489
311.6552	0.1475
311.8667	0.1548
312.0782	0.1435
312.2897	0.1422
312.5012	0.1458
312.7126	0.1358
312.924	0.1423
313.1355	0.1375
313.3469	0.1351
313.5583	0.1379
313.7696	0.1376
313.981	0.1423
314.1924	0.1346
314.4037	0.1382
314.6151	0.1366
314.8264	0.1389
315.0377	0.1368
315.249	0.1366
315.4603	0.124
315.6716	0.1369
315.8828	0.1356
316.0941	0.1307
316.3053	0.1284
316.5165	0.1343
316.7277	0.1337
316.9389	0.1345
317.1501	0.1325
317.3613	0.1315
317.5724	0.1307
317.7836	0.1318
317.9947	0.133
318.2058	0.133
318.417	0.1261
318.6281	0.1277
318.8391	0.1318
319.0502	0.132
319.2613	0.133
319.4723	0.1332
319.6834	0.1356
319.8944	0.1293
320.1054	0.1297
320.3164	0.125
320.5274	0.1305
320.7383	0.1296
320.9493	0.1357
321.1602	0.1291
321.3712	0.1346
321.5821	0.1254
321.793	0.1366
322.0039	0.1372
322.2148	0.1312
322.4257	0.1344
322.6365	0.1288
322.8474	0.1331
323.0582	0.1312
323.269	0.133
323.4798	0.1325
323.6906	0.1256
323.9014	0.1241
324.1122	0.1255
324.3229	0.1366
324.5337	0.1404
324.7444	0.1353
324.9551	0.1314
325.1658	0.1381
325.3765	0.136
325.5872	0.1378
325.7979	0.1355
326.0085	0.1357
326.2192	0.1303
326.4298	0.137
326.6404	0.1433
326.851	0.1325
327.0616	0.1409
327.2722	0.1413
327.4828	0.1385
327.6933	0.1486
327.9039	0.1342
328.1144	0.1437
328.3249	0.1487
328.5354	0.1418
328.7459	0.1387
328.9564	0.144
329.1669	0.1467
329.3773	0.143
329.5878	0.1403
329.7982	0.1476
330.0086	0.1488
330.219	0.1385
330.4294	0.1458
330.6398	0.146
330.8502	0.1451
331.0605	0.1383
331.2708	0.1428
331.4812	0.1381
331.6915	0.1439
331.9018	0.1445
332.1121	0.1555
332.3224	0.1475
332.5326	0.1417
332.7429	0.142
332.9531	0.1504
333.1633	0.1443
333.3735	0.1419
333.5837	0.1425
333.7939	0.1436
334.0041	0.1516
334.2143	0.1435
334.4244	0.1505
334.6346	0.1451
334.8447	0.1501
335.0548	0.1477
335.2649	0.1483
335.475	0.1523
335.685	0.1411
335.8951	0.1458
336.1051	0.1514
336.3152	0.153
336.5252	0.1527
336.7352	0.1399
336.9452	0.154
337.1552	0.1438
337.3652	0.142
337.5751	0.1487
337.7851	0.1418
337.995	0.1487
338.2049	0.148
338.4148	0.1438
338.6247	0.1541
338.8346	0.1465
339.0445	0.1516
339.2543	0.1505
339.4642	0.1469
339.674	0.1415
339.8838	0.1445
340.0936	0.15
340.3034	0.1476
340.5132	0.1399
340.7229	0.1423
340.9327	0.1565
341.1424	0.1515
341.3522	0.1406
341.5619	0.153
341.7716	0.1548
341.9813	0.1541
342.1909	0.1511
342.4006	0.1538
342.6102	0.1567
342.8199	0.1532
343.0295	0.1499
343.2391	0.1592
343.4487	0.1641
343.6583	0.1643
343.8679	0.1587
344.0774	0.156
344.287	0.1632
344.4965	0.1642
344.706	0.1654
344.9155	0.1582
345.125	0.1635
345.3345	0.1738
345.544	0.1631
345.7534	0.1643
345.9629	0.1692
346.1723	0.1672
346.3817	0.1664
346.5911	0.1693
346.8005	0.1758
347.0099	0.1707
347.2193	0.1831
347.4286	0.178
347.638	0.1719
347.8473	0.1763
348.0566	0.1782
348.2659	0.1725
348.4752	0.1774
348.6845	0.1733
348.8937	0.1754
349.103	0.1791
349.3122	0.1812
349.5214	0.176
349.7306	0.1805
349.9398	0.1795
350.149	0.1755
350.3582	0.1804
350.5674	0.1779
350.7765	0.185
350.9856	0.1752
351.1948	0.1858
351.4039	0.1859
351.613	0.1819
351.822	0.1864
352.0311	0.1849
352.2402	0.1885
352.4492	0.1809
352.6582	0.1858
352.8672	0.1834
353.0762	0.1839
353.2852	0.1814
353.4942	0.1847
353.7032	0.1794
353.9121	0.1835
354.1211	0.1838
354.33	0.1886
354.5389	0.1808
354.7478	0.1775
354.9567	0.1852
355.1655	0.1854
355.3744	0.1801
355.5833	0.1911
355.7921	0.1877
356.0009	0.1784
356.2097	0.1737
356.4185	0.1835
356.6273	0.1869
356.8361	0.1831
357.0448	0.1913
357.2536	0.1894
357.4623	0.1791
357.671	0.1904
357.8797	0.1832
358.0884	0.1831
358.2971	0.1866
358.5057	0.1909
358.7144	0.1853
358.923	0.1907
359.1316	0.1843
359.3402	0.1858
359.5488	0.1868
359.7574	0.1964
359.966	0.1924
360.1746	0.1969
360.3831	0.2019
360.5916	0.2
360.8002	0.2052
361.0087	0.1956
361.2172	0.2039
361.4256	0.2002
361.6341	0.1992
361.8426	0.2023
362.051	0.1997
362.2594	0.2017
362.4678	0.2084
362.6762	0.204
362.8846	0.2103
363.093	0.2084
363.3014	0.2145
363.5097	0.2003
363.718	0.2036
363.9264	0.2141
364.1347	0.2115
364.343	0.2057
364.5513	0.2097
364.7595	0.2198
364.9678	0.2086
365.176	0.2196
365.3842	0.2109
365.5925	0.2129
365.8007	0.2142
366.0089	0.2224
366.217	0.2144
366.4252	0.2113
366.6333	0.2222
366.8415	0.2259
367.0496	0.2284
367.2577	0.2177
367.4658	0.2276
367.6739	0.2206
367.882	0.2294
368.09	0.2249
368.2981	0.2262
368.5061	0.224
368.7141	0.224
368.9221	0.2366
369.1301	0.2315
369.3381	0.2345
369.5461	0.2304
369.754	0.2316
369.962	0.2337
370.1699	0.2371
370.3778	0.2413
370.5857	0.2452
370.7936	0.2287
371.0015	0.2337
371.2093	0.2283
371.4172	0.2391
371.625	0.2313
371.8328	0.2215
372.0406	0.2457
372.2484	0.2412
372.4562	0.2385
372.664	0.2434
372.8717	0.2462
373.0795	0.2498
373.2872	0.2463
373.4949	0.2481
373.7026	0.2416
373.9103	0.2436
374.118	0.2507
374.3256	0.2495
374.5333	0.2417
374.7409	0.255
374.9485	0.2505
375.1561	0.2419
375.3637	0.241
375.5713	0.257
375.7789	0.2448
375.9864	0.2452
376.194	0.2544
376.4015	0.2451
376.609	0.2502
376.8165	0.2625
377.024	0.2533
377.2315	0.2503
377.4389	0.2456
377.6464	0.2629
377.8538	0.256
378.0612	0.2543
378.2686	0.2504
378.476	0.2665
378.6834	0.2633
378.8908	0.2669
379.0981	0.2731
379.3055	0.2726
379.5128	0.2518
379.7201	0.2636
379.9274	0.2566
380.1347	0.2627
380.342	0.2736
380.5492	0.2704
380.7565	0.2634
380.9637	0.2644
381.1709	0.2702
381.3781	0.2712
381.5853	0.2673
381.7925	0.2649
381.9997	0.2714
382.2068	0.2652
382.4139	0.2714
382.6211	0.2677
382.8282	0.2716
383.0353	0.271
383.2424	0.2724
383.4494	0.2734
383.6565	0.2698
383.8635	0.2691
384.0706	0.2769
384.2776	0.2748
384.4846	0.2756
384.6916	0.2735
384.8986	0.2815
385.1055	0.2834
385.3125	0.2835
385.5194	0.2911
385.7263	0.2691
385.9333	0.2912
386.1402	0.2757
386.347	0.2722
386.5539	0.2763
386.7608	0.2714
386.9676	0.2708
387.1744	0.273
387.3813	0.2824
387.5881	0.2645
387.7948	0.2765
388.0016	0.2804
388.2084	0.27
388.4151	0.2765
388.6219	0.263
388.8286	0.2787
389.0353	0.2681
389.242	0.2703
389.4487	0.2663
389.6553	0.2565
389.862	0.2665
390.0686	0.2756
390.2753	0.2718
390.4819	0.2719
390.6885	0.2651
390.8951	0.2656
391.1016	0.2718
391.3082	0.2692
391.5147	0.2639
391.7213	0.2649
391.9278	0.2588
392.1343	0.2639
392.3408	0.2654
392.5473	0.257
392.7537	0.2617
392.9602	0.2545
393.1666	0.2593
393.373	0.2557
393.5794	0.252
393.7858	0.2604
393.9922	0.2463
394.1986	0.2456
394.4049	0.2469
394.6113	0.2528
394.8176	0.2506
395.0239	0.2441
395.2302	0.2437
395.4365	0.25
395.6428	0.2454
395.8491	0.2436
396.0553	0.2379
396.2615	0.245
396.4678	0.2499
396.674	0.236
396.8802	0.2395
397.0863	0.2321
397.2925	0.2429
397.4987	0.2399
397.7048	0.2375
397.9109	0.2325
398.117	0.2276
398.3231	0.2308
398.5292	0.23
398.7353	0.231
398.9413	0.235
399.1474	0.2409
399.3534	0.2367
399.5594	0.2495
399.7654	0.2291
399.9714	0.2322
400.1774	0.2247
400.3833	0.2358
400.5893	0.233
400.7952	0.2383
401.0011	0.235
401.207	0.2332
401.4129	0.2393
401.6188	0.2346
401.8247	0.2368
402.0305	0.2271
402.2364	0.2379
402.4422	0.2315
402.648	0.2362
402.8538	0.2292
403.0596	0.2304
403.2654	0.2291
403.4711	0.2244
403.6768	0.2277
403.8826	0.2354
404.0883	0.234
404.294	0.2393
404.4997	0.233
404.7054	0.2316
404.911	0.2218
405.1167	0.2341
405.3223	0.2284
405.5279	0.2361
405.7335	0.2281
405.9391	0.2261
406.1447	0.2328
406.3502	0.2326
406.5558	0.2263
406.7613	0.232
406.9668	0.222
407.1724	0.223
407.3778	0.2285
407.5833	0.2264
407.7888	0.2334
407.9942	0.2275
408.1997	0.2294
408.4051	0.2257
408.6105	0.2343
408.8159	0.2293
409.0213	0.2303
409.2267	0.2436
409.432	0.2225
409.6374	0.2309
409.8427	0.2322
410.048	0.2243
410.2533	0.2254
410.4586	0.2243
410.6639	0.2193
410.8691	0.2214
411.0744	0.2329
411.2796	0.229
411.4848	0.2285
411.69	0.2245
411.8952	0.2347
412.1004	0.223
412.3056	0.2193
412.5107	0.2328
412.7158	0.2412
412.921	0.2241
413.1261	0.2193
413.3312	0.2243
413.5362	0.2371
413.7413	0.227
413.9464	0.2211
414.1514	0.2255
414.3564	0.2241
414.5614	0.2267
414.7664	0.227
414.9714	0.2238
415.1764	0.2299
415.3813	0.2226
415.5863	0.2323
415.7912	0.2141
415.9961	0.2193
416.201	0.2342
416.4059	0.224
416.6108	0.2263
416.8156	0.2282
417.0205	0.2166
417.2253	0.2234
417.4301	0.2302
417.6349	0.219
417.8397	0.2276
418.0445	0.2255
418.2492	0.2143
418.454	0.2246
418.6587	0.2191
418.8634	0.2207
419.0681	0.2203
419.2728	0.219
419.4775	0.2176
419.6822	0.22
419.8868	0.219
420.0915	0.2115
420.2961	0.2131
420.5007	0.2202
420.7053	0.2063
420.9099	0.2158
421.1144	0.2151
421.319	0.2109
421.5235	0.1989
421.728	0.2156
421.9325	0.2219
422.137	0.2052
422.3415	0.215
422.546	0.1998
422.7504	0.2127
422.9549	0.211
423.1593	0.2002
423.3637	0.208
423.5681	0.2152
423.7725	0.201
423.9769	0.2038
424.1812	0.1888
424.3856	0.1899
424.5899	0.1952
424.7942	0.2002
424.9985	0.1878
425.2028	0.2043
425.4071	0.2019
425.6113	0.2048
425.8156	0.198
426.0198	0.2066
426.224	0.191
426.4282	0.1882
426.6324	0.1833
426.8366	0.1792
427.0407	0.1906
427.2449	0.1805
427.449	0.1861
427.6531	0.1959
427.8572	0.1808
428.0613	0.1887
428.2654	0.1855
428.4694	0.1713
428.6735	0.1828
428.8775	0.1749
429.0815	0.1701
429.2855	0.1693
429.4895	0.173
429.6935	0.1756
429.8975	0.1675
430.1014	0.1796
430.3053	0.1865
430.5093	0.1642
430.7132	0.1711
430.9171	0.1621
431.1209	0.1614
431.3248	0.1582
431.5286	0.1554
431.7325	0.1584
431.9363	0.1562
432.1401	0.1502
432.3439	0.1603
432.5477	0.1435
432.7514	0.1447
432.9552	0.1542
433.1589	0.1469
433.3627	0.1412
433.5664	0.1385
433.7701	0.1489
433.9737	0.1505
434.1774	0.1508
434.3811	0.1371
434.5847	0.1384
434.7883	0.1474
434.9919	0.1469
435.1955	0.128
435.3991	0.1385
435.6027	0.1296
435.8062	0.1398
436.0098	0.1278
436.2133	0.1308
436.4168	0.114
436.6203	0.1223
436.8238	0.1245
437.0272	0.1231
437.2307	0.1217
437.4341	0.1209
437.6375	0.1242
437.841	0.1085
438.0443	0.1155
438.2477	0.112
438.4511	0.1123
438.6545	0.1181
438.8578	0.0996
439.0611	0.1137
439.2644	0.1084
439.4677	0.1046
439.671	0.0954
439.8743	0.1181
440.0775	0.0976
440.2808	0.1078
440.484	0.0956
440.6872	0.0958
440.8904	0.0823
441.0936	0.1049
441.2967	0.0861
441.4999	0.0854
441.703	0.0807
441.9062	0.0901
442.1093	0.0925
442.3124	0.0903
442.5155	0.085
442.7185	0.0786
442.9216	0.086
443.1246	0.0821
443.3276	0.0843
443.5307	0.0762
443.7337	0.0789
443.9366	0.0675
444.1396	0.0755
444.3426	0.0741
444.5455	0.0746
444.7484	0.063
444.9513	0.0681
445.1542	0.0704
445.3571	0.0676
445.56	0.0604
445.7628	0.0583
445.9657	0.0647
446.1685	0.0641
446.3713	0.0698
446.5741	0.067
446.7769	0.0608
446.9797	0.062
447.1824	0.0624
447.3852	0.0562
447.5879	0.0535
447.7906	0.0483
447.9933	0.0496
448.196	0.0463
448.3986	0.0514
448.6013	0.0423
448.8039	0.0579
449.0066	0.0587
449.2092	0.0546
449.4118	0.0486
449.6143	0.0601
449.8169	0.0492
450.0195	0.0385
450.222	0.0495
450.4245	0.0458
450.627	0.0424
450.8295	0.0326
451.032	0.0393
451.2345	0.0394
451.4369	0.0407
451.6394	0.0378
451.8418	0.0394
452.0442	0.043
452.2466	0.0322
452.449	0.0371
452.6513	0.0338
452.8537	0.029
453.056	0.0374
453.2583	0.0308
453.4607	0.0228
453.663	0.029
453.8652	0.0415
454.0675	0.0331
454.2697	0.0258
454.472	0.0207
454.6742	0.0303
454.8764	0.0301
455.0786	0.0185
455.2808	0.0277
455.4829	0.0308
455.6851	0.0282
455.8872	0.0203
456.0893	0.0283
456.2915	0.0307
456.4935	0.0228
456.6956	0.025
456.8977	0.0246
457.0997	0.0346
457.3018	0.015
457.5038	0.0258
457.7058	0.0239
457.9078	0.0212
458.1098	0.0227
458.3117	0.0288
458.5137	0.011
458.7156	0.0207
458.9175	0.0167
459.1194	0.0191
459.3213	0.0212
459.5232	0.0181
459.725	0.0225
459.9269	0.0187
460.1287	0.0116
460.3305	0.0201
460.5323	0.0105
460.7341	0.0157
460.9359	0.007
461.1376	0.0276
461.3394	0.0217
461.5411	0.0166
461.7428	0.0165
461.9445	0.0159
462.1462	0.0097
462.3479	0.0153
462.5495	0.0188
462.7512	0.0214
462.9528	0.0163
463.1544	0.0179
463.356	0.01
463.5576	0.0162
463.7592	0.0143
463.9607	0.0151
464.1623	0.009
464.3638	0.0064
464.5653	0.0184
464.7668	0.0198
464.9683	0.0144
465.1697	0.0116
465.3712	0.0059
465.5726	0.0095
465.7741	0.0159
465.9755	0.0095
466.1769	0.0021
466.3782	0.0021
466.5796	0.0058
466.7809	0.0242
466.9823	0.0128
467.1836	0.0133
467.3849	0.0149
467.5862	0.0015
467.7875	0.013
467.9887	0.0127
468.19	0.007
468.3912	0.0117
468.5924	0.0056
468.7936	0.0113
468.9948	0.0113
469.196	0.0143
469.3972	0.0058
469.5983	0.0049
469.7994	0.0169
470.0006	0.0043
470.2017	0.0124
470.4027	0.0214
470.6038	0.0132
470.8049	0.0097
471.0059	0.0174
471.2069	0.0132
471.408	0.0151
471.6089	0.0027
471.8099	0.0141
472.0109	0.0005
472.2119	0.0096
472.4128	-0.0037
472.6137	0.0129
472.8146	-0.0016
473.0155	0.0105
473.2164	0.0083
473.4173	0.0044
473.6181	0.0034
473.819	0.0089
474.0198	0.0092
474.2206	0.0012
474.4214	0.0076
474.6222	-0.0096
474.8229	0.0032
475.0237	0.0078
475.2244	0.0086
475.4251	-0.0006
475.6258	0.0093
475.8265	0.0103
476.0272	0.0068
476.2278	0.0016
476.4285	-0.0012
476.6291	0.0137
476.8297	0.003
477.0303	0.0042
477.2309	0.0043
477.4315	0.0123
477.632	-0.0027
477.8326	0.005
478.0331	0.0159
478.2336	0.0014
478.4341	0.0125
478.6346	0.0055
478.8351	0.0002
479.0355	0.0164
479.236	0.0147
479.4364	0.0139
479.6368	-0.0001
479.8372	0.0105
480.0376	0.0047
480.2379	0.0085
480.4383	0.0177
480.6386	-0.0012
480.8389	0.0053
481.0392	0.0032
481.2395	0.0103
481.4398	0.0074
481.6401	0.0067
481.8403	0.0049
482.0405	0.0049
482.2408	0.0118
482.441	0.0115
482.6411	0.0053
482.8413	0.0021
483.0415	0.0118
483.2416	0.0048
483.4417	-0.0004
483.6419	0.0006
483.8419	0.0075
484.042	0.0087
484.2421	0.001
484.4422	-0.0016
484.6422	0.0097
484.8422	0.0041
485.0422	0.0065
485.2422	0.0068
485.4422	0.0027
485.6422	0.0022
485.8421	0.0001
486.042	0.011
486.242	-0.0029
486.4419	0.0047
486.6417	0.0047
486.8416	0.0033
487.0415	0.0004
487.2413	-0.0014
487.4411	0.0067
487.641	0.0052
487.8408	0.0084
488.0405	0.014
488.2403	-0.0029
488.4401	0.0045
488.6398	0.0099
488.8395	0.0026
489.0392	0.0014
489.2389	0.0163
489.4386	-0.0062
489.6383	0.0066
489.8379	0.0055
490.0376	0.0081
490.2372	0.0059
490.4368	0.0028
490.6364	-0.0096
490.836	0.0013
491.0355	-0.0015
491.2351	0.002
491.4346	0.0087
491.6341	0.0031
491.8336	0.0052
492.0331	0.0013
492.2326	0.0082
492.432	0.0084
492.6315	0.0072
492.8309	0.0055
493.0303	0.0065
493.2297	0.0084
493.4291	0.0043
493.6284	0.018
493.8278	0.0075
494.0271	0.0062
494.2264	0.0011
494.4257	0.0049
494.625	0.0045
494.8243	0.0054
495.0236	0.0026
495.2228	0.0106
495.422	0.0075
495.6213	0.0011
495.8205	0.0003
496.0196	0.0043
496.2188	0.0046
496.418	0.0041
496.6171	-0.0003
496.8162	0.0088
497.0153	0.0093
497.2144	0.0069
497.4135	0.0078
497.6126	0.0066
497.8116	0.0037
498.0107	0.0084
498.2097	0.0127
498.4087	0.0071
498.6077	-0.0023
498.8067	0.0087
499.0056	0.0078
499.2046	0.0063
499.4035	0.0076
499.6024	-0.0006
499.8013	0.0081
500.0002	0.0026
500.199	0.0051
500.3979	-0.0012
500.5967	0.0046
500.7956	0.0126
500.9944	0.0063
501.1932	0.0109
501.3919	0.0109
501.5907	0.0129
501.7895	0.0009
501.9882	0.0035
502.1869	0.0096
502.3856	0.0038
502.5843	0.0054
502.783	0.0043
502.9816	0.0011
503.1803	0.0021
503.3789	0.0096
503.5775	-0.0001
503.7761	-0.001
503.9747	0.0138
504.1732	0.0026
504.3718	0.0146
504.5703	0.0027
504.7689	-0.0068
504.9674	0.0055
505.1658	0.0033
505.3643	0.0014
505.5628	0.0115
505.7612	0.0081
505.9597	0.0019
506.1581	0.01
506.3565	0.0032
506.5549	0.0019
506.7532	-0.0006
506.9516	0.0031
507.1499	0.0104
507.3482	0.007
507.5465	0.0083
507.7448	0.0088
507.9431	0.015
508.1414	0.0002
508.3396	0.0044
508.5379	0.0004
508.7361	0.0096
508.9343	0.005
509.1325	0.0175
509.3306	0.0052
509.5288	-0.0037
509.7269	0.0116
509.9251	0.0083
510.1232	0.0072
510.3213	0.0051
510.5193	0.0091
510.7174	0.0009
510.9154	0.0061
511.1135	0.0006
511.3115	0.007
511.5095	0.0033
511.7075	-0.0006
511.9055	0.0043
512.1034	0.0089
512.3014	-0.0089
512.4993	0.0043
512.6972	0.0067
512.8951	0.0092
513.093	0.0035
513.2908	0.0157
513.4887	0.0019
513.6865	0.0036
513.8844	0.0051
514.0822	0.0067
514.2799	0.0012
514.4777	-0.0007
514.6755	-0.0038
514.8732	0.0097
515.0709	0.0075
515.2687	0.0087
515.4664	0.0078
515.664	0.0137
515.8617	0.0072
516.0594	0.0116
516.257	0.0139
516.4546	0.0224
516.6522	0.0037
516.8498	0.0026
517.0474	0.0093
517.2449	0.0017
517.4425	0.0079
517.64	0.0054
517.8375	0.0067
518.035	0.0054
518.2325	0.0018
518.43	0.0016
518.6274	-0.0056
518.8249	-0.0034
519.0223	0.0088
519.2197	0.006
519.4171	-0.0013
519.6145	0.005
519.8118	-0.0023
520.0092	-0.0034
520.2065	0.0126
520.4038	0.0124
520.6011	0.012
520.7984	0.0125
520.9956	0.0204
521.1929	0.0115
521.3901	0.0035
521.5874	0.0065
521.7846	0.0015
521.9818	0.0139
522.1789	0.0013
522.3761	0.0126
522.5732	0.009
522.7704	-0.0027
522.9675	0.0023
523.1646	-0.0054
523.3617	0.0132
523.5587	0.0009
523.7558	0.0013
523.9528	0.0163
524.1498	0.0025
524.3468	0.002
524.5438	0.0043
524.7408	0.0044
524.9378	0.0137
525.1347	0.0069
525.3316	-0.0023
525.5285	0.0056
525.7254	0.0049
525.9223	0.0144
526.1192	0.0108
526.316	0.0099
526.5129	0.0192
526.7097	-0.0064
526.9065	0.0172
527.1033	0.0081
527.3	0.0106
527.4968	0.0187
527.6935	-0.0101
527.8903	0.008
528.087	0.0055
528.2837	0.0101
528.4804	-0.0007
528.677	0.0078
528.8737	-0.0062
529.0703	0.0069
529.2669	0.0118
529.4635	0.0014
529.6601	-0.0102
529.8567	-0.0016
530.0532	0.0123
530.2498	0.0026
530.4463	-0.0062
530.6428	0.0086
530.8393	0.0171
531.0358	0.0115
531.2322	-0.0085
531.4287	0.0052
531.6251	-0.0045
531.8215	-0.0025
532.0179	0.0113
532.2143	0.0077
532.4107	0.0083
532.607	0.01
532.8034	-0.0016
532.9997	-0.0006
533.196	0.0041
533.3923	0.0142
533.5886	0.0032
533.7848	0.0073
533.9811	0.0031
534.1773	0.0068
534.3735	0.0121
534.5697	0.0053
534.7659	0.0096
534.9621	0.0052
535.1582	0.0098
535.3544	0.0099
535.5505	0.0049
535.7466	0.0125
535.9427	0.0085
536.1387	0.008
536.3348	0.0156
536.5308	-0.0048
536.7269	-0.0036
536.9229	0.0029
537.1189	0.0078
537.3148	0.0087
537.5108	0.0034
537.7068	0.0101
537.9027	-0.0053
538.0986	0.0039
538.2945	-0.0018
538.4904	-0.0016
538.6863	0.0015
538.8821	0.0051
539.078	0.0103
539.2738	0.0033
539.4696	0.0007
539.6654	0.0027
539.8611	0.0093
540.0569	0.0074
540.2526	0.0003
540.4484	0.0015
540.6441	0.0089
540.8398	0.0109
541.0355	0.006
541.2311	0.0028
541.4268	0.0108
541.6224	0.0148
541.818	0.0009
542.0136	0.0076
542.2092	0.0115
542.4048	0.0045
542.6003	0.0052
542.7959	0.0128
542.9914	0.0014
543.1869	0.0096
543.3824	0.0044
543.5779	0.0114
543.7734	0.0092
543.9688	0.0144
544.1642	0.0021
544.3596	0.0074
544.555	0.0038
544.7504	0.0083
544.9458	0.007
545.1411	0.0018
545.3365	0.0133
545.5318	0.0142
545.7271	0.0142
545.9224	-0.0013
546.1177	-0.0001
546.3129	-0.0017
546.5081	0.001
546.7034	0.005
546.8986	0.0044
547.0938	0.01
547.289	0.009
547.4841	0.0072
547.6793	0.0081
547.8744	0.0074
548.0695	-0.0068
548.2646	0.0123
548.4597	0.0074
548.6548	0.0078
548.8498	0.0081
549.0448	0.008
549.2399	0.0136
549.4349	0.0103
549.6298	0.0061
549.8248	0.0063
550.0198	0.0063
550.2147	0.0069
550.4096	-0.0014
550.6045	0.0111
550.7994	0.0025
550.9943	0.0162
551.1892	-0.0074
551.384	0.0173
551.5788	0.0056
551.7737	0.0063
551.9685	0.0114
552.1632	-0.0015
552.358	0.0106
552.5528	0.006
552.7475	0.0084
552.9422	0.0039
553.1369	0.006
553.3316	0.0025
553.5263	0.0092
553.7209	0.0023
553.9156	0.0033
554.1102	0.0063
554.3048	-0.0064
554.4994	-0.0014
554.694	0.0055
554.8885	0.005
555.0831	0.0158
555.2776	-0.0019
555.4721	0.0067
555.6666	0.0053
555.8611	0.0108
556.0555	0.0084
556.25	0.0038
556.4444	0.0047
556.6388	0.0055
556.8332	0.0062
557.0276	0.0072
557.222	-0.0045
557.4163	0.0073
557.6107	0.0021
557.805	0.0008
557.9993	-0.0017
558.1936	-0.0005
558.3879	0.0101
558.5821	0.0024
558.7764	0.0048
558.9706	0.013
559.1648	0.0065
559.359	-0.0043
559.5532	0.0006
559.7473	0.0047
559.9415	0.0076
560.1356	0.0215
560.3297	0.0001
560.5238	0.0082
560.7179	-0.0015
560.9119	0.0054
561.106	-0.0036
561.3	0.0096
561.494	0.0011
561.688	-0.003
561.882	-0.0004
562.076	0.0111
562.2699	0.0159
562.4639	0.0204
562.6578	0.0125
562.8517	0.0052
563.0456	0.0048
563.2395	0.0106
563.4333	0.0116
563.6272	-0.0013
563.821	0.0025
564.0148	0.0069
564.2086	0.0024
564.4024	0.0183
564.5961	0.0045
564.7899	0.0216
564.9836	0.0072
565.1773	0.0161
565.371	0.0007
565.5647	0.0036
565.7584	0.0098
565.952	0.0076
566.1456	0.0041
566.3393	0.0104
566.5329	-0.0037
566.7264	0.0103
566.92	0.0046
567.1136	0.0026
567.3071	0.0068
567.5006	0.0049
567.6941	-0.0034
567.8876	0.0054
568.0811	0.0204
568.2745	0.0019
568.468	0.0125
568.6614	0.0081
568.8548	0.0058
569.0482	0.0073
569.2416	0.0011
569.4349	0.0076
569.6283	0.0029
569.8216	0.0093
570.0149	-0.0008
570.2082	0.0156
570.4015	0.0047
570.5947	0.0087
570.788	0.0036
570.9812	0.004
571.1744	0.0071
571.3676	0.0077
571.5608	0.002
571.754	0.0113
571.9471	0.0089
572.1402	0.0046
572.3333	0.003
572.5264	0.0042
572.7195	0.0028
572.9126	0.0033
573.1057	0.0091
573.2987	0.0032
573.4917	0.0025
573.6847	0.0049
573.8777	0.0109
574.0707	0.0052
574.2636	0.0073
574.4566	0.0001
574.6495	0.0005
574.8424	0.0088
575.0353	0.0091
575.2281	0.0067
575.421	0.0035
575.6138	-0.0006
575.8067	0.0048
575.9995	0.0026
576.1923	0.0074
576.385	0.0103
576.5778	0.0102
576.7706	0.005
576.9633	0.0073
577.156	0
577.3487	0.0043
577.5414	0.0009
577.734	0.0012
577.9267	0.0081
578.1193	0.0076
578.3119	0.0001
578.5045	0.0047
578.6971	0.0034
578.8897	0.0062
579.0822	0.0096
579.2747	0.0034
579.4673	0.0027
579.6598	0.0084
579.8522	0.0038
580.0447	0.0064
580.2372	0.0114
580.4296	0.0064
580.622	0.002
580.8144	0.0037
581.0068	0.0036
581.1992	0.0054
581.3915	0
581.5839	0.0054
581.7762	0.005
581.9685	0.0056
582.1608	0.0039
582.353	0.0058
582.5453	0.0087
582.7375	0.0029
582.9298	0.0005
583.122	0.0043
583.3142	0.0093
583.5063	0.0009
583.6985	0.0026
583.8906	0.0059
584.0827	0.0086
584.2749	0
584.4669	0.0027
584.659	0.0091
584.8511	0.0055
585.0431	0.007
585.2352	0.0006
585.4272	0.0051
585.6192	0.0074
585.8111	0.0039
586.0031	0.0053
586.195	0.0062
586.387	-0.0005
586.5789	0.0071
586.7708	0.0069
586.9627	0.0055
587.1545	0.0048
587.3464	0.0061
587.5382	0.0035
587.73	0.0059
587.9218	0.0029
588.1136	-0
588.3053	0.0064
588.4971	0.0017
588.6888	0.0064
588.8805	0.0053
589.0722	0.0085
589.2639	0.0064
589.4556	0.0038
589.6472	0.0089
589.8389	0.0015
590.0305	0.0071
590.2221	0.0069
590.4137	0.0048
590.6052	0.0008
590.7968	0.0067
590.9883	0.0036
591.1798	0.0095
591.3713	0.0024
591.5628	0.0069
591.7543	0.0013
591.9458	0.0031
592.1372	0.0085
592.3286	0.0057
592.52	-0.0002
592.7114	0.006
592.9028	0.0091
593.0941	0.0022
593.2855	0.002
593.4768	0.013
593.6681	0.0082
593.8594	0.0074
594.0506	0.0084
594.2419	0.0067
594.4331	0.0058
594.6244	-0.003
594.8156	0.0028
595.0067	0.0042
595.1979	0.0016
595.3891	0.0053
595.5802	0.0103
595.7713	0.0073
595.9624	0.0032
596.1535	0.0016
596.3446	0.0007
596.5357	0.0058
596.7267	0.0045
596.9177	0.0022
597.1087	-0.0029
597.2997	0.0102
597.4907	0.0037
597.6817	0.006
597.8726	0.0125
598.0635	0.001
598.2544	0.011
598.4453	0.0063
598.6362	0.0077
598.827	0.0044
599.0179	0.0033
599.2087	0.0073
599.3995	0.0073
599.5903	0.0024
599.7811	0.012
599.9718	0.0003
600.1626	-0.0003
600.3533	0.001
600.544	0.0052
600.7347	0.0015
600.9254	0.0133
601.116	0.0026
601.3067	0.0036
601.4973	0.0084
601.6879	0.0052
601.8785	0.0078
602.0691	0.0061
602.2596	0.0102
602.4502	0.0081
602.6407	0.0056
602.8312	0.003
603.0217	0.0035
603.2122	0.0033
603.4027	0.0079
603.5931	0.0044
603.7835	0.0084
603.9739	-0.0007
604.1643	0.0007
604.3547	0.0077
604.5451	0.0055
604.7354	0.0007
604.9257	0.0001
605.116	0.0019
605.3063	0.0056
605.4966	0.0039
605.6869	0.0098
605.8771	0.0115
606.0673	0.0023
606.2575	0.0065
606.4477	0.0106
606.6379	-0.0023
606.8281	0.0041
607.0182	0.0017
607.2083	0.0016
607.3985	0.0058
607.5885	0.0028
607.7786	0.0031
607.9687	0.0071
608.1587	0.0107
608.3488	0.0012
608.5388	-0.0006
608.7288	0.0015
608.9187	0.0073
609.1087	0.0097
609.2986	0.0115
609.4886	-0.0013
609.6785	0.0066
609.8684	-0.0043
610.0582	0.0057
610.2481	-0.0047
610.4379	0.0002
610.6278	0.0036
610.8176	0.0062
611.0074	-0.0003
611.1971	0.0048
611.3869	0.0051
611.5766	-0.0054
611.7664	0.009
611.9561	0.0011
612.1458	0.0079
612.3354	0.0094
612.5251	0.0064
612.7147	0.0094
612.9044	0.0018
613.094	0.0066
613.2836	-0.0007
613.4731	0.0041
613.6627	0.0052
613.8522	0.0087
614.0417	0.0053
614.2313	0.0077
614.4207	0.003
614.6102	0.0091
614.7997	0.0109
614.9891	0.0055
615.1785	-0.0049
615.3679	0.0092
615.5573	0.0086
615.7467	-0.0042
615.9361	0.0031
616.1254	0.0028
616.3147	0.0012
616.504	0.0015
616.6933	0.0061
616.8826	0.0015
617.0718	0.0082
617.2611	0.0001
617.4503	0.0019
617.6395	0.0035
617.8287	0.0065
618.0179	0.0029
618.207	0.0175
618.3961	0.0003
618.5853	0.0085
618.7744	0.0048
618.9634	0.0144
619.1525	0.003
619.3416	0.0064
619.5306	0.0166
619.7196	0.0137
619.9086	0.0085
620.0976	0.0008
620.2866	0.0075
620.4755	-0.0027
620.6645	0.0093
620.8534	0.0082
621.0423	-0.0013
621.2312	-0.0035
621.42	0.0039
621.6089	0.0122
621.7977	0.0127
621.9865	-0.0039
622.1753	0.0027
622.3641	0.0018
622.5529	-0.0006
622.7416	-0.0028
622.9303	-0.0041
623.1191	0.0005
623.3078	0.0095
623.4964	0.0122
623.6851	0.005
623.8737	0.0014
624.0624	-0.0094
624.251	0.0019
624.4396	0.0044
624.6282	0.0061
624.8167	0.0057
625.0053	0.0112
625.1938	0.0034
625.3823	0.0076
625.5708	0.0074
625.7593	0.0007
625.9477	0.0091
626.1362	0.0053
626.3246	0.0019
626.513	0.0121
626.7014	0.005
626.8898	0.0193
627.0781	0.0025
627.2665	0.007
627.4548	-0.0091
627.6431	0.0026
627.8314	0.0251
628.0197	0.0066
628.2079	0.0066
628.3962	-0.0005
628.5844	-0.0053
628.7726	0.0019
628.9608	-0.0018
629.1489	0.0036
629.3371	-0.0055
629.5252	-0.0009
629.7134	0.0064
629.9015	0.0137
630.0895	-0.0098
630.2776	0.0004
630.4657	0.0032
630.6537	-0.0025
630.8417	-0.0053
631.0297	0.0068
631.2177	-0.003
631.4057	0.0083
631.5936	-0.0148
631.7815	-0.0089
631.9695	0.0176
632.1574	0.0141
632.3452	0.0123
632.5331	0.0155
632.7209	0.0124
632.9088	-0.006
633.0966	0.02
633.2844	0.0106
633.4722	0.0028
633.6599	0.0295
633.8477	0.0005
634.0354	0.0215
634.2231	-0.0078
634.4108	0.0019
634.5985	0.0064
634.7861	0.0052
634.9738	-0.0002
635.1614	0.0138
635.349	-0.0027
635.5366	0.0206
635.7242	0.0115
635.9117	0.001
636.0993	0.0006
636.2868	0.0047
636.4743	0.0112
636.6618	-0.0173
636.8492	-0.0005
637.0367	0.005
637.2241	0.0133
637.4115	0.0162
637.5989	0.0009
637.7863	0.0293
637.9737	0.0046
638.161	0.0091
638.3484	-0.0063
638.5357	0.003
638.723	0.0164
638.9103	-0.0111
639.0975	0.0131
639.2848	0.0114
639.472	0.0118
639.6592	-0.0046
639.8464	0.0069
640.0336	0.0155
640.2208	-0.0098
640.4079	-0.0058
640.595	0.0037
640.7821	0.0099
640.9692	-0.0004
641.1563	0.0002
641.3434	0.011
641.5304	0.018
641.7174	0.0123
641.9044	0.0099
642.0914	0.03
642.2784	-0.0045
642.4653	-0.0112
642.6523	0.014
642.8392	-0.007
643.0261	0.0275
643.213	0.0049
643.3999	0.0135
643.5867	0.0087
643.7735	0.0108
643.9604	0.0217
644.1472	0.0076
644.3339	-0.0048
644.5207	0.0033
644.7075	0.0024
644.8942	0.0036
645.0809	0.0067
645.2676	-0.0065
645.4543	0.0056
645.6409	0.0195
645.8276	0.0148
646.0142	0.0193
646.2008	0.0033
646.3874	-0.0038
646.574	0.009
646.7605	0.0132
646.9471	-0.0068
647.1336	-0.0189
647.3201	0.0008
647.5066	-0.0063
647.6931	-0.0006
647.8795	-0.0011
648.0659	0.0081
648.2524	0.0083
648.4388	0.0029
648.6252	0.0151
648.8115	0.0063
648.9979	-0.0003
649.1842	0.0052
649.3705	0.0243
649.5568	-0.0127
649.7431	-0.0146
649.9294	-0.0119
650.1156	-0.0155
650.3018	0.0051
650.488	0.0055
650.6742	0.0017
650.8604	0.0125
651.0466	-0.0027
651.2327	0.0069
651.4188	0.0187
651.6049	0.0187
651.791	0.0006
651.9771	0.001
652.1632	0.003
652.3492	0.017
652.5352	0.0209
652.7212	0.0069
652.9072	-0.003
653.0932	0.0202
653.2791	0.0035
653.465	0.0009
653.651	0.0088
653.8369	0.0044
654.0227	0.003
654.2086	0.0063
654.3944	0.0114
654.5803	-0.0012
654.7661	0.0052
654.9519	0.0025
655.1377	0
655.3234	0
655.5092	0
655.6949	0
655.8806	0
656.0663	0
656.2519	0
656.4376	0
656.6232	0
656.8088	0
656.9945	0
657.18	0
657.3656	0
657.5511	0
657.7367	0
657.9222	0
658.1077	0
658.2932	0
658.4786	0
658.6641	0
658.8495	0
659.0349	0
659.2203	0
659.4057	0
659.591	0.1615
659.7764	0.0323
659.9617	0.0029
660.147	0.0039
660.3323	0.0079
660.5176	-0.0086
660.7028	0.0032
660.888	0.0034
661.0733	0.0139
661.2585	-0.0005
661.4436	0.0089
661.6288	0.009
661.8139	-0.015
661.9991	-0.0131
662.1842	-0.0106
662.3693	0.0046
662.5544	0.0082
662.7394	0.0136
662.9245	0.0055
663.1095	-0.0112
663.2945	-0.007
663.4795	-0.0158
663.6644	-0.0013
663.8494	0.0132
664.0343	0.0077
664.2193	-0.0049
664.4042	0.0115
664.589	0.0124
664.7739	-0.0147
664.9587	-0.02
665.1436	-0.0125
665.3284	-0.0128
665.5132	-0.023
665.698	0.0175
665.8827	0.0335
666.0675	-0.0037
666.2522	0.0056
666.4369	0.0043
666.6216	0.0284
666.8063	0.0007
666.9909	-0.0006
667.1756	-0.0055
667.3602	-0.0026
667.5448	0.0043
667.7294	0.0193
667.9139	0.0046
668.0985	0.0453
668.283	-0.0173
668.4675	0.002
668.652	0.0091
668.8365	0.0047
669.0209	0.0088
669.2054	0.0189
669.3898	0.0145
669.5742	0.0182
669.7586	0.015
669.943	0.0102
670.1273	-0.0072
670.3117	0.0127
670.496	0.0104
670.6803	0.0282
670.8646	-0.0267
671.0488	0.0197
671.2331	-0.0137
671.4173	0.0095
671.6015	-0.0063
671.7857	0.0111
671.9699	0.0121
672.1541	-0.0064
672.3382	0.0115
672.5223	0.0126
672.7064	0.0029
672.8905	0.0005
673.0746	-0.0042
673.2587	0.0348
673.4427	0.0106
673.6267	0.0195
673.8107	0.011
673.9947	0.0339
674.1787	0.0139
674.3626	-0.0006
674.5465	-0.0041
674.7304	0.0079
674.9143	0.0036
675.0982	0.0103
675.2821	-0.0071
675.4659	0.0107
675.6497	0.0119
675.8335	-0.003
676.0173	0.0016
676.2011	0.0124
676.3849	0.0119
676.5686	-0.0019
676.7523	0.0104
676.936	0.0123
677.1197	0.0006
677.3034	0.0242
677.487	0.0188
677.6706	0.0149
677.8542	-0.01
678.0378	0.0103
678.2214	0.0028
678.405	-0.0021
678.5885	0.017
678.772	-0.0006
678.9555	-0.0019
679.139	0.0122
679.3225	-0.0062
679.5059	-0.0044
679.6894	-0.0028
679.8728	0.0068
680.0562	0.0137
680.2395	0.004
680.4229	-0.013
680.6062	0.0049
680.7896	-0.0096
680.9729	0.0185
681.1562	0.0019
681.3394	-0.0045
681.5227	0.0038
681.7059	0.005
681.8891	0.0213
682.0723	0.0096
682.2555	-0.0031
682.4387	0.0131
682.6218	0.0168
682.805	0.0269
682.9881	-0.001
683.1712	0.0256
683.3542	0.0323
683.5373	-0.0018
683.7203	-0.0072
683.9034	-0.0074
684.0864	-0.0029
684.2694	0.01
684.4523	0.0054
684.6353	-0.0037
684.8182	-0.0037
685.0011	0.0031
685.184	0.0032
685.3669	0.0164
685.5498	-0.0036
685.7326	-0.0037
685.9154	-0.0028
686.0982	0.0024
686.281	-0.0107
686.4638	0.0176
686.6465	-0.009
686.8293	-0.0089
687.012	-0.0056
687.1947	0.0019
687.3774	0.0037
687.56	-0.001
687.7427	-0.0073
687.9253	0.0006
688.1079	0.0077
688.2905	0.0058
688.4731	0.0169
688.6556	-0.0028
688.8382	-0.0258
689.0207	0.0166
689.2032	0.0184
689.3857	0.0061
689.5681	0.0003
689.7506	0.0351
689.933	0.0069
690.1154	0.0293
690.2978	-0.0071
690.4802	0.0245
690.6626	0.0073
690.8449	0.0234
691.0272	0.0097
691.2095	-0.0024
691.3918	0.0119
691.5741	-0.0009
691.7563	0.0147
691.9386	0.0131
692.1208	0.0054
692.303	-0.0037
692.4852	0.0077
692.6673	0.0172
692.8495	-0.001
693.0316	0.0109
693.2137	0.0109
693.3958	0.0081
693.5778	0.0024
693.7599	-0.0104
693.9419	0.0039
694.1239	0.0143
694.3059	0.0101
694.4879	0.0095
694.6699	-0.0123
694.8518	-0.0071
695.0337	-0.008
695.2157	0.0159
695.3975	0.0003
695.5794	-0.0081
695.7613	0.0048
695.9431	0.0036
696.1249	0.0057
696.3067	-0.0005
696.4885	0.01
696.6703	0.011
696.852	-0.0051
697.0337	0.0212
697.2154	-0.0055
697.3971	-0.0056
697.5788	0.0102
697.7605	-0.0107
697.9421	0.0188
698.1237	0.0184
698.3053	-0.0112
698.4869	0.0046
698.6685	-0.0003
698.85	0.0129
699.0315	-0.0207
699.213	0.0016
699.3945	0.0027
699.576	0.0138
699.7575	0.0243
699.9389	0.0008
700.1203	-0.0094
700.3017	-0.0131
700.4831	0.0304
700.6645	0.0247
700.8458	-0.0098
701.0271	0.0443
701.2084	0.0204
701.3897	0.0094
701.571	0.0046
701.7523	-0.0027
701.9335	-0.0028
702.1147	0.0248
702.2959	-0.0215
702.4771	0.0072
702.6583	-0.0149
702.8394	-0.0226
703.0205	0.0131
703.2016	-0.0197
703.3827	-0.0203
703.5638	0.0015
703.7449	0.0464
703.9259	0.0037
704.1069	-0.048
704.2879	0.018
704.4689	0.0161
704.6499	0.0263
704.8308	0.0127
705.0117	-0.014
705.1927	0.0397
705.3735	0.0403
705.5544	0.0174
705.7353	-0.016
705.9161	-0.024
706.0969	0.0064
706.2777	-0.0063
706.4585	0.0148
706.6393	0.003
706.82	0.0164
707.0007	-0.0135
707.1815	-0.0171
707.3621	0.0157
707.5428	0.0168
707.7235	0.0121
707.9041	-0.0122
708.0847	-0.001
708.2653	0.0145
708.4459	0.0078
708.6265	-0.0066
708.807	0.0286
708.9875	0.0225
709.168	0.0082
709.3485	0.0129
709.529	0.021
709.7095	-0.0214
709.8899	-0.0135
710.0703	0.0025
710.2507	0.0053
710.4311	-0.012
710.6115	0.0308
710.7918	0.0123
710.9721	0.0007
711.1524	-0.008
711.3327	-0.0162
711.513	0
711.6932	-0.0067
711.8735	0.0028
712.0537	-0.0084
712.2339	0.0029
712.4141	0.016
712.5942	-0.0115
712.7744	0.0117
712.9545	0.0045
713.1346	0.0216
713.3147	0.0252
713.4947	0.0017
713.6748	-0.0002
713.8548	0.0265
714.0348	0.0147
714.2148	0.0139
714.3948	0.0244
714.5748	0.013
714.7547	0.0141
714.9346	0.0375
715.1145	-0.0188
715.2944	-0.0241
715.4743	0.0131
715.6541	-0.0008
715.834	0.0264
716.0138	0.021
716.1936	-0.0242
716.3733	0.0005
716.5531	-0.0069
716.7328	0.0084
716.9126	0.0227
717.0923	-0.0307
717.2719	-0.0107
717.4516	0.0096
717.6312	-0.0171
717.8109	0.0051
717.9905	0.0042
718.1701	0.0304
718.3496	-0.0039
718.5292	0.0069
718.7087	-0.0099
718.8882	0.0208
719.0677	-0.0036
719.2472	-0.0166
719.4267	0.0163
719.6061	-0.0281
719.7856	0.0441
719.965	-0.0004
720.1443	-0.0104
720.3237	-0.0047
720.5031	0.0093
720.6824	0.0081
720.8617	-0.0018
721.041	0.0276
721.2203	0.0017
721.3995	0.0124
721.5788	-0.0097
721.758	-0.0297
721.9372	-0.0032
722.1164	-0.0068
722.2956	-0.0121
722.4747	0.0243
722.6538	-0.0004
722.8329	0.0239
723.012	0.0174
723.1911	0.0182
723.3702	-0.0019
723.5492	0.0096
723.7282	-0.0123
723.9072	0.02
724.0862	0.015
724.2652	0.0061
724.4441	-0.01
724.623	0.0053
724.8019	-0.0025
724.9808	0.0181
725.1597	0.0227
725.3385	0.0086
725.5174	0.0099
725.6962	0.0048
725.875	0.0301
726.0538	0.0137
726.2325	0.0295
726.4112	-0.0337
726.59	-0.0065
726.7687	-0.017
726.9474	0.0025
727.126	0.0182
727.3047	0.0148
727.4833	0.0208
727.6619	-0.0199
727.8405	0.0038
728.0191	-0.0003
728.1976	0.0274
728.3762	0.0011
728.5547	0.0122
728.7332	0.0201
728.9116	0.017
729.0901	0.0105
729.2686	-0.0025
729.447	0.0023
729.6254	0.0163
729.8038	-0.0163
729.9821	-0.0037
730.1605	0.0085
730.3388	0.0176
730.5171	0.0223
730.6954	-0.0269
730.8737	0.0116
731.0519	0.0026
731.2302	0.0319
731.4084	-0.0066
731.5866	-0.0091
731.7648	-0.0071
731.9429	0.0145
732.1211	-0.0082
732.2992	-0.0017
732.4773	0.015
732.6554	-0.0078
732.8335	0.0233
733.0115	-0.0005
733.1896	0.0078
733.3676	0.0158
733.5456	0.0018
733.7235	0.0088
733.9015	-0.0067
734.0794	-0.0129
734.2574	-0.0178
734.4353	0.0162
734.6131	-0.0044
734.791	0.0085
734.9689	0.0145
735.1467	-0.0197
735.3245	-0.0085
735.5023	0.0126
735.68	0.0058
735.8578	0.0057
736.0355	-0.0146
736.2132	0.0016
736.3909	0.0062
736.5686	-0.0181
736.7463	-0.0143
736.9239	0.0107
737.1015	0.024
737.2791	0.0169
737.4567	0.0296
737.6343	-0.0119
737.8118	0.0096
737.9894	0.0309
738.1669	-0.0006
738.3444	0.0343
738.5218	-0.0072
738.6993	-0.0089
738.8767	-0.019
739.0541	-0.0071
739.2315	0.0113
739.4089	0.0113
739.5863	-0.0112
739.7636	0.0102
739.9409	-0.0079
740.1182	0.0121
740.2955	-0.0046
740.4728	-0.0086
740.65	0.0028
740.8272	0.0207
741.0044	-0.0036
741.1816	0.0192
741.3588	-0.0169
741.5359	0.021
741.7131	-0.0143
741.8902	0.0182
742.0673	0.0033
742.2444	0.0564
742.4214	0.0077
742.5985	-0.0135
742.7755	-0.003
742.9525	-0.0188
743.1295	-0.024
743.3064	0.0189
743.4834	0.0106
743.6603	0.0564
743.8372	-0.0609
744.0141	0.0189
744.191	0.0071
744.3678	-0.0219
744.5446	0.0069
744.7215	0.0067
744.8982	0.0261
745.075	0.0362
745.2518	0.0171
745.4285	0.0329
745.6052	-0.0187
745.7819	0.0468
745.9586	0.0161
746.1353	-0.0223
746.3119	0.01
746.4885	0.0056
746.6651	0.0327
746.8417	0.0155
747.0183	0.0515
747.1948	-0.0089
747.3714	0.0178
747.5479	0.0144
747.7244	-0.022
747.9008	-0.0011
748.0773	0.0274
748.2537	0.0112
748.4301	0.0108
748.6065	-0.0009
748.7829	-0.0333
748.9593	0.0144
749.1356	0.014
749.3119	0.0061
749.4882	0.0153
749.6645	-0.0012
749.8408	0.0243
750.017	0.0181
750.1933	-0.0211
750.3695	0.0073
750.5457	0.0068
750.7218	-0.0028
750.898	-0.0129
751.0741	-0.0063
751.2502	0.029
751.4263	0.0064
751.6024	-0.0124
751.7784	0.0103
751.9545	-0.0007
752.1305	0.0046
752.3065	-0.0077
752.4825	-0.0126
752.6584	-0.0004
752.8344	-0.0033
753.0103	-0.0299
753.1862	0.0129
753.3621	0.0099
753.5379	-0.004
753.7138	0.0007
753.8896	0.0235
754.0654	0.003
754.2412	0.0379
754.417	0.0185
754.5927	0.0142
754.7685	-0.0003
754.9442	-0.0036
755.1199	0.0136
755.2956	-0.0062
755.4712	-0.0038
755.6469	-0.0028
755.8225	0.0176
755.9981	0.0065
756.1736	0.0087
756.3492	0.0015
756.5248	0.0269
756.7003	-0.0093
756.8758	0.003
757.0513	0.0075
757.2267	0.0072
757.4022	-0.0012
757.5776	0.0093
757.753	0.0137
757.9284	0.0098
758.1038	0.0127
758.2791	0.0092
758.4545	-0.0144
758.6298	0.0065
758.8051	0.0005
758.9803	-0.0101
759.1556	0.0014
759.3308	0.0136
759.506	0.0018
759.6812	0.0186
759.8564	-0.014
760.0316	-0.003
760.2067	0.0213
760.3819	-0.0016
760.557	-0.0054
760.732	-0.0176
760.9071	0.0261
761.0821	-0.0089
761.2572	0.0124
761.4322	0.0191
761.6072	-0.0007
761.7821	-0.0287
761.9571	0.0157
762.132	0.0046
762.3069	0.0208
762.4818	0.0295
762.6567	-0.0126
762.8316	0.0177
763.0064	0.0226
763.1812	0.0125
763.356	-0.0087
763.5308	0.0052
763.7055	0.0016
763.8803	-0.008
764.055	-0.0058
764.2297	-0.0056
764.4044	-0.0107
764.579	-0.0036
764.7537	0.0095
764.9283	0.0038
765.1029	0.0082
765.2775	0.0034
765.4521	0.0149
765.6266	-0.0006
765.8011	0.0173
765.9756	0.008
766.1501	0.0133
766.3246	0.0083
766.4991	0.0273
766.6735	0.0479
766.8479	-0.0016
767.0223	0.0133
767.1967	0.0086
767.371	0.0249
767.5454	0.0047
767.7197	0.0309
767.894	-0.0119
768.0683	0.024
768.2425	0.0223
768.4168	0.001
768.591	-0.0231
768.7652	0.0173
768.9394	-0.0065
769.1135	0.0075
769.2877	0.0171
769.4618	0.0074
769.6359	-0.0078
769.81	-0.0057
769.984	0.0042
770.1581	-0.0089
770.3321	0.0094
770.5061	0
770.6801	0.003
770.8541	0.0087
771.028	0.0443
771.202	0.0261
771.3759	0.007
771.5498	0.0149
771.7236	0.0014
771.8975	-0.0022
772.0713	0.0235
772.2451	-0.0082
772.4189	0.0204
772.5927	-0.0235
772.7665	-0.0132
772.9402	0.0133
773.1139	-0.0313
773.2876	-0.0076
773.4613	0.0316
773.635	0.0408
773.8086	0.004
773.9822	0.0203
774.1558	0.0571
774.3294	0.0007
774.503	0.0569
774.6765	0.0296
774.8501	-0.0378
775.0236	0.0224
775.1971	-0.023
775.3705	-0.0204
775.544	0.0087
775.7174	0.0092
775.8908	-0.0008
776.0642	0.0451
776.2376	0.0223
776.4109	-0.0093
776.5843	0.0198
776.7576	0.0226
776.9309	0.0154
777.1041	-0.0381
777.2774	-0.0186
777.4506	-0.0337
777.6238	-0.0456
777.797	0.0269
777.9702	0.0127
778.1434	0.0113
778.3165	-0.0274
778.4896	-0.0463
778.6627	0.0199
778.8358	-0.0397
779.0089	-0.0482
779.1819	0.0295
779.3549	0.0413
779.5279	-0.0301
779.7009	0.0627
779.8739	0.0284
780.0468	-0.0104
780.2197	0.0233
780.3926	-0.0339
780.5655	-0.0068
780.7384	0.0068
780.9112	0.0177
781.0841	0.0214
781.2569	0.0142
781.4297	0.0205
781.6024	0.0102
781.7752	0.0374
781.9479	0.0643
782.1206	0.0156
782.2933	-0.0133
782.466	0.0303
782.6386	-0.0124
782.8113	-0.008
782.9839	0.0012
783.1565	0.0157
783.329	0.0244
783.5016	0.0181
783.6741	0.0093
783.8466	0.021
784.0191	-0.0174
784.1916	-0.0456
784.3641	-0.093
784.5365	0.0243
784.7089	-0.0266
784.8813	0.0498
785.0537	0.0478
785.2261	-0.0209
785.3984	0.0234
785.5707	-0.0152
785.743	0.0484
785.9153	-0.0109
786.0876	-0.009
786.2598	-0.033
786.432	0.0083
786.6042	0.0775
786.7764	-0.0007
786.9486	-0.0202
787.1207	0.0476
787.2928	0.022
787.4649	-0.0257
787.637	0.0144
787.8091	-0.0166
787.9811	0.0169
788.1532	0.0023
788.3252	0.0089
788.4972	0.0056
788.6691	-0.0092
788.8411	0.0007
789.013	0.0353
789.1849	0.013
789.3568	0.0137
789.5287	0.0371
789.7005	-0.0166
789.8723	-0.0634
790.0442	-0.0443
790.2159	-0.0081
790.3877	0.0352
790.5595	0.0518
790.7312	-0.0298
790.9029	-0.0268
791.0746	0.0282
791.2463	-0.0636
791.4179	0.0119
791.5896	-0.0447
791.7612	-0.0317
791.9328	-0.0471
792.1044	0.0332
792.2759	-0.0769
792.4474	-0.0091
792.619	-0.0472
792.7905	0.0235
792.9619	0.0552
793.1334	0.0503
793.3048	0.0553
793.4762	0.0034
793.6476	-0.0015
793.819	-0.0163
793.9904	-0.0012
794.1617	-0.0152
794.333	-0.0181
794.5043	0.0111
794.6756	0.01
794.8469	-0.0078
795.0181	0.0233
795.1893	-0.0086
795.3605	0.0278
795.5317	-0.0062
795.7029	-0.0058
795.874	0.0432
796.0452	-0.0009
796.2163	0.0555
796.3873	0.0896
796.5584	0.109
796.7294	0.0153
796.9005	0.0305
797.0715	0.0097
797.2425	0.0455
797.4134	0.0106
797.5844	0.0598
797.7553	-0.0804
797.9262	0.0415
798.0971	0.0449
798.2679	0.0062
798.4388	0.063
798.6096	0.0239
798.7804	0.0087
798.9512	0.064
799.122	-0.0308
799.2927	0.0762
799.4635	-0.0772
799.6342	-0.012
799.8049	0.0541
799.9755	-0.0561
800.1462	-0.0159
800.3168	0.0606
800.4874	-0.0238
800.658	-0.0211
800.8286	0.0424
800.9991	-0.0183
801.1696	-0.0467
801.3402	0.0673
801.5106	0.0262
801.6811	-0.0156
801.8516	0.051
802.022	0.0254
802.1924	-0.0415
802.3628	0.0413
802.5332	0.1148
802.7035	0.0212
802.8739	0.0583
803.0442	-0.0672
803.2145	0.0134
803.3847	0.0724
803.555	0.0093
803.7252	-0.0437
803.8954	0.0135
804.0656	-0.0511
804.2358	-0.0229
804.4059	0.0598
804.5761	0.0418
804.7462	-0.0426
804.9163	0.0161
805.0864	-0.0317
805.2564	0.0078
805.4264	0.0398
805.5965	0.0993
805.7665	0.0204
805.9364	-0.0091
806.1064	-0.0249
806.2763	0.0303
806.4462	0.0229
806.6161	0.0561
806.786	0.0237
806.9559	-0.0067
807.1257	-0.007
807.2955	0.028
807.4653	0.0426
807.6351	0.0371
807.8048	-0.004
807.9746	0.0571
808.1443	0.0055
808.314	-0.0011
808.4837	0.0659
808.6533	-0.033
808.8229	0.0258
808.9926	0.037
809.1622	0.018
809.3317	-0.033
809.5013	-0.016
809.6708	0.0475
809.8403	0.0462
810.0098	-0.0564
810.1793	0.0129
810.3488	-0.0037
810.5182	0.0769
810.6876	-0.0094
810.857	-0.0276
811.0264	-0.0716
811.1958	0.0865
811.3651	-0.0772
811.5344	0.0592
811.7037	0.0366
811.873	0.0669
812.0422	-0.0056
812.2115	0.0096
812.3807	-0.0878
812.5499	0.0766
812.7191	0.0216
812.8882	-0.0976
813.0574	0.0384
813.2265	-0.0132
813.3956	0.044
813.5646	0.0715
813.7337	-0.0259
813.9027	-0.0802
814.0718	0.013
814.2407	0.0734
814.4097	0.0361
814.5787	0.1215
814.7476	-0.0532
814.9165	-0.032
815.0854	0.0903
815.2543	0.124
815.4232	0.1127
815.592	0.0342
815.7608	-0.1221
815.9296	0.0632
816.0984	0.1074
816.2671	-0.2264
816.4359	0.2154
816.6046	-0.0902
816.7733	0.0037
816.942	-0.0502
817.1106	0.0945
817.2793	-0.0665
817.4479	0.0097
817.6165	0.002
817.785	-0.0043
817.9536	-0.05
818.1221	-0.02
818.2906	-0.1366
818.4591	-0.0108
818.6276	0.108
818.7961	-0.1064
818.9645	0.0079
819.1329	0.3035
819.3013	0.0544
819.4697	-0.2709
819.638	-0.0384
819.8064	0.0951
819.9747	0.0562
820.143	-0.111
820.3113	0.068
820.4795	0.071
820.6477	0.1436
820.816	0.0047
820.9842	0.1679
821.1523	0.1413
821.3205	-0.0311
821.4886	-0.0768
821.6567	-0.0433
821.8248	0.0761
821.9929	-0.1463
822.1609	-0.0503
822.329	-0.0143
822.497	0.0361
822.665	-0.0125
822.833	0.0117
823.0009	0.103
823.1688	0.1389
823.3367	-0.0847
823.5046	0.1043
823.6725	0.0379
823.8404	-0.032
824.0082	0.0074
824.176	0.0004
824.3438	0.1181
824.5116	-0.1634
824.6793	0.1184
824.847	0.0838
825.0147	0.1725
825.1824	-0.06
825.3501	-0.0334
825.5177	0.1155
825.6854	-0.1399
825.853	0.0805
826.0206	0.1343
826.1881	0.0151
826.3557	0.0451
826.5232	0.0854
826.6907	-0.0693
826.8582	-0.1905
827.0257	0.0344
827.1931	0.072
827.3605	-0.1105
827.528	-0.0928
827.6953	-0.1226
827.8627	-0.1661
828.03	0.0827
828.1974	0.0731
828.3647	-0.0459
828.532	0.0003
828.6992	0.0117
828.8665	-0.1672
829.0337	-0.0754
829.2009	-0.1803
829.3681	-0.0701
829.5352	-0.3501
829.7024	0.0512
829.8695	0.0197
830.0366	0.0809
830.2037	0.2106
830.3707	0.0003
830.5378	-0.1928
830.7048	0.155
830.8718	0.193
831.0388	-0.0254
831.2057	-0.1467
831.3727	-0.3178
831.5396	0.0203
831.7065	-1.0094
831.8734	0.0263
832.0402	0.1023
832.2071	-0.4612
832.3739	-0.2913
832.5407	-1.7843
832.7075	-0.4293
832.8742	0.447
833.041	0.2355
833.2077	0.3685
833.3744	-0.0077
833.541	0.0145
833.7077	-0.1597
833.8743	-0.0121
834.0409	0.047
834.2075	0.2468
834.3741	-0.4023
834.5407	0.3905
834.7072	0.2469
834.8737	0.0559
835.0402	0.0768
835.2067	-0.0997
835.3731	-0.1449
835.5395	-0.068
835.706	-0.0991
835.8723	0.1722
836.0387	0.1845
836.2051	0.0172
836.3714	-0.026
836.5377	0.2977
836.704	-0.059
836.8703	0.1023
837.0365	-0.217
837.2027	0.0169
837.3689	0.7149
837.5351	0.2714
837.7013	-0.2386
837.8674	-0.1695
838.0335	-0.097
838.1997	-0.1614
838.3657	-0
838.5318	-0.5859
838.6978	-0.182
838.8639	-0.3593
839.0299	-0.0129
839.1958	-0.0979
839.3618	0.3516
839.5277	0.1879
839.6937	0.0939
839.8596	-0.0683
840.0254	-0.3189
840.1913	-0.1596
840.3571	0.0891
840.523	-0
840.6888	-0.1358
840.8545	-0
841.0203	0.1157
841.186	0.1394
841.3517	-0.2979
841.5174	0.0749
841.6831	-0.0931
841.8488	-0.0239
842.0144	0.0008
842.18	-0.0567
842.3456	-0.5769
842.5112	-1.2553
842.6767	0.046
842.8422	-0.0374
843.0077	-0.0129
843.1732	0.0463
843.3387	0.0582
843.5042	0.0285
843.6696	-0.3534
843.835	-0.2639
844.0004	-0.394
844.1657	-0.9308
844.3311	0.1715
844.4964	0.0042
844.6617	-0.0606
844.827	-0
844.9923	0.3556
845.1575	-0.3163
845.3227	-0.4255
845.4879	-0.5097
845.6531	0.0291
845.8183	-0.1454
845.9834	-0
846.1485	0.2836
846.3136	0.3078
846.4787	-0
846.6438	-0.1545
846.8088	-0
846.9738	-0.4357
847.1388	0.0825
847.3038	0.151
847.4687	-0
847.6337	-0.5377
847.7986	-0
847.9635	-0.1588
848.1284	0.9765
848.2932	-0.0779
848.458	-0
848.6228	0.2111
848.7876	0.5348
848.9524	-0.3063
849.1172	-1.9938
849.2819	0.1171
849.4466	0.5876
849.6113	0.2742
849.7759	-0
849.9406	-0.089
850.1052	-1.3859
850.2698	-0
850.4344	-0.2815
850.599	-0.1863
850.7635	0.5737
850.928	-0.1986
851.0925	0.5505
851.257	-0
851.4215	-0.0768
851.5859	0.1999
851.7503	-0
851.9147	0.2888
852.0791	-0.0243
852.2434	0.1116
852.4078	-0
852.5721	-0.0258
852.7364	-0.2039
852.9007	-0.171
853.0649	-0
853.2291	-0.0175
853.3934	-0
853.5575	-0.1614
853.7217	0.5187
853.8859	-0.2654
854.05	-0.2927
854.2141	0.0006
854.3782	0.311
854.5423	-0.5906
854.7063	0.4507
854.8703	-0.2947
855.0343	-0.1442
855.1983	0.2101
855.3623	0.2732
855.5262	-0
855.6901	0.9798
855.854	0.0248
856.0179	-0.2451
856.1818	0.4317
856.3456	0.0932
856.5094	-0.6738
856.6732	-0.2088
856.837	-0.9944
857.0008	-0.5212
857.1645	-0.0792
857.3282	-0.3204
857.4919	0.0417
857.6556	-0.0449
857.8192	0.191
857.9828	-0.2858
858.1465	-0
858.31	-0
858.4736	-0.3888
858.6372	-0
858.8007	-0.3093
858.9642	0.3282
859.1277	0.4767
859.2911	-0.3814
859.4546	-1.0334
859.618	0.1324
859.7814	0.7441
859.9448	0.2903
860.1081	-0
860.2715	-0
860.4348	0.0713
860.5981	-0
860.7614	0.3235
860.9246	0.0713
861.0879	0.1471
861.2511	-0
861.4143	-0
861.5774	-0.1344
861.7406	0.7901
861.9037	-0.244
862.0668	-0
862.2299	0.7158
862.393	-0
862.556	0.1344
862.7191	-0.1784
862.8821	0.4639
863.0451	-0.0431
863.208	-0.0305
863.371	0.1207
863.5339	0.3707
863.6968	-0.0097
863.8597	-0
864.0225	-0.0189
864.1854	-0
864.3482	-1.1256
864.511	0.4447
864.6737	-0
864.8365	-0.0935
864.9992	-0
865.1619	0.132
865.3246	-1.8921
865.4873	-0.3632
865.65	-0.177
865.8126	0.1419
865.9752	-0.2768
866.1378	1.0676
866.3004	-0.2206
866.4629	-1.9198
866.6254	-0.4985
866.7879	-0
866.9504	0.2048
867.1129	-0.1033
867.2753	-0.2688
867.4377	0.0013
867.6001	-0.4814
867.7625	0.0235
867.9249	-0
868.0872	0.3258
868.2495	0.2651
868.4118	-0.2101
868.5741	0.1933
868.7363	-0
868.8986	-0.1718
869.0608	0.2843
869.223	-0
869.3851	-0
869.5473	-0.0631
869.7094	0.2477
869.8715	-0.6888
870.0336	0.1412
870.1957	-0
870.3577	1.5689
870.5197	0.0486
870.6817	-0.9099
870.8437	-0.3839
871.0057	0.5652
871.1676	0.3733
871.3295	0.1553
871.4914	-0.7782
871.6533	0.1499
871.8151	0.5173
871.977	-0.4254
872.1388	-0.0406
872.3006	-0.5769
872.4623	-0.849
872.6241	1.4214
872.7858	0.0462
872.9475	-0
873.1092	0.3072
873.2709	0.3575
873.4325	-1.8921
873.5941	-0
873.7557	-0
873.9173	0.0645
874.0789	0.082
874.2404	-0
874.4019	0.0084
874.5634	-0
874.7249	0.4933
874.8863	-0.3665
875.0478	-0.2234
875.2092	0.9406
875.3706	-0
875.5319	0.0021
875.6933	-0.0264
875.8546	-0.2072
876.0159	0.2684
876.1772	-0.3509
876.3385	0.5735
876.4997	-0
876.6609	0.1551
876.8221	-0
876.9833	-0.2117
877.1445	0.5739
877.3056	-1.2263
877.4667	-0
877.6278	-0
877.7889	1.2116
877.9499	0.3227
878.111	-0.6718
878.272	-0
878.433	-0.322
878.5939	-0.1472
878.7549	0.195
878.9158	-0.451
879.0767	-0
879.2376	0.3594
879.3984	0.2695
879.5593	0.569
879.7201	-1.2553
879.8809	-0.0704
880.0417	-0.4389
880.2024	0.1932
880.3632	-0.3253
880.5239	-0.3487
880.6846	-0
880.8452	0.2809
881.0059	-0.4629
881.1665	-0.0792
881.3271	0.8988
881.4877	0.3243
881.6483	-0
881.8088	-0.7471
881.9693	-0
882.1298	-0
882.2903	-0
