Data from D4ACN5uM440nmA_Absorbance_13-50-25-388.txt Node
Date: Fri Feb 21 13:50:25 GMT 2025
User: LASERRRRR
Spectrometer: FLMT03099
Trigger mode: 0
Integration Time (sec): 1.500000E-2
Scans to average: 1
Electric dark correction enabled: true
Nonlinearity correction enabled: false
Boxcar width: 0
XAxis mode: Wavelengths
Number of Pixels in Spectrum: 3648
>>>>>Begin Spectral Data<<<<<
179.3399	-0
179.5586	-0
179.7771	-0
179.9957	-0.0428
180.2143	-0
180.4329	0.6421
180.6514	-0
180.8699	-0.1341
181.0885	-0
181.307	0.2627
181.5255	0.715
181.744	0.5058
181.9625	0.8833
182.181	-0
182.3994	-0.5855
182.6179	-0
182.8363	0.2641
183.0547	-0
183.2732	0.1879
183.4916	0.2796
183.71	0.166
183.9284	0.0885
184.1467	0.173
184.3651	0.2529
184.5835	0.2877
184.8018	0.2384
185.0201	0.2601
185.2385	0.2059
185.4568	0.2699
185.6751	0.2494
185.8934	0.3273
186.1117	-0.0233
186.3299	0.173
186.5482	0.2805
186.7664	0.1136
186.9847	-0.0531
187.2029	0.1148
187.4211	-0.0042
187.6393	0.2796
187.8575	0.1334
188.0757	0.3638
188.2939	0.2825
188.512	0.1644
188.7302	0.2288
188.9483	0.1893
189.1665	0.3607
189.3846	0.3487
189.6027	0.1641
189.8208	0.0289
190.0389	0.327
190.257	0.1421
190.475	0.2899
190.6931	-0.0907
190.9111	0.048
191.1292	0.1493
191.3472	0.1464
191.5652	0.3903
191.7832	0.4954
192.0012	0.1376
192.2192	0.1478
192.4371	0.1384
192.6551	0.2457
192.873	0.1307
193.091	0.1152
193.3089	0.1602
193.5268	0.4163
193.7447	0.2078
193.9626	0.2094
194.1805	0.2797
194.3984	0.2511
194.6162	0.3366
194.8341	0.3445
195.0519	0.2677
195.2697	0.2989
195.4875	0.3342
195.7054	0.263
195.9231	0.2651
196.1409	0.3337
196.3587	0.3501
196.5765	0.3154
196.7942	0.3336
197.012	0.3828
197.2297	0.342
197.4474	0.4207
197.6651	0.3277
197.8828	0.3885
198.1005	0.3692
198.3182	0.4082
198.5358	0.3957
198.7535	0.3577
198.9711	0.4397
199.1888	0.3721
199.4064	0.3808
199.624	0.3427
199.8416	0.3704
200.0592	0.4341
200.2767	0.397
200.4943	0.4427
200.7119	0.4084
200.9294	0.37
201.1469	0.4202
201.3645	0.4046
201.582	0.4018
201.7995	0.4473
202.017	0.4197
202.2344	0.3825
202.4519	0.4009
202.6694	0.4051
202.8868	0.4116
203.1042	0.4097
203.3217	0.3705
203.5391	0.3873
203.7565	0.3488
203.9739	0.3602
204.1913	0.3747
204.4086	0.3707
204.626	0.3709
204.8433	0.371
205.0607	0.3379
205.278	0.3624
205.4953	0.3588
205.7126	0.3503
205.9299	0.3034
206.1472	0.3325
206.3644	0.3264
206.5817	0.3304
206.7989	0.338
207.0162	0.3505
207.2334	0.3598
207.4506	0.3135
207.6678	0.3205
207.885	0.2984
208.1022	0.3069
208.3194	0.2957
208.5365	0.3265
208.7537	0.2957
208.9708	0.2834
209.1879	0.2852
209.405	0.2737
209.6222	0.2628
209.8392	0.2939
210.0563	0.2772
210.2734	0.28
210.4905	0.2814
210.7075	0.2984
210.9245	0.2646
211.1416	0.2655
211.3586	0.2723
211.5756	0.2431
211.7926	0.2648
212.0096	0.2724
212.2265	0.2555
212.4435	0.2632
212.6604	0.2458
212.8774	0.2265
213.0943	0.2569
213.3112	0.2404
213.5281	0.2431
213.745	0.2445
213.9619	0.2618
214.1788	0.2919
214.3956	0.2448
214.6125	0.2352
214.8293	0.27
215.0461	0.2441
215.2629	0.2597
215.4798	0.2462
215.6965	0.2455
215.9133	0.2394
216.1301	0.2397
216.3469	0.2587
216.5636	0.2457
216.7803	0.2423
216.9971	0.2578
217.2138	0.2668
217.4305	0.2465
217.6472	0.2473
217.8639	0.2518
218.0805	0.2324
218.2972	0.2492
218.5138	0.2702
218.7305	0.2497
218.9471	0.2541
219.1637	0.27
219.3803	0.2556
219.5969	0.2456
219.8135	0.2643
220.0301	0.259
220.2466	0.2602
220.4632	0.2479
220.6797	0.2569
220.8962	0.273
221.1127	0.2639
221.3292	0.2624
221.5457	0.2722
221.7622	0.2573
221.9787	0.2892
222.1951	0.2814
222.4116	0.2742
222.628	0.2798
222.8444	0.2893
223.0608	0.2763
223.2772	0.2801
223.4936	0.279
223.71	0.2892
223.9264	0.2884
224.1427	0.2964
224.3591	0.2833
224.5754	0.2954
224.7917	0.2925
225.008	0.2977
225.2243	0.3065
225.4406	0.2947
225.6569	0.3062
225.8732	0.3102
226.0894	0.3043
226.3057	0.3037
226.5219	0.3135
226.7381	0.3148
226.9543	0.3209
227.1705	0.3226
227.3867	0.3184
227.6029	0.323
227.8191	0.3336
228.0352	0.345
228.2513	0.3419
228.4675	0.3443
228.6836	0.3488
228.8997	0.3518
229.1158	0.3489
229.3319	0.3588
229.548	0.3461
229.764	0.3537
229.9801	0.3701
230.1961	0.3711
230.4121	0.3609
230.6282	0.3766
230.8442	0.3789
231.0602	0.3703
231.2761	0.3821
231.4921	0.3862
231.7081	0.4029
231.924	0.4078
232.14	0.4024
232.3559	0.4094
232.5718	0.4121
232.7877	0.4137
233.0036	0.3994
233.2195	0.4106
233.4353	0.4151
233.6512	0.4154
233.867	0.4176
234.0829	0.4375
234.2987	0.4255
234.5145	0.4393
234.7303	0.4308
234.9461	0.4401
235.1619	0.4315
235.3776	0.43
235.5934	0.4326
235.8091	0.4408
236.0249	0.4418
236.2406	0.4405
236.4563	0.4524
236.672	0.4411
236.8877	0.4543
237.1034	0.4495
237.319	0.4495
237.5347	0.4488
237.7503	0.4501
237.966	0.4627
238.1816	0.4481
238.3972	0.4511
238.6128	0.4588
238.8284	0.4558
239.0439	0.4675
239.2595	0.4722
239.475	0.4567
239.6906	0.4615
239.9061	0.4597
240.1216	0.4652
240.3371	0.4581
240.5526	0.462
240.7681	0.4599
240.9836	0.454
241.199	0.4571
241.4145	0.4442
241.6299	0.4506
241.8453	0.4349
242.0607	0.4342
242.2761	0.434
242.4915	0.4296
242.7069	0.4215
242.9223	0.4252
243.1376	0.4114
243.353	0.3993
243.5683	0.3946
243.7836	0.3977
243.9989	0.3748
244.2142	0.3758
244.4295	0.3739
244.6448	0.3634
244.86	0.3569
245.0753	0.3461
245.2905	0.3437
245.5057	0.3441
245.721	0.3423
245.9362	0.3347
246.1514	0.3178
246.3665	0.3118
246.5817	0.3024
246.7969	0.2967
247.012	0.2941
247.2271	0.2935
247.4423	0.2878
247.6574	0.2838
247.8725	0.2703
248.0876	0.2698
248.3026	0.2654
248.5177	0.2548
248.7328	0.2566
248.9478	0.247
249.1628	0.2481
249.3779	0.2343
249.5929	0.2466
249.8079	0.2402
250.0228	0.2347
250.2378	0.2306
250.4528	0.2307
250.6677	0.221
250.8827	0.2169
251.0976	0.2171
251.3125	0.2209
251.5274	0.2091
251.7423	0.2066
251.9572	0.2058
252.172	0.2084
252.3869	0.2022
252.6017	0.2019
252.8166	0.202
253.0314	0.1981
253.2462	0.1984
253.461	0.1977
253.6758	0.1939
253.8906	0.1936
254.1053	0.196
254.3201	0.1931
254.5348	0.1851
254.7496	0.1883
254.9643	0.1943
255.179	0.1851
255.3937	0.1867
255.6083	0.1914
255.823	0.1886
256.0377	0.1784
256.2523	0.1851
256.467	0.1862
256.6816	0.1822
256.8962	0.181
257.1108	0.1854
257.3254	0.1807
257.54	0.1826
257.7545	0.183
257.9691	0.1835
258.1836	0.176
258.3981	0.1803
258.6127	0.17
258.8272	0.1849
259.0417	0.1792
259.2561	0.18
259.4706	0.1739
259.6851	0.1798
259.8995	0.1748
260.114	0.177
260.3284	0.1711
260.5428	0.1776
260.7572	0.1747
260.9716	0.1768
261.186	0.1739
261.4003	0.1748
261.6147	0.1793
261.829	0.1753
262.0433	0.1775
262.2577	0.1731
262.472	0.1745
262.6863	0.1803
262.9005	0.1718
263.1148	0.1799
263.3291	0.1736
263.5433	0.1866
263.7576	0.1752
263.9718	0.1773
264.186	0.1738
264.4002	0.1808
264.6144	0.1857
264.8286	0.1771
265.0427	0.1799
265.2569	0.1822
265.471	0.1853
265.6851	0.1868
265.8993	0.1824
266.1134	0.1877
266.3275	0.1806
266.5415	0.1882
266.7556	0.1835
266.9697	0.1831
267.1837	0.184
267.3978	0.1789
267.6118	0.1806
267.8258	0.186
268.0398	0.1839
268.2538	0.1845
268.4677	0.183
268.6817	0.1789
268.8957	0.1724
269.1096	0.1683
269.3235	0.1822
269.5374	0.1773
269.7514	0.1785
269.9652	0.1761
270.1791	0.1731
270.393	0.177
270.6068	0.1799
270.8207	0.1707
271.0345	0.1755
271.2483	0.1722
271.4622	0.1757
271.676	0.1726
271.8897	0.1708
272.1035	0.1783
272.3173	0.1778
272.531	0.1686
272.7448	0.1751
272.9585	0.1699
273.1722	0.1704
273.3859	0.1749
273.5996	0.1803
273.8133	0.1779
274.0269	0.1709
274.2406	0.1781
274.4542	0.1783
274.6679	0.1755
274.8815	0.1843
275.0951	0.1848
275.3087	0.1831
275.5223	0.1727
275.7358	0.1795
275.9494	0.1814
276.1629	0.1817
276.3765	0.1763
276.59	0.1756
276.8035	0.1785
277.017	0.1858
277.2305	0.187
277.444	0.183
277.6574	0.1849
277.8709	0.1882
278.0843	0.183
278.2978	0.1863
278.5112	0.1826
278.7246	0.1799
278.938	0.1846
279.1513	0.1844
279.3647	0.1823
279.5781	0.181
279.7914	0.1808
280.0047	0.1837
280.2181	0.1839
280.4314	0.1829
280.6447	0.1903
280.8579	0.1792
281.0712	0.1799
281.2845	0.1845
281.4977	0.1838
281.711	0.1792
281.9242	0.1807
282.1374	0.1841
282.3506	0.1827
282.5638	0.1811
282.7769	0.1793
282.9901	0.1846
283.2033	0.1881
283.4164	0.1805
283.6295	0.1804
283.8426	0.1834
284.0557	0.1826
284.2688	0.1803
284.4819	0.1819
284.695	0.1904
284.908	0.1852
285.1211	0.1914
285.3341	0.1793
285.5471	0.1907
285.7601	0.1868
285.9731	0.1819
286.1861	0.1903
286.3991	0.1891
286.612	0.1872
286.825	0.1908
287.0379	0.1852
287.2508	0.1882
287.4637	0.1897
287.6766	0.1845
287.8895	0.1882
288.1024	0.1917
288.3152	0.1894
288.5281	0.1767
288.7409	0.1902
288.9538	0.1889
289.1666	0.1871
289.3794	0.1853
289.5922	0.1842
289.8049	0.1933
290.0177	0.1838
290.2304	0.1919
290.4432	0.1906
290.6559	0.192
290.8686	0.1922
291.0813	0.1928
291.294	0.1958
291.5067	0.1836
291.7194	0.1917
291.932	0.1885
292.1447	0.19
292.3573	0.1941
292.5699	0.1943
292.7825	0.1868
292.9951	0.1906
293.2077	0.1907
293.4203	0.1991
293.6328	0.1887
293.8454	0.1902
294.0579	0.1898
294.2704	0.1996
294.4829	0.1866
294.6954	0.1918
294.9079	0.1867
295.1204	0.1893
295.3328	0.1958
295.5453	0.1917
295.7577	0.1936
295.9701	0.1897
296.1825	0.1917
296.3949	0.1846
296.6073	0.1892
296.8197	0.1961
297.0321	0.1938
297.2444	0.1875
297.4567	0.1885
297.6691	0.1911
297.8814	0.1879
298.0937	0.1892
298.306	0.1874
298.5182	0.1942
298.7305	0.1901
298.9428	0.1894
299.155	0.1878
299.3672	0.1858
299.5794	0.1866
299.7916	0.1887
300.0038	0.1904
300.216	0.1888
300.4282	0.1905
300.6403	0.1953
300.8525	0.1908
301.0646	0.1931
301.2767	0.1884
301.4888	0.1889
301.7009	0.1941
301.913	0.1894
302.125	0.1928
302.3371	0.192
302.5491	0.1887
302.7612	0.1926
302.9732	0.192
303.1852	0.1908
303.3972	0.193
303.6092	0.1961
303.8211	0.1853
304.0331	0.1891
304.245	0.1882
304.457	0.1871
304.6689	0.1883
304.8808	0.1845
305.0927	0.1863
305.3046	0.1805
305.5164	0.1818
305.7283	0.1831
305.9401	0.1738
306.152	0.1803
306.3638	0.1832
306.5756	0.1799
306.7874	0.1736
306.9992	0.1723
307.2109	0.1727
307.4227	0.1654
307.6344	0.1746
307.8462	0.165
308.0579	0.1711
308.2696	0.1645
308.4813	0.165
308.693	0.1631
308.9046	0.1634
309.1163	0.1655
309.328	0.162
309.5396	0.1606
309.7512	0.1538
309.9628	0.154
310.1744	0.1496
310.386	0.1518
310.5976	0.1488
310.8091	0.1525
311.0207	0.1506
311.2322	0.1456
311.4437	0.1435
311.6552	0.1415
311.8667	0.1456
312.0782	0.1407
312.2897	0.1442
312.5012	0.1441
312.7126	0.1358
312.924	0.1421
313.1355	0.1393
313.3469	0.1359
313.5583	0.1381
313.7696	0.1337
313.981	0.1384
314.1924	0.1308
314.4037	0.1344
314.6151	0.1304
314.8264	0.1376
315.0377	0.1314
315.249	0.13
315.4603	0.1267
315.6716	0.1313
315.8828	0.127
316.0941	0.1263
316.3053	0.1254
316.5165	0.127
316.7277	0.1235
316.9389	0.1306
317.1501	0.1286
317.3613	0.13
317.5724	0.1254
317.7836	0.1244
317.9947	0.1278
318.2058	0.1303
318.417	0.122
318.6281	0.1207
318.8391	0.1278
319.0502	0.1255
319.2613	0.1235
319.4723	0.1228
319.6834	0.1307
319.8944	0.1263
320.1054	0.1286
320.3164	0.1206
320.5274	0.122
320.7383	0.1252
320.9493	0.1283
321.1602	0.1283
321.3712	0.1253
321.5821	0.122
321.793	0.1281
322.0039	0.1238
322.2148	0.127
322.4257	0.124
322.6365	0.1281
322.8474	0.1279
323.0582	0.128
323.269	0.1245
323.4798	0.127
323.6906	0.1203
323.9014	0.1187
324.1122	0.1187
324.3229	0.1297
324.5337	0.1321
324.7444	0.1287
324.9551	0.1232
325.1658	0.1254
325.3765	0.1341
325.5872	0.1334
325.7979	0.1246
326.0085	0.1238
326.2192	0.1244
326.4298	0.1353
326.6404	0.1331
326.851	0.128
327.0616	0.135
327.2722	0.1291
327.4828	0.1263
327.6933	0.1348
327.9039	0.128
328.1144	0.1374
328.3249	0.1337
328.5354	0.1291
328.7459	0.1259
328.9564	0.1362
329.1669	0.1369
329.3773	0.1308
329.5878	0.1294
329.7982	0.1359
330.0086	0.1373
330.219	0.1322
330.4294	0.1352
330.6398	0.1345
330.8502	0.1455
331.0605	0.133
331.2708	0.1356
331.4812	0.1334
331.6915	0.1404
331.9018	0.135
332.1121	0.1406
332.3224	0.14
332.5326	0.1296
332.7429	0.1321
332.9531	0.1398
333.1633	0.1302
333.3735	0.1359
333.5837	0.1374
333.7939	0.138
334.0041	0.1434
334.2143	0.135
334.4244	0.1442
334.6346	0.137
334.8447	0.1305
335.0548	0.1399
335.2649	0.1387
335.475	0.1402
335.685	0.1422
335.8951	0.1367
336.1051	0.1428
336.3152	0.1423
336.5252	0.1379
336.7352	0.1395
336.9452	0.1356
337.1552	0.1348
337.3652	0.1408
337.5751	0.1388
337.7851	0.1401
337.995	0.1438
338.2049	0.143
338.4148	0.1417
338.6247	0.1433
338.8346	0.1385
339.0445	0.1446
339.2543	0.1391
339.4642	0.1384
339.674	0.1425
339.8838	0.1428
340.0936	0.1457
340.3034	0.1391
340.5132	0.1359
340.7229	0.1514
340.9327	0.1489
341.1424	0.1479
341.3522	0.1378
341.5619	0.1486
341.7716	0.146
341.9813	0.1569
342.1909	0.1512
342.4006	0.1514
342.6102	0.1465
342.8199	0.1478
343.0295	0.1494
343.2391	0.1519
343.4487	0.1562
343.6583	0.1575
343.8679	0.1509
344.0774	0.1483
344.287	0.1592
344.4965	0.158
344.706	0.1591
344.9155	0.1499
345.125	0.1548
345.3345	0.1642
345.544	0.1619
345.7534	0.1623
345.9629	0.1598
346.1723	0.1589
346.3817	0.1559
346.5911	0.1601
346.8005	0.1725
347.0099	0.1617
347.2193	0.1692
347.4286	0.168
347.638	0.1646
347.8473	0.1728
348.0566	0.1697
348.2659	0.1671
348.4752	0.1668
348.6845	0.1751
348.8937	0.1745
349.103	0.1743
349.3122	0.1683
349.5214	0.1737
349.7306	0.1793
349.9398	0.1727
350.149	0.1686
350.3582	0.1811
350.5674	0.1703
350.7765	0.1799
350.9856	0.1683
351.1948	0.1748
351.4039	0.1794
351.613	0.1751
351.822	0.1809
352.0311	0.1727
352.2402	0.1771
352.4492	0.1774
352.6582	0.1773
352.8672	0.1811
353.0762	0.1846
353.2852	0.1824
353.4942	0.1844
353.7032	0.1742
353.9121	0.1782
354.1211	0.1856
354.33	0.1849
354.5389	0.182
354.7478	0.1801
354.9567	0.1867
355.1655	0.1794
355.3744	0.1826
355.5833	0.1879
355.7921	0.195
356.0009	0.1918
356.2097	0.1768
356.4185	0.1856
356.6273	0.1876
356.8361	0.1888
357.0448	0.1899
357.2536	0.1884
357.4623	0.1903
357.671	0.1911
357.8797	0.1944
358.0884	0.1844
358.2971	0.1907
358.5057	0.1872
358.7144	0.1958
358.923	0.1985
359.1316	0.1995
359.3402	0.1958
359.5488	0.1983
359.7574	0.2031
359.966	0.1995
360.1746	0.1985
360.3831	0.2071
360.5916	0.204
360.8002	0.2123
361.0087	0.2042
361.2172	0.2002
361.4256	0.2072
361.6341	0.2099
361.8426	0.2064
362.051	0.21
362.2594	0.2106
362.4678	0.211
362.6762	0.2117
362.8846	0.2091
363.093	0.218
363.3014	0.2168
363.5097	0.2147
363.718	0.2167
363.9264	0.2189
364.1347	0.2207
364.343	0.2181
364.5513	0.2174
364.7595	0.228
364.9678	0.2185
365.176	0.219
365.3842	0.2288
365.5925	0.2284
365.8007	0.2207
366.0089	0.2287
366.217	0.2331
366.4252	0.2291
366.6333	0.231
366.8415	0.2366
367.0496	0.2256
367.2577	0.2306
367.4658	0.2264
367.6739	0.2327
367.882	0.246
368.09	0.2384
368.2981	0.2371
368.5061	0.2407
368.7141	0.2378
368.9221	0.2495
369.1301	0.2398
369.3381	0.2439
369.5461	0.2487
369.754	0.2359
369.962	0.2435
370.1699	0.2492
370.3778	0.2455
370.5857	0.2483
370.7936	0.2416
371.0015	0.2561
371.2093	0.2421
371.4172	0.2414
371.625	0.2559
371.8328	0.2456
372.0406	0.2601
372.2484	0.2471
372.4562	0.2599
372.664	0.2499
372.8717	0.2583
373.0795	0.2686
373.2872	0.2634
373.4949	0.2631
373.7026	0.2516
373.9103	0.2547
374.118	0.2569
374.3256	0.2617
374.5333	0.2626
374.7409	0.2558
374.9485	0.2597
375.1561	0.2714
375.3637	0.2583
375.5713	0.2674
375.7789	0.2666
375.9864	0.2617
376.194	0.2725
376.4015	0.2708
376.609	0.2639
376.8165	0.2689
377.024	0.2687
377.2315	0.2683
377.4389	0.2652
377.6464	0.2758
377.8538	0.2766
378.0612	0.2695
378.2686	0.2696
378.476	0.2849
378.6834	0.2821
378.8908	0.28
379.0981	0.2731
379.3055	0.2813
379.5128	0.2735
379.7201	0.2778
379.9274	0.2819
380.1347	0.2802
380.342	0.2839
380.5492	0.2817
380.7565	0.2821
380.9637	0.2798
381.1709	0.2759
381.3781	0.2865
381.5853	0.29
381.7925	0.2851
381.9997	0.2966
382.2068	0.2802
382.4139	0.2852
382.6211	0.292
382.8282	0.295
383.0353	0.2951
383.2424	0.2981
383.4494	0.2956
383.6565	0.2901
383.8635	0.2906
384.0706	0.2961
384.2776	0.289
384.4846	0.294
384.6916	0.295
384.8986	0.3017
385.1055	0.301
385.3125	0.2994
385.5194	0.2926
385.7263	0.2961
385.9333	0.2997
386.1402	0.2999
386.347	0.2887
386.5539	0.2981
386.7608	0.2985
386.9676	0.2906
387.1744	0.2982
387.3813	0.2896
387.5881	0.2914
387.7948	0.2998
388.0016	0.3054
388.2084	0.292
388.4151	0.2983
388.6219	0.2842
388.8286	0.2938
389.0353	0.3014
389.242	0.2932
389.4487	0.2835
389.6553	0.2807
389.862	0.2911
390.0686	0.2891
390.2753	0.2898
390.4819	0.2914
390.6885	0.2893
390.8951	0.2841
391.1016	0.2866
391.3082	0.2856
391.5147	0.2869
391.7213	0.2814
391.9278	0.2822
392.1343	0.2892
392.3408	0.2801
392.5473	0.2772
392.7537	0.2796
392.9602	0.2714
393.1666	0.2718
393.373	0.2662
393.5794	0.2747
393.7858	0.2748
393.9922	0.2691
394.1986	0.2673
394.4049	0.2696
394.6113	0.2614
394.8176	0.2686
395.0239	0.2571
395.2302	0.2637
395.4365	0.264
395.6428	0.2682
395.8491	0.2591
396.0553	0.2563
396.2615	0.2563
396.4678	0.2625
396.674	0.2591
396.8802	0.2627
397.0863	0.2535
397.2925	0.2609
397.4987	0.2533
397.7048	0.2567
397.9109	0.2477
398.117	0.2481
398.3231	0.2587
398.5292	0.2487
398.7353	0.2541
398.9413	0.2515
399.1474	0.2552
399.3534	0.2483
399.5594	0.2523
399.7654	0.2476
399.9714	0.248
400.1774	0.2564
400.3833	0.2524
400.5893	0.2514
400.7952	0.2534
401.0011	0.2506
401.207	0.2531
401.4129	0.2442
401.6188	0.2543
401.8247	0.2621
402.0305	0.2616
402.2364	0.2502
402.4422	0.2531
402.648	0.2534
402.8538	0.2487
403.0596	0.2467
403.2654	0.2491
403.4711	0.2536
403.6768	0.2514
403.8826	0.2512
404.0883	0.2503
404.294	0.2505
404.4997	0.2503
404.7054	0.2506
404.911	0.2473
405.1167	0.2571
405.3223	0.2509
405.5279	0.2515
405.7335	0.2499
405.9391	0.2397
406.1447	0.2486
406.3502	0.2418
406.5558	0.2575
406.7613	0.2458
406.9668	0.2442
407.1724	0.2554
407.3778	0.2436
407.5833	0.2381
407.7888	0.2483
407.9942	0.2424
408.1997	0.2474
408.4051	0.2445
408.6105	0.2506
408.8159	0.2392
409.0213	0.2552
409.2267	0.2507
409.432	0.2503
409.6374	0.2561
409.8427	0.2462
410.048	0.2549
410.2533	0.2476
410.4586	0.2409
410.6639	0.2493
410.8691	0.2438
411.0744	0.2528
411.2796	0.2481
411.4848	0.2496
411.69	0.2437
411.8952	0.2476
412.1004	0.2527
412.3056	0.2429
412.5107	0.2495
412.7158	0.2545
412.921	0.2386
413.1261	0.2503
413.3312	0.2445
413.5362	0.263
413.7413	0.2466
413.9464	0.2437
414.1514	0.2408
414.3564	0.2335
414.5614	0.2412
414.7664	0.2348
414.9714	0.2501
415.1764	0.2539
415.3813	0.2432
415.5863	0.2403
415.7912	0.2405
415.9961	0.2448
416.201	0.2456
416.4059	0.2427
416.6108	0.2473
416.8156	0.2396
417.0205	0.2403
417.2253	0.2413
417.4301	0.2459
417.6349	0.2376
417.8397	0.2453
418.0445	0.242
418.2492	0.2386
418.454	0.2354
418.6587	0.2447
418.8634	0.2413
419.0681	0.238
419.2728	0.2361
419.4775	0.2421
419.6822	0.2253
419.8868	0.2347
420.0915	0.2296
420.2961	0.2118
420.5007	0.2316
420.7053	0.2337
420.9099	0.2322
421.1144	0.2268
421.319	0.2274
421.5235	0.2218
421.728	0.2415
421.9325	0.2264
422.137	0.229
422.3415	0.2235
422.546	0.2208
422.7504	0.215
422.9549	0.2309
423.1593	0.219
423.3637	0.2332
423.5681	0.2235
423.7725	0.2143
423.9769	0.2158
424.1812	0.212
424.3856	0.2122
424.5899	0.2127
424.7942	0.2131
424.9985	0.214
425.2028	0.2146
425.4071	0.2183
425.6113	0.2195
425.8156	0.2088
426.0198	0.2101
426.224	0.2218
426.4282	0.197
426.6324	0.1991
426.8366	0.2026
427.0407	0.206
427.2449	0.1936
427.449	0.2002
427.6531	0.206
427.8572	0.21
428.0613	0.2017
428.2654	0.2014
428.4694	0.1842
428.6735	0.1859
428.8775	0.1828
429.0815	0.1905
429.2855	0.1935
429.4895	0.1948
429.6935	0.1809
429.8975	0.181
430.1014	0.1923
430.3053	0.1864
430.5093	0.182
430.7132	0.1811
430.9171	0.1807
431.1209	0.1826
431.3248	0.1716
431.5286	0.1653
431.7325	0.1779
431.9363	0.1674
432.1401	0.1752
432.3439	0.1663
432.5477	0.1674
432.7514	0.1662
432.9552	0.1609
433.1589	0.158
433.3627	0.1653
433.5664	0.1521
433.7701	0.1631
433.9737	0.1555
434.1774	0.161
434.3811	0.1475
434.5847	0.1561
434.7883	0.1478
434.9919	0.144
435.1955	0.152
435.3991	0.1535
435.6027	0.1417
435.8062	0.1593
436.0098	0.1426
436.2133	0.1397
436.4168	0.1344
436.6203	0.1301
436.8238	0.1352
437.0272	0.1346
437.2307	0.1273
437.4341	0.1322
437.6375	0.136
437.841	0.1216
438.0443	0.1302
438.2477	0.1235
438.4511	0.1163
438.6545	0.1297
438.8578	0.122
439.0611	0.1282
439.2644	0.1175
439.4677	0.1171
439.671	0.1105
439.8743	0.1156
440.0775	0.1128
440.2808	0.105
440.484	0.1075
440.6872	0.1106
440.8904	0.0855
441.0936	0.1019
441.2967	0.0944
441.4999	0.0913
441.703	0.0939
441.9062	0.0988
442.1093	0.1028
442.3124	0.0967
442.5155	0.0955
442.7185	0.0839
442.9216	0.0894
443.1246	0.0874
443.3276	0.0862
443.5307	0.0772
443.7337	0.0864
443.9366	0.0827
444.1396	0.0814
444.3426	0.0747
444.5455	0.0753
444.7484	0.0775
444.9513	0.0806
445.1542	0.0764
445.3571	0.0737
445.56	0.0627
445.7628	0.0696
445.9657	0.0774
446.1685	0.0726
446.3713	0.0717
446.5741	0.0707
446.7769	0.073
446.9797	0.0627
447.1824	0.0549
447.3852	0.0464
447.5879	0.0571
447.7906	0.0483
447.9933	0.0534
448.196	0.0542
448.3986	0.0587
448.6013	0.0487
448.8039	0.0553
449.0066	0.059
449.2092	0.0659
449.4118	0.052
449.6143	0.0525
449.8169	0.053
450.0195	0.0483
450.222	0.0498
450.4245	0.0512
450.627	0.0372
450.8295	0.0414
451.032	0.0374
451.2345	0.0409
451.4369	0.0352
451.6394	0.0412
451.8418	0.0394
452.0442	0.0386
452.2466	0.0371
452.449	0.0347
452.6513	0.0371
452.8537	0.0379
453.056	0.0357
453.2583	0.0294
453.4607	0.0281
453.663	0.0325
453.8652	0.0237
454.0675	0.0422
454.2697	0.0298
454.472	0.0255
454.6742	0.0318
454.8764	0.0403
455.0786	0.0246
455.2808	0.0221
455.4829	0.0308
455.6851	0.0303
455.8872	0.0124
456.0893	0.022
456.2915	0.033
456.4935	0.0404
456.6956	0.0242
456.8977	0.0262
457.0997	0.0334
457.3018	0.0188
457.5038	0.0218
457.7058	0.0347
457.9078	0.0275
458.1098	0.0304
458.3117	0.0246
458.5137	0.0132
458.7156	0.0288
458.9175	0.0229
459.1194	0.0192
459.3213	0.0157
459.5232	0.0199
459.725	0.0158
459.9269	0.025
460.1287	0.0162
460.3305	0.018
460.5323	0.0159
460.7341	0.0212
460.9359	0.0047
461.1376	0.0256
461.3394	0.0253
461.5411	0.0231
461.7428	0.0149
461.9445	0.0115
462.1462	0.0177
462.3479	0.0082
462.5495	0.0134
462.7512	0.0217
462.9528	0.0151
463.1544	0.0191
463.356	0.0098
463.5576	0.0152
463.7592	0.0172
463.9607	0.0121
464.1623	0.011
464.3638	0.0066
464.5653	0.015
464.7668	0.0169
464.9683	0.0214
465.1697	0.0119
465.3712	0.0037
465.5726	0.012
465.7741	0.0208
465.9755	0.0076
466.1769	0.0083
466.3782	0.0126
466.5796	0.0135
466.7809	0.0104
466.9823	0.0113
467.1836	0.009
467.3849	0.0084
467.5862	0.0056
467.7875	0.0064
467.9887	0.0137
468.19	0.0173
468.3912	0.0155
468.5924	0.0045
468.7936	0.0073
468.9948	0.0037
469.196	0.0087
469.3972	-0.0018
469.5983	0.0057
469.7994	0.0129
470.0006	0.0082
470.2017	0.0055
470.4027	0.0258
470.6038	0.0113
470.8049	0.0077
471.0059	0.0162
471.2069	0.012
471.408	0.0193
471.6089	0.0096
471.8099	0.016
472.0109	0.0054
472.2119	0.0132
472.4128	0.0087
472.6137	0.0062
472.8146	0.0121
473.0155	0.0102
473.2164	0.0046
473.4173	-0.0029
473.6181	0.0055
473.819	0.0022
474.0198	-0.0016
474.2206	-0.0039
474.4214	0.0037
474.6222	-0.0052
474.8229	0.0116
475.0237	0.0075
475.2244	0.0061
475.4251	0.0048
475.6258	-0.0067
475.8265	0.0082
476.0272	0.0013
476.2278	0.0023
476.4285	0.0068
476.6291	0.0058
476.8297	0.0065
477.0303	-0.0009
477.2309	0.008
477.4315	0.0064
477.632	0.0011
477.8326	0.0083
478.0331	0.0162
478.2336	0.0066
478.4341	0.0146
478.6346	-0.001
478.8351	-0.0001
479.0355	0.0091
479.236	0.0166
479.4364	0.0118
479.6368	0.0003
479.8372	0.0036
480.0376	0.0021
480.2379	0.012
480.4383	0.0066
480.6386	0.0029
480.8389	0.0122
481.0392	0.0006
481.2395	0.0119
481.4398	0.0139
481.6401	0.0107
481.8403	0.0081
482.0405	0.0125
482.2408	0.0111
482.441	0.0058
482.6411	0.0099
482.8413	0.0059
483.0415	0.0128
483.2416	0.0063
483.4417	0.0064
483.6419	-0.0006
483.8419	0.01
484.042	0.0061
484.2421	-0.0002
484.4422	-0.0037
484.6422	0.0082
484.8422	0.0024
485.0422	0.0078
485.2422	0.0027
485.4422	0.0029
485.6422	0.002
485.8421	0.0049
486.042	0.0099
486.242	-0.0019
486.4419	0.0083
486.6417	0.0038
486.8416	0.0058
487.0415	0.0004
487.2413	0.0009
487.4411	0.0059
487.641	0.0017
487.8408	0.0086
488.0405	0.0136
488.2403	0
488.4401	0.0021
488.6398	0.0075
488.8395	0.0053
489.0392	0.0087
489.2389	0.0108
489.4386	-0.0006
489.6383	0.0104
489.8379	-0.0029
490.0376	0.003
490.2372	0.0058
490.4368	0.0043
490.6364	-0.0063
490.836	-0
491.0355	0.004
491.2351	0.0011
491.4346	0.0062
491.6341	0.0002
491.8336	0.0115
492.0331	0.0097
492.2326	0.0094
492.432	0.0016
492.6315	0.0112
492.8309	0.0045
493.0303	0.0068
493.2297	0.0127
493.4291	0.0045
493.6284	0.0128
493.8278	-0.0007
494.0271	0.0067
494.2264	-0.0042
494.4257	0.0077
494.625	0.0075
494.8243	0.0031
495.0236	0.0075
495.2228	0.0023
495.422	0.0055
495.6213	0.0048
495.8205	0.0044
496.0196	0.0022
496.2188	0.0057
496.418	0.0053
496.6171	0.001
496.8162	0.0043
497.0153	0.0079
497.2144	0.0055
497.4135	0.0033
497.6126	0.0043
497.8116	0.0016
498.0107	0.0015
498.2097	0.0067
498.4087	0.0071
498.6077	0.0006
498.8067	0.0053
499.0056	0.0036
499.2046	0.0051
499.4035	0.0119
499.6024	-0.0078
499.8013	0.0126
500.0002	0.0089
500.199	0.0112
500.3979	-0.0034
500.5967	0.0016
500.7956	0.0096
500.9944	0.0068
501.1932	0.0157
501.3919	0.0127
501.5907	0.0112
501.7895	0.0043
501.9882	0.0079
502.1869	0.0099
502.3856	0.0082
502.5843	-0.0029
502.783	0.0046
502.9816	0.0091
503.1803	0.0103
503.3789	0.0177
503.5775	0.0051
503.7761	0.003
503.9747	0.0138
504.1732	-0.0043
504.3718	0.0173
504.5703	0.0081
504.7689	-0.0003
504.9674	0.0051
505.1658	0.0063
505.3643	0.016
505.5628	0.0114
505.7612	0.0074
505.9597	0.001
506.1581	0.0025
506.3565	-0.0022
506.5549	0.0041
506.7532	0.0036
506.9516	0.0061
507.1499	0.0028
507.3482	0.0085
507.5465	0.0078
507.7448	0.0121
507.9431	0.0037
508.1414	0.0009
508.3396	0.0111
508.5379	0.0043
508.7361	0.0078
508.9343	0.0134
509.1325	0.0149
509.3306	-0.0018
509.5288	-0.0002
509.7269	0.0128
509.9251	0.0064
510.1232	0.0055
510.3213	0.0112
510.5193	0.0102
510.7174	0.0039
510.9154	0.0076
511.1135	0.0061
511.3115	0.0013
511.5095	-0.0049
511.7075	0.0071
511.9055	0.0048
512.1034	0.009
512.3014	0.0037
512.4993	0.0143
512.6972	0.0083
512.8951	0.0073
513.093	0.006
513.2908	0.0044
513.4887	0.0009
513.6865	0.0105
513.8844	0.0075
514.0822	0.0028
514.2799	-0.0036
514.4777	0.0037
514.6755	0.0032
514.8732	0.0056
515.0709	0.0053
515.2687	0.0027
515.4664	0.0093
515.664	0.0082
515.8617	0.0147
516.0594	0.0049
516.257	0.0047
516.4546	0.018
516.6522	0.0011
516.8498	0.0082
517.0474	0.0073
517.2449	0.0037
517.4425	0.001
517.64	0.007
517.8375	0.0117
518.035	0.004
518.2325	0.0022
518.43	-0.0032
518.6274	0.0093
518.8249	-0.0044
519.0223	0.0119
519.2197	0.0084
519.4171	-0.0012
519.6145	0.0124
519.8118	-0.0106
520.0092	-0
520.2065	0.0138
520.4038	0.0042
520.6011	0.0107
520.7984	0.0033
520.9956	0.0105
521.1929	0.01
521.3901	0.0096
521.5874	0.003
521.7846	0.0113
521.9818	0.0014
522.1789	0.0071
522.3761	0.0208
522.5732	-0.0051
522.7704	-0.0125
522.9675	0.0004
523.1646	0.0007
523.3617	0.0093
523.5587	0.0054
523.7558	0.0079
523.9528	0.0035
524.1498	0.0013
524.3468	0.0078
524.5438	0.0033
524.7408	0.0038
524.9378	0.0083
525.1347	0.0133
525.3316	0.0002
525.5285	-0.0038
525.7254	0.014
525.9223	0.0099
526.1192	0.0206
526.316	0.0032
526.5129	0.0124
526.7097	-0.0086
526.9065	0.0131
527.1033	0.0071
527.3	0.0019
527.4968	0.0047
527.6935	0.0067
527.8903	0.006
528.087	0.0046
528.2837	0.0069
528.4804	0.0006
528.677	0.0071
528.8737	0.0043
529.0703	-0.0014
529.2669	0.0139
529.4635	0.0004
529.6601	-0.0015
529.8567	0.0011
530.0532	0.0014
530.2498	-0.0021
530.4463	-0.0103
530.6428	0.0095
530.8393	0.0132
531.0358	0.0023
531.2322	-0.0031
531.4287	0.0042
531.6251	-0.0066
531.8215	-0.0005
532.0179	0.0205
532.2143	0.0017
532.4107	0.0151
532.607	0.0009
532.8034	-0.0039
532.9997	0.0011
533.196	0.0029
533.3923	0.012
533.5886	0.005
533.7848	0.0143
533.9811	0.0053
534.1773	0.0059
534.3735	0.0064
534.5697	0.0026
534.7659	0.0066
534.9621	0.0124
535.1582	0.0067
535.3544	0.0103
535.5505	0.0111
535.7466	0.0039
535.9427	-0.0028
536.1387	0.0073
536.3348	0.0052
536.5308	0.0102
536.7269	0.006
536.9229	0.0019
537.1189	0.0135
537.3148	0.01
537.5108	0.0064
537.7068	0.0139
537.9027	-0.0038
538.0986	0.0096
538.2945	-0.004
538.4904	-0.0051
538.6863	0.0072
538.8821	0.0118
539.078	0.0004
539.2738	0.0106
539.4696	-0.0057
539.6654	0.0036
539.8611	0.0004
540.0569	0.0005
540.2526	0.0138
540.4484	-0.0079
540.6441	0.0079
540.8398	0.0206
541.0355	-0.001
541.2311	0.0001
541.4268	0.0129
541.6224	0.0092
541.818	0.0058
542.0136	0.0101
542.2092	0.0069
542.4048	0.0072
542.6003	0.0041
542.7959	0.0107
542.9914	0.0027
543.1869	0.007
543.3824	0.0011
543.5779	0.0113
543.7734	0.0178
543.9688	0.0193
544.1642	0.0026
544.3596	0.0044
544.555	0.0031
544.7504	0.0123
544.9458	0.0068
545.1411	0.0054
545.3365	0.0104
545.5318	0.0021
545.7271	0.0143
545.9224	0.0002
546.1177	0.0085
546.3129	-0.0025
546.5081	-0.0017
546.7034	0.0065
546.8986	0.002
547.0938	0.0072
547.289	0.0111
547.4841	0.0025
547.6793	0.0122
547.8744	0.0106
548.0695	-0.0047
548.2646	0.0072
548.4597	-0.0029
548.6548	0.0154
548.8498	0.0063
549.0448	0.0043
549.2399	0.0167
549.4349	0.0072
549.6298	-0.0012
549.8248	-0.001
550.0198	0.0141
550.2147	0.0134
550.4096	0.0031
550.6045	0.012
550.7994	0.0049
550.9943	0.0078
551.1892	-0.01
551.384	0.0131
551.5788	0.0039
551.7737	0.007
551.9685	0.0043
552.1632	-0.0005
552.358	0.0049
552.5528	0.006
552.7475	0.0095
552.9422	-0.0022
553.1369	0.0063
553.3316	0.0138
553.5263	0.0144
553.7209	0.0035
553.9156	0.0016
554.1102	-0.0008
554.3048	-0.0041
554.4994	0.0021
554.694	0.0163
554.8885	0.0077
555.0831	0.0041
555.2776	0.0047
555.4721	0.01
555.6666	0.0069
555.8611	0.0109
556.0555	0.0013
556.25	0.0065
556.4444	-0.0028
556.6388	-0.0055
556.8332	-0.0003
557.0276	0.0017
557.222	-0.0096
557.4163	-0.0031
557.6107	0.003
557.805	-0.0049
557.9993	0.012
558.1936	0.0024
558.3879	0.0044
558.5821	0.0016
558.7764	-0.0045
558.9706	0.0068
559.1648	0.0103
559.359	-0.0013
559.5532	0.008
559.7473	-0.003
559.9415	0.0041
560.1356	0.0173
560.3297	-0.0007
560.5238	0.01
560.7179	-0.0019
560.9119	0.0028
561.106	-0.0031
561.3	0.0055
561.494	-0.0018
561.688	-0.0069
561.882	-0.0061
562.076	0.0131
562.2699	0.0147
562.4639	0.0192
562.6578	0.0145
562.8517	0.0127
563.0456	0.0118
563.2395	0.0117
563.4333	0.0115
563.6272	0.0066
563.821	0.0083
564.0148	0.0065
564.2086	0.0093
564.4024	0.0056
564.5961	0.0092
564.7899	0.0172
564.9836	-0.0012
565.1773	0.0094
565.371	0.0068
565.5647	0.0101
565.7584	0.0135
565.952	0.0054
566.1456	0.0148
566.3393	-0.0015
566.5329	0.008
566.7264	0.0116
566.92	0.0069
567.1136	0.0014
567.3071	0.0009
567.5006	0.0145
567.6941	0.0098
567.8876	0.007
568.0811	0.0266
568.2745	0.0005
568.468	0.0086
568.6614	0.0045
568.8548	0.0053
569.0482	0.0067
569.2416	0.0082
569.4349	0.0062
569.6283	-0.0014
569.8216	0.0102
570.0149	0.0033
570.2082	0.0123
570.4015	0.009
570.5947	0.0007
570.788	0.0073
570.9812	0.0089
571.1744	0.0072
571.3676	0.0061
571.5608	0.0045
571.754	0.0121
571.9471	0.0071
572.1402	0.0044
572.3333	0.0073
572.5264	0.0074
572.7195	0.0012
572.9126	0.0031
573.1057	0.0069
573.2987	0.0045
573.4917	0.0037
573.6847	0.0034
573.8777	0.0051
574.0707	0.0068
574.2636	0.0066
574.4566	0.0024
574.6495	0.0043
574.8424	0.01
575.0353	0.0057
575.2281	0.0085
575.421	0.0033
575.6138	0.0024
575.8067	0.0052
575.9995	0.001
576.1923	0.0051
576.385	0.0101
576.5778	0.0093
576.7706	0.008
576.9633	0.0046
577.156	-0.0007
577.3487	0.0048
577.5414	0.0021
577.734	0.0039
577.9267	0.0054
578.1193	0.0074
578.3119	0.0026
578.5045	0.0038
578.6971	0.0044
578.8897	0.0043
579.0822	0.0069
579.2747	0.0034
579.4673	0.0064
579.6598	0.0077
579.8522	0.0032
580.0447	0.0053
580.2372	0.0086
580.4296	0.0092
580.622	0.0034
580.8144	0.0076
581.0068	0.0053
581.1992	0.0037
581.3915	0
581.5839	0.0041
581.7762	0.0027
581.9685	0.0046
582.1608	0.0056
582.353	0.0021
582.5453	0.0068
582.7375	0.0095
582.9298	0.0031
583.122	0.0004
583.3142	0.0071
583.5063	0.0015
583.6985	0.0018
583.8906	0.0009
584.0827	0.0069
584.2749	0.0039
584.4669	0.001
584.659	0.0063
584.8511	0.0067
585.0431	0.0075
585.2352	0.0045
585.4272	0.0064
585.6192	0.0057
585.8111	0.0035
586.0031	-0.0011
586.195	0.0029
586.387	0.0029
586.5789	0.0093
586.7708	0.0058
586.9627	0.0051
587.1545	0.0036
587.3464	0.0024
587.5382	0.0066
587.73	0.0095
587.9218	0.0041
588.1136	0.0021
588.3053	0.0081
588.4971	0.002
588.6888	0.0022
588.8805	-0.0026
589.0722	0.0113
589.2639	0.0088
589.4556	0.0114
589.6472	0.0065
589.8389	0.0071
590.0305	0.0028
590.2221	0.0045
590.4137	0.0041
590.6052	0.0022
590.7968	0.0025
590.9883	0.0015
591.1798	0.0025
591.3713	0.0063
591.5628	0.0077
591.7543	0.0008
591.9458	0.0031
592.1372	0.0049
592.3286	0.0062
592.52	0.0031
592.7114	0.0057
592.9028	0.0058
593.0941	0.0014
593.2855	-0.0016
593.4768	0.0091
593.6681	0.0086
593.8594	0.0065
594.0506	0.0052
594.2419	0.0027
594.4331	0.0028
594.6244	0.0021
594.8156	0.0012
595.0067	0.0029
595.1979	0.0006
595.3891	0.0031
595.5802	0.0075
595.7713	0.0097
595.9624	0.0085
596.1535	0.0048
596.3446	-0.0004
596.5357	0.0076
596.7267	0.0057
596.9177	-0.0011
597.1087	0.0016
597.2997	0.001
597.4907	0.0033
597.6817	0.0054
597.8726	0.0067
598.0635	0.0029
598.2544	0.0081
598.4453	0.0073
598.6362	0.0033
598.827	0.005
599.0179	0.0063
599.2087	0.0065
599.3995	0.0059
599.5903	0.0122
599.7811	0.0082
599.9718	-0
600.1626	0.0022
600.3533	0.002
600.544	0.0125
600.7347	0.0064
600.9254	0.0096
601.116	0.0061
601.3067	-0.0014
601.4973	0.0085
601.6879	0.0041
601.8785	0.009
602.0691	0.0017
602.2596	0.0091
602.4502	-0.0011
602.6407	0.0045
602.8312	0.0044
603.0217	0.0095
603.2122	0.0021
603.4027	0.0041
603.5931	-0.0005
603.7835	0.0021
603.9739	-0.001
604.1643	0.0067
604.3547	0.0072
604.5451	0.0111
604.7354	0.0052
604.9257	0.0008
605.116	-0.005
605.3063	0.0042
605.4966	0.0022
605.6869	0.0103
605.8771	0.0074
606.0673	0.0059
606.2575	0.0016
606.4477	0.0082
606.6379	-0.0007
606.8281	0.0003
607.0182	0.005
607.2083	0.0052
607.3985	0.0031
607.5885	0.001
607.7786	0.007
607.9687	0.0066
608.1587	0.0087
608.3488	0.0059
608.5388	0.0088
608.7288	-0.0015
608.9187	-0.0001
609.1087	0.006
609.2986	0.0147
609.4886	-0.0001
609.6785	0.0048
609.8684	0.0025
610.0582	-0.0007
610.2481	-0.0028
610.4379	0.0052
610.6278	0.0062
610.8176	0.0066
611.0074	0.0068
611.1971	0.0117
611.3869	0.0055
611.5766	-0.0016
611.7664	0.0066
611.9561	0.0037
612.1458	0.0074
612.3354	0.0109
612.5251	0.0077
612.7147	0.0126
612.9044	0.0052
613.094	0.0033
613.2836	0.0003
613.4731	0.0003
613.6627	0.0038
613.8522	0.0034
614.0417	0.0096
614.2313	0.0019
614.4207	0.0002
614.6102	0.0091
614.7997	0.0087
614.9891	0.003
615.1785	-0.0018
615.3679	0.009
615.5573	0.0029
615.7467	0.0013
615.9361	0.0074
616.1254	0.0078
616.3147	0.0067
616.504	0.01
616.6933	0.0036
616.8826	0.0031
617.0718	0.0095
617.2611	0.005
617.4503	0.0013
617.6395	0.0066
617.8287	0.0124
618.0179	0.0045
618.207	0.0073
618.3961	0.0032
618.5853	0.0021
618.7744	0.0075
618.9634	0.0132
619.1525	0.0071
619.3416	0.0066
619.5306	0.007
619.7196	0.0114
619.9086	0.0085
620.0976	-0.0007
620.2866	0.0116
620.4755	-0.0008
620.6645	0.0161
620.8534	0.0178
621.0423	-0.0026
621.2312	0.0084
621.42	0.0118
621.6089	-0.0011
621.7977	0.0094
621.9865	0.0089
622.1753	0.0033
622.3641	-0.0122
622.5529	-0.0062
622.7416	0.0043
622.9303	-0.0006
623.1191	0.0097
623.3078	0.0011
623.4964	0.0024
623.6851	0.0063
623.8737	0.0023
624.0624	-0.0193
624.251	0.001
624.4396	0.0084
624.6282	0.0114
624.8167	0.0039
625.0053	0.0161
625.1938	0.0019
625.3823	0.0069
625.5708	-0.0069
625.7593	0.0044
625.9477	0.0016
626.1362	0.0082
626.3246	0.0044
626.513	0.0084
626.7014	0.0181
626.8898	0.0164
627.0781	-0.0005
627.2665	0.0059
627.4548	-0.0068
627.6431	0.0047
627.8314	0.0138
628.0197	0.0084
628.2079	0.0087
628.3962	0.0048
628.5844	0.0168
628.7726	0.0026
628.9608	0.0024
629.1489	0.0128
629.3371	-0.0054
629.5252	0.0094
629.7134	0.0001
629.9015	0.0004
630.0895	0.0005
630.2776	0.0126
630.4657	0.0065
630.6537	0.0175
630.8417	0.0079
631.0297	0.0031
631.2177	0.0113
631.4057	0.0117
631.5936	-0.0061
631.7815	0.0024
631.9695	0.016
632.1574	0.0229
632.3452	0.0077
632.5331	0.0037
632.7209	0.014
632.9088	-0.0162
633.0966	0.0214
633.2844	0.0052
633.4722	0.0185
633.6599	0.0025
633.8477	0.0049
634.0354	0.0177
634.2231	-0.0105
634.4108	-0.0108
634.5985	0.0141
634.7861	0.0029
634.9738	0.0041
635.1614	0.0079
635.349	0.0029
635.5366	0.0123
635.7242	0.0047
635.9117	0.0066
636.0993	0.0067
636.2868	-0.0115
636.4743	0.0022
636.6618	-0.0039
636.8492	-0.004
637.0367	0.0001
637.2241	0.0029
637.4115	0.0261
637.5989	0.027
637.7863	0.0214
637.9737	0.0137
638.161	0.0225
638.3484	-0.0116
638.5357	-0.0077
638.723	0.0242
638.9103	-0.0028
639.0975	0.0052
639.2848	0.0165
639.472	0.0057
639.6592	-0.0141
639.8464	-0.0021
640.0336	0.0096
640.2208	0.0029
640.4079	-0.0049
640.595	-0.0084
640.7821	0.0175
640.9692	-0.0054
641.1563	0.0091
641.3434	0.0059
641.5304	0.0252
641.7174	0.0254
641.9044	0.0152
642.0914	0.0214
642.2784	0.0057
642.4653	-0.0009
642.6523	0.0088
642.8392	-0
643.0261	0.013
643.213	0.015
643.3999	0.0281
643.5867	0.0016
643.7735	0.0038
643.9604	0.0085
644.1472	-0.0088
644.3339	0.0217
644.5207	0.0021
644.7075	-0.0048
644.8942	0.0119
645.0809	0.0105
645.2676	-0.0095
645.4543	-0.0039
645.6409	0.0082
645.8276	-0.007
646.0142	0.0184
646.2008	0.0155
646.3874	-0.0179
646.574	-0.0018
646.7605	0.0065
646.9471	-0.0096
647.1336	-0.0355
647.3201	0.0124
647.5066	0.017
647.6931	0.0105
647.8795	-0.01
648.0659	-0.0031
648.2524	0.0141
648.4388	0.0119
648.6252	0.0144
648.8115	0.005
648.9979	0.0107
649.1842	0.0108
649.3705	-0.0019
649.5568	-0.0039
649.7431	-0.0007
649.9294	-0.015
650.1156	-0.0139
650.3018	0.0175
650.488	0.011
650.6742	-0.0068
650.8604	0.0009
651.0466	0.0004
651.2327	-0.0063
651.4188	0.0095
651.6049	0.0166
651.791	0.0057
651.9771	0.006
652.1632	0.008
652.3492	0.0017
652.5352	0.0174
652.7212	0.0125
652.9072	0.0098
653.0932	0.0002
653.2791	0.0048
653.465	0.0065
653.651	-0.0015
653.8369	0.005
654.0227	0.0081
654.2086	0.0073
654.3944	0.0159
654.5803	0.006
654.7661	-0.0029
654.9519	-0.002
655.1377	0
655.3234	0
655.5092	0
655.6949	0
655.8806	0
656.0663	0
656.2519	0
656.4376	0
656.6232	0
656.8088	0
656.9945	0
657.18	0
657.3656	0
657.5511	0
657.7367	0
657.9222	0
658.1077	0
658.2932	0
658.4786	0
658.6641	0
658.8495	0
659.0349	0
659.2203	0
659.4057	0
659.591	0.1452
659.7764	0.0195
659.9617	-0.0012
660.147	0.0058
660.3323	-0.0002
660.5176	0.0024
660.7028	-0.0179
660.888	0.0068
661.0733	0.0122
661.2585	0.0057
661.4436	0.0041
661.6288	0.0392
661.8139	0.0086
661.9991	-0.0077
662.1842	0.0136
662.3693	0.0005
662.5544	0.0041
662.7394	0.0226
662.9245	0.0069
663.1095	-0.0304
663.2945	-0.0068
663.4795	-0.0267
663.6644	0.005
663.8494	0.0026
664.0343	-0.0076
664.2193	-0.0076
664.4042	0.0208
664.589	0.0071
664.7739	0.0231
664.9587	-0.0165
665.1436	-0.0066
665.3284	0.0037
665.5132	-0.0134
665.698	0.003
665.8827	0.0218
666.0675	-0.0057
666.2522	0.009
666.4369	0.0035
666.6216	0.0134
666.8063	0.0243
666.9909	0.0164
667.1756	-0.0124
667.3602	-0.0017
667.5448	0.0029
667.7294	0.0054
667.9139	-0.024
668.0985	0.0116
668.283	0.0078
668.4675	0.0258
668.652	0.0084
668.8365	-0.0079
669.0209	0.0071
669.2054	0.0009
669.3898	0.0069
669.5742	0.0135
669.7586	0.0418
669.943	-0.0091
670.1273	-0.0023
670.3117	0.0319
670.496	-0.0026
670.6803	0.0059
670.8646	-0.0226
671.0488	0.0199
671.2331	-0.0078
671.4173	0.0103
671.6015	0.0107
671.7857	0.0104
671.9699	0.0154
672.1541	-0.0048
672.3382	-0.0088
672.5223	-0.0154
672.7064	-0.0068
672.8905	-0.0065
673.0746	0.0141
673.2587	0.0194
673.4427	0.0094
673.6267	0.0065
673.8107	0.0301
673.9947	0.0336
674.1787	0.0119
674.3626	0.0111
674.5465	0.0112
674.7304	0.0185
674.9143	-0.0032
675.0982	0.0153
675.2821	-0.0026
675.4659	-0.0047
675.6497	0.0038
675.8335	0.0249
676.0173	-0.0331
676.2011	0.0197
676.3849	0.0115
676.5686	0.0091
676.7523	0.0229
676.936	-0.0024
677.1197	0.0011
677.3034	0.0466
677.487	0.0132
677.6706	-0.0022
677.8542	0.0114
678.0378	0.0088
678.2214	-0.0051
678.405	-0.0026
678.5885	0.0137
678.772	0.0039
678.9555	0.0161
679.139	0.0143
679.3225	-0.003
679.5059	-0.0008
679.6894	0.0083
679.8728	0.0109
680.0562	0.003
680.2395	-0.004
680.4229	-0.0065
680.6062	0.0016
680.7896	-0.0083
680.9729	0.0154
681.1562	0.003
681.3394	-0.0012
681.5227	-0.01
681.7059	0.0027
681.8891	0.0105
682.0723	-0.0006
682.2555	0.0213
682.4387	0.0012
682.6218	0.0283
682.805	0.0136
682.9881	0.0351
683.1712	0.0132
683.3542	0.0165
683.5373	0.0021
683.7203	0.0046
683.9034	-0.0195
684.0864	-0.0048
684.2694	0.0085
684.4523	0.0202
684.6353	0.0063
684.8182	-0.0047
685.0011	0.0136
685.184	0.0088
685.3669	0.0245
685.5498	-0.0027
685.7326	0.0017
685.9154	-0.0089
686.0982	0.0182
686.281	0.0024
686.4638	-0.0042
686.6465	0.0079
686.8293	-0.0052
687.012	0.0142
687.1947	0.0091
687.3774	0.0093
687.56	-0.0214
687.7427	0.0163
687.9253	-0.007
688.1079	0.0092
688.2905	-0.0267
688.4731	0.0207
688.6556	0.0067
688.8382	-0.0136
689.0207	0.0166
689.2032	0.0186
689.3857	-0.0024
689.5681	-0.0006
689.7506	0.0327
689.933	-0.0104
690.1154	0.0155
690.2978	-0.0053
690.4802	0.025
690.6626	-0.0007
690.8449	0.0203
691.0272	0.0139
691.2095	-0.0218
691.3918	0.0239
691.5741	0.0127
691.7563	0.0057
691.9386	0.0255
692.1208	0.0109
692.303	-0.0003
692.4852	-0.0052
692.6673	0.0061
692.8495	-0.0149
693.0316	0.0099
693.2137	0.0243
693.3958	0.007
693.5778	0.0155
693.7599	0.0026
693.9419	-0.0164
694.1239	0.0135
694.3059	0.0377
694.4879	-0.0066
694.6699	0.0108
694.8518	0.0013
695.0337	0.0079
695.2157	0.0227
695.3975	0.0099
695.5794	-0.0063
695.7613	0.0007
695.9431	-0.0155
696.1249	0.0181
696.3067	-0.0091
696.4885	0.0104
696.6703	0.005
696.852	-0
697.0337	0.0252
697.2154	0.0099
697.3971	0.0187
697.5788	0.0267
697.7605	-0.0034
697.9421	0.0017
698.1237	0.014
698.3053	-0.0058
698.4869	0.0042
698.6685	0.0164
698.85	0.0177
699.0315	0.004
699.213	0.007
699.3945	0.003
699.576	0.0155
699.7575	0.0328
699.9389	0.0015
700.1203	-0.0013
700.3017	0.0143
700.4831	0.0247
700.6645	0.0487
700.8458	-0.0071
701.0271	0.0358
701.2084	0.0118
701.3897	0.0245
701.571	-0.0146
701.7523	-0.0072
701.9335	0.0258
702.1147	0.0122
702.2959	-0.0058
702.4771	0.02
702.6583	-0.0079
702.8394	-0.0087
703.0205	0.0328
703.2016	-0.0036
703.3827	-0.0073
703.5638	-0.005
703.7449	0.0213
703.9259	0.0214
704.1069	-0.0134
704.2879	-0.0001
704.4689	0.0084
704.6499	0.0004
704.8308	0.0079
705.0117	0.0366
705.1927	0.0201
705.3735	0.0072
705.5544	0.0053
705.7353	0.0067
705.9161	-0.0038
706.0969	0.0031
706.2777	-0.0061
706.4585	0.0057
706.6393	0.0158
706.82	-0.0062
707.0007	-0.0178
707.1815	0.0061
707.3621	0.0352
707.5428	0.0123
707.7235	-0.0025
707.9041	0.0041
708.0847	0.0188
708.2653	0.0324
708.4459	0.0102
708.6265	-0.0064
708.807	0.0263
708.9875	-0.0012
709.168	-0.0071
709.3485	0.0072
709.529	-0.0008
709.7095	-0.0045
709.8899	0.0159
710.0703	0.0068
710.2507	0.0068
710.4311	-0.0108
710.6115	0.009
710.7918	0.0133
710.9721	0.0091
711.1524	-0.0139
711.3327	-0.0051
711.513	0.0031
711.6932	-0.0088
711.8735	0.0241
712.0537	-0.0176
712.2339	-0.0029
712.4141	0.0265
712.5942	-0.0224
712.7744	0.0178
712.9545	0.0249
713.1346	0.029
713.3147	0.0201
713.4947	-0.0173
713.6748	0.0128
713.8548	0.025
714.0348	0.0176
714.2148	0.013
714.3948	0.0098
714.5748	0.0195
714.7547	0.0222
714.9346	0.0294
715.1145	-0.0125
715.2944	-0.0308
715.4743	0.0213
715.6541	0.0051
715.834	0.0208
716.0138	0.012
716.1936	0.0245
716.3733	-0.0192
716.5531	-0.0033
716.7328	0.0338
716.9126	0.0152
717.0923	-0.0461
717.2719	0.0054
717.4516	0.0222
717.6312	-0.0122
717.8109	0.0017
717.9905	0.0041
718.1701	0.0145
718.3496	0.0051
718.5292	-0.017
718.7087	0.0261
718.8882	0.003
719.0677	0.0084
719.2472	0.0028
719.4267	0.0022
719.6061	-0.0014
719.7856	0.021
719.965	-0.0129
720.1443	0.0015
720.3237	-0.0106
720.5031	-0.0245
720.6824	-0.0072
720.8617	0.0167
721.041	0.0219
721.2203	-0.0001
721.3995	0.0131
721.5788	-0.0132
721.758	-0.0313
721.9372	-0.0001
722.1164	0.0073
722.2956	0.0229
722.4747	0.0201
722.6538	0.0061
722.8329	0.0315
723.012	0.0042
723.1911	0.0089
723.3702	0.0145
723.5492	-0.0014
723.7282	0.0038
723.9072	0.0262
724.0862	0.0117
724.2652	0.0086
724.4441	-0.0097
724.623	-0.0133
724.8019	0.0042
724.9808	-0.0075
725.1597	0.0166
725.3385	0.0126
725.5174	0.0228
725.6962	0.0044
725.875	0.0076
726.0538	0.014
726.2325	0.0182
726.4112	-0.0198
726.59	-0.0016
726.7687	-0.0054
726.9474	0.0283
727.126	-0.0128
727.3047	0.0015
727.4833	-0.0001
727.6619	-0.0159
727.8405	0.0037
728.0191	0.0183
728.1976	-0.0057
728.3762	0.0164
728.5547	0.0025
728.7332	0.0058
728.9116	-0.0017
729.0901	0.0009
729.2686	0.0006
729.447	-0.0171
729.6254	0.0006
729.8038	0.0003
729.9821	-0.0115
730.1605	0.0031
730.3388	0.0073
730.5171	0.0324
730.6954	0.0034
730.8737	-0.0045
731.0519	-0.0093
731.2302	0.02
731.4084	0.0052
731.5866	0.0029
731.7648	-0
731.9429	0.015
732.1211	0.0095
732.2992	-0.0009
732.4773	0.0109
732.6554	-0.0079
732.8335	0.0252
733.0115	0.0125
733.1896	-0.009
733.3676	0.0155
733.5456	0.0022
733.7235	-0.0075
733.9015	0.0098
734.0794	0.0007
734.2574	-0.0196
734.4353	0.0097
734.6131	-0.0108
734.791	-0.0073
734.9689	-0.0026
735.1467	-0.0229
735.3245	0.0155
735.5023	0.0098
735.68	0.0063
735.8578	0.0251
736.0355	0.0067
736.2132	0.0031
736.3909	0.008
736.5686	0.0157
736.7463	-0.0232
736.9239	0.0134
737.1015	0.0146
737.2791	0.0178
737.4567	0.026
737.6343	-0.0103
737.8118	-0.0032
737.9894	0.0186
738.1669	-0.0057
738.3444	0.0324
738.5218	-0.0169
738.6993	0.0126
738.8767	0.0057
739.0541	-0.0038
739.2315	0.001
739.4089	0.0246
739.5863	-0.0016
739.7636	0.0017
739.9409	0.0065
740.1182	-0.0107
740.2955	0.0198
740.4728	0.003
740.65	-0.0029
740.8272	0.0195
741.0044	0.0058
741.1816	0.0078
741.3588	-0.0278
741.5359	0.0024
741.7131	0.0175
741.8902	-0.0087
742.0673	-0.0005
742.2444	0.0442
742.4214	0.0138
742.5985	0.0165
742.7755	-0.0133
742.9525	-0.0138
743.1295	-0.0226
743.3064	-0.0068
743.4834	0.0187
743.6603	0.0426
743.8372	-0.0633
744.0141	0.0524
744.191	0.0132
744.3678	-0.0078
744.5446	0.0197
744.7215	0.035
744.8982	0.0182
745.075	0.0243
745.2518	0.0199
745.4285	0.0038
745.6052	-0.0122
745.7819	0.007
745.9586	0.0077
746.1353	-0.0348
746.3119	0.0311
746.4885	0.0149
746.6651	-0.0005
746.8417	-0.0133
747.0183	0.0393
747.1948	0.0078
747.3714	0.0275
747.5479	0.0211
747.7244	0.001
747.9008	-0.0133
748.0773	0.0358
748.2537	0.0415
748.4301	0.0259
748.6065	-0.0173
748.7829	-0.0228
748.9593	0.0007
749.1356	-0.0035
749.3119	0.008
749.4882	0.0077
749.6645	0.0069
749.8408	0.0081
750.017	-0.0082
750.1933	-0.0225
750.3695	0.0122
750.5457	-0.0064
750.7218	0.0048
750.898	-0.0041
751.0741	0.0175
751.2502	0.0406
751.4263	0.0226
751.6024	0.0168
751.7784	-0.0132
751.9545	-0.0177
752.1305	0.0079
752.3065	0.013
752.4825	0.0027
752.6584	0.0066
752.8344	0.013
753.0103	-0.03
753.1862	0.0038
753.3621	0.0036
753.5379	-0.008
753.7138	0.0057
753.8896	0.0157
754.0654	0.0036
754.2412	0.0318
754.417	0.033
754.5927	0.0324
754.7685	0.0057
754.9442	0.0243
755.1199	0.0159
755.2956	0.0014
755.4712	-0.01
755.6469	-0.0083
755.8225	0.0067
755.9981	0.0106
756.1736	0.0005
756.3492	-0.0051
756.5248	0.0201
756.7003	0.0109
756.8758	0.0112
757.0513	0.0032
757.2267	-0.0071
757.4022	-0.0046
757.5776	0.0032
757.753	0.006
757.9284	-0.0103
758.1038	0.0217
758.2791	0.0163
758.4545	-0.0015
758.6298	0.0152
758.8051	0.0131
758.9803	0.0002
759.1556	0.0176
759.3308	-0.0043
759.506	0.0004
759.6812	0.0117
759.8564	0.005
760.0316	0.0188
760.2067	0.0228
760.3819	-0.0094
760.557	0.0042
760.732	0.009
760.9071	0.0157
761.0821	-0.0143
761.2572	0.0106
761.4322	0.0141
761.6072	0.0116
761.7821	-0.0311
761.9571	0.0123
762.132	0.0214
762.3069	0.0192
762.4818	0.0099
762.6567	0.001
762.8316	0.0031
763.0064	0.009
763.1812	0.0099
763.356	-0.0166
763.5308	0.0346
763.7055	-0.0013
763.8803	0.0059
764.055	0.0002
764.2297	-0.0194
764.4044	0.0055
764.579	0.0002
764.7537	-0.0116
764.9283	0.0104
765.1029	0.0002
765.2775	0.0284
765.4521	0.0108
765.6266	-0.0056
765.8011	-0.0048
765.9756	0.0329
766.1501	0.0071
766.3246	-0.005
766.4991	0.015
766.6735	0.0338
766.8479	-0.0012
767.0223	0.0375
767.1967	0.0044
767.371	0.0183
767.5454	0.0225
767.7197	0.0326
767.894	0.0068
768.0683	0.0324
768.2425	0.0153
768.4168	0.0063
768.591	-0.0189
768.7652	0.0176
768.9394	-0.0134
769.1135	0.0091
769.2877	0.0139
769.4618	0.0081
769.6359	0.0165
769.81	0.0137
769.984	0.0007
770.1581	-0.0097
770.3321	0.0013
770.5061	-0.0082
770.6801	0.0225
770.8541	0.0076
771.028	0.0294
771.202	0.0275
771.3759	0.0085
771.5498	0.0046
771.7236	0.0022
771.8975	0.0031
772.0713	0.0215
772.2451	-0.0092
772.4189	-0.0015
772.5927	-0.0241
772.7665	-0.022
772.9402	0.023
773.1139	0.0043
773.2876	-0.0247
773.4613	0.0236
773.635	0.039
773.8086	0.0393
773.9822	0.0084
774.1558	0.0447
774.3294	-0.0069
774.503	-0.0022
774.6765	0.0526
774.8501	0.0054
775.0236	0.0481
775.1971	0.0022
775.3705	0.0157
775.544	-0.017
775.7174	0.0048
775.8908	0.0122
776.0642	0.0296
776.2376	0.0247
776.4109	-0.0111
776.5843	-0.0584
776.7576	0.0075
776.9309	0.0391
777.1041	-0.0326
777.2774	-0.0091
777.4506	0.0138
777.6238	-0.0071
777.797	-0.026
777.9702	-0.0014
778.1434	0.0176
778.3165	-0.0206
778.4896	-0.0259
778.6627	0.0068
778.8358	-0.0143
779.0089	-0.0206
779.1819	0.0578
779.3549	0.0093
779.5279	-0.0167
779.7009	0.0335
779.8739	0.0586
780.0468	-0.0057
780.2197	-0.008
780.3926	-0.0072
780.5655	0.0326
780.7384	0.0046
780.9112	0.027
781.0841	0.0203
781.2569	0.0035
781.4297	-0.0023
781.6024	0.0242
781.7752	0.0276
781.9479	0.0203
782.1206	0.0122
782.2933	0.005
782.466	0.0206
782.6386	-0.0202
782.8113	-0.0036
782.9839	0.004
783.1565	0.0077
783.329	-0.0001
783.5016	-0.0086
783.6741	-0.0163
783.8466	0.0345
784.0191	0.0267
784.1916	-0.0276
784.3641	-0.0362
784.5365	0.0107
784.7089	-0.049
784.8813	0.09
785.0537	0.0124
785.2261	0.0165
785.3984	0.0125
785.5707	-0.0245
785.743	0.0032
785.9153	-0.0175
786.0876	0.0052
786.2598	0.0014
786.432	0.0059
786.6042	0.0577
786.7764	-0.0397
786.9486	-0.0157
787.1207	0.0234
787.2928	0.0542
787.4649	0.0157
787.637	-0.0036
787.8091	-0.0139
787.9811	0.019
788.1532	-0.0047
788.3252	0.0195
788.4972	0.0266
788.6691	0.0227
788.8411	0.0066
789.013	0.0081
789.1849	-0.0099
789.3568	0.0385
789.5287	0.0566
789.7005	-0.0338
789.8723	-0.0378
790.0442	-0.0158
790.2159	-0.0154
790.3877	0.0255
790.5595	0.0093
790.7312	-0.0139
790.9029	0.0144
791.0746	0.0136
791.2463	-0.0117
791.4179	0.0442
791.5896	-0.0041
791.7612	0.0407
791.9328	-0.0827
792.1044	0.0378
792.2759	-0.0471
792.4474	0.0104
792.619	0.0148
792.7905	0.0391
792.9619	0.0243
793.1334	0.0489
793.3048	0.0275
793.4762	0.0241
793.6476	-0.035
793.819	0.0046
793.9904	-0.0231
794.1617	-0.0295
794.333	-0.0036
794.5043	0.042
794.6756	-0.0064
794.8469	0.0036
795.0181	-0.0107
795.1893	0.0236
795.3605	0.0296
795.5317	-0.0278
795.7029	-0.0494
795.874	-0.0334
796.0452	0.0314
796.2163	0.0665
796.3873	0.073
796.5584	0.0296
796.7294	0.0725
796.9005	0.0131
797.0715	-0.0673
797.2425	0.0136
797.4134	0.0644
797.5844	0.0637
797.7553	-0.0457
797.9262	0.1039
798.0971	0.0366
798.2679	0.0299
798.4388	0.0338
798.6096	-0.0097
798.7804	0.0274
798.9512	0.0478
799.122	0.0128
799.2927	0.051
799.4635	-0.0289
799.6342	-0.048
799.8049	0.0594
799.9755	0.0096
800.1462	0.0279
800.3168	-0.0144
800.4874	-0.1018
800.658	0.079
800.8286	0.0044
800.9991	0.0289
801.1696	-0.0031
801.3402	0.0098
801.5106	0.0369
801.6811	0.0426
801.8516	-0.0082
802.022	-0.0133
802.1924	0.0254
802.3628	0.0628
802.5332	0.0353
802.7035	0.0412
802.8739	0.0277
803.0442	-0.0059
803.2145	-0.0068
803.3847	-0.0094
803.555	0.0349
803.7252	-0.0796
803.8954	-0.0726
804.0656	-0.0018
804.2358	-0.0003
804.4059	0.0075
804.5761	-0.0486
804.7462	0.0831
804.9163	0.0513
805.0864	-0.0256
805.2564	-0.0152
805.4264	-0.0003
805.5965	0.0184
805.7665	-0.0311
805.9364	0.0631
806.1064	-0.0094
806.2763	0.0027
806.4462	-0.0147
806.6161	0.026
806.786	0.0151
806.9559	0.0321
807.1257	0.039
807.2955	0.0043
807.4653	0.0119
807.6351	0.0613
807.8048	0.0221
807.9746	0.028
808.1443	-0.0653
808.314	0.0057
808.4837	0.0402
808.6533	-0.0839
808.8229	0.021
808.9926	0.0235
809.1622	-0.0118
809.3317	-0.0286
809.5013	-0.0286
809.6708	-0.0213
809.8403	0.0774
810.0098	-0.0091
810.1793	0.0017
810.3488	-0.0372
810.5182	0.09
810.6876	0.0553
810.857	0.1545
811.0264	0.0098
811.1958	0.0953
811.3651	-0.0429
811.5344	0.0448
811.7037	-0.0208
811.873	0.053
812.0422	-0.0396
812.2115	-0.0318
812.3807	-0.0777
812.5499	-0.0376
812.7191	-0.0588
812.8882	-0.0365
813.0574	0.0521
813.2265	-0.0005
813.3956	0.0434
813.5646	-0.0393
813.7337	0.0069
813.9027	-0.0451
814.0718	0.004
814.2407	0.0984
814.4097	-0.0043
814.5787	0.094
814.7476	0.0176
814.9165	0.0013
815.0854	-0.0278
815.2543	-0.0096
815.4232	0.0823
815.592	0.0418
815.7608	-0.1551
815.9296	0.0789
816.0984	0.0636
816.2671	-0.2528
816.4359	0.0591
816.6046	0.0213
816.7733	-0.0956
816.942	-0.0602
817.1106	0.0304
817.2793	-0.0174
817.4479	-0.0074
817.6165	0.0727
817.785	0.1064
817.9536	-0.0572
818.1221	-0.0635
818.2906	-0.1373
818.4591	0.0178
818.6276	0.0379
818.7961	-0.1168
818.9645	0.161
819.1329	0.0872
819.3013	0.0059
819.4697	-0.0848
819.638	0.1231
819.8064	-0.05
819.9747	-0.0166
820.143	-0.0124
820.3113	-0.0098
820.4795	-0.0369
820.6477	0.1119
820.816	0.011
820.9842	0.1173
821.1523	-0.0687
821.3205	0.0333
821.4886	0.0781
821.6567	-0.132
821.8248	0.1777
821.9929	-0.1935
822.1609	-0.0771
822.329	0.1026
822.497	0.0893
822.665	0.0544
822.833	0.0265
823.0009	0.0636
823.1688	0.0391
823.3367	-0.0812
823.5046	0.1509
823.6725	0.023
823.8404	0.1073
824.0082	-0.0596
824.176	0.0093
824.3438	0.0028
824.5116	-0.0739
824.6793	0.0932
824.847	-0.113
825.0147	0.204
825.1824	-0.0073
825.3501	0.3381
825.5177	-0.0109
825.6854	-0.1689
825.853	0.059
826.0206	-0.146
826.1881	0.1198
826.3557	0.1306
826.5232	0.1709
826.6907	0.0067
826.8582	0.1051
827.0257	0.2374
827.1931	-0.0086
827.3605	-0.0119
827.528	0.0259
827.6953	-0.1807
827.8627	-0.0006
828.03	0.07
828.1974	-0.0909
828.3647	0.0893
828.532	-0.0925
828.6992	-0.0061
828.8665	-0.2588
829.0337	-0.0762
829.2009	0.1474
829.3681	-0.0252
829.5352	-0.2105
829.7024	0.065
829.8695	-0.054
830.0366	0.1489
830.2037	0.1159
830.3707	0.1668
830.5378	0.165
830.7048	-0.0923
830.8718	0.0795
831.0388	-0.1366
831.2057	-0.258
831.3727	-0.0307
831.5396	-0.0197
831.7065	-0.8505
831.8734	0.2542
832.0402	0.1791
832.2071	-0.6241
832.3739	-0.194
832.5407	-0.9938
832.7075	-0.0942
832.8742	0.4879
833.041	0.0349
833.2077	-0.0068
833.3744	0.2814
833.541	0.0695
833.7077	-0.1979
833.8743	0.0975
834.0409	0.2685
834.2075	0.0344
834.3741	-0.1068
834.5407	0.1076
834.7072	-0.0164
834.8737	0.4673
835.0402	0.1847
835.2067	0.2758
835.3731	-0.1497
835.5395	-0.0151
835.706	-0.1543
835.8723	0.0232
836.0387	0.0735
836.2051	-0.0686
836.3714	0.1724
836.5377	0.7481
836.704	-0.0053
836.8703	0.0063
837.0365	-0
837.2027	0.3097
837.3689	0.0094
837.5351	0.3857
837.7013	0.0187
837.8674	-0.4113
838.0335	-0.0161
838.1997	-0.2226
838.3657	-0
838.5318	-0.6141
838.6978	-0
838.8639	-0.4848
839.0299	0.0057
839.1958	0.279
839.3618	0.4075
839.5277	0.0118
839.6937	-0.0221
839.8596	-0.0424
840.0254	-0.0638
840.1913	-0.4138
840.3571	0.1807
840.523	-0
840.6888	-0.0945
840.8545	-0.5901
841.0203	0.1977
841.186	0.1268
841.3517	-0.2944
841.5174	-0.0361
841.6831	-0.0325
841.8488	0.1592
842.0144	-0
842.18	0.4383
842.3456	-0
842.5112	-0
842.6767	-0.0854
842.8422	0.111
843.0077	-0.0929
843.1732	-0.3563
843.3387	-0.1378
843.5042	-0.2434
843.6696	-0.2901
843.835	-0.1834
844.0004	-0.0405
844.1657	-0
844.3311	-0.1643
844.4964	-0.2351
844.6617	0.1147
844.827	-0
844.9923	0.1907
845.1575	-0.2461
845.3227	-0.1537
845.4879	-0.3148
845.6531	0.2839
845.8183	1.0008
845.9834	-0.2951
846.1485	0.312
846.3136	-0.1304
846.4787	-0
846.6438	0.0395
846.8088	0.5693
846.9738	-0
847.1388	0.2902
847.3038	1.0298
847.4687	0.6135
847.6337	-0.773
847.7986	0.0919
847.9635	0.0931
848.1284	1.3501
848.2932	0.2297
848.458	-0
848.6228	0.0898
848.7876	-0
848.9524	-0.0358
849.1172	-0
849.2819	-0
849.4466	0.1668
849.6113	-0.1387
849.7759	-0
849.9406	-0.2888
850.1052	-1.3414
850.2698	-0
850.4344	-0.7611
850.599	-0.0158
850.7635	0.1271
850.928	0.3555
851.0925	0.2967
851.257	1.0737
851.4215	0.2882
851.5859	0.1085
851.7503	-0
851.9147	0.3346
852.0791	0.0939
852.2434	0.5278
852.4078	-0
852.5721	-0
852.7364	0.1311
852.9007	-0.0509
853.0649	-0
853.2291	0.0581
853.3934	-0
853.5575	-0.2986
853.7217	-0
853.8859	0.1353
854.05	-0.4853
854.2141	0.1243
854.3782	-0.28
854.5423	1.0021
854.7063	0.0476
854.8703	-0.0955
855.0343	-0.2292
855.1983	-0.016
855.3623	-0.2053
855.5262	-0
855.6901	0.2239
855.854	0.0904
856.0179	0.3023
856.1818	-0.0016
856.3456	0.4208
856.5094	-0.4599
856.6732	-0.4771
856.837	-0
857.0008	-0.2636
857.1645	0.0679
857.3282	-0.2794
857.4919	-0.0013
857.6556	-0.0924
857.8192	-0.2932
857.9828	-0.2571
858.1465	-0.0391
858.31	-0
858.4736	-0.7764
858.6372	-0.341
858.8007	0.1819
858.9642	0.0107
859.1277	0.9654
859.2911	-0.4677
859.4546	-0
859.618	0.6235
859.7814	-0.2067
859.9448	0.1883
860.1081	-0
860.2715	-0
860.4348	0.2306
860.5981	0.1758
860.7614	0.2345
860.9246	-0.0732
861.0879	0.0986
861.2511	-0
861.4143	-0.8798
861.5774	-0.068
861.7406	-0.0033
861.9037	-0
862.0668	-0
862.2299	-0
862.393	-0
862.556	-0
862.7191	-0.6186
862.8821	0.0741
863.0451	0.0872
863.208	0.4231
863.371	-0.2636
863.5339	0.4136
863.6968	-0
863.8597	-0
864.0225	-0.1882
864.1854	-0
864.3482	-0
864.511	0.1477
864.6737	-0
864.8365	-0.081
864.9992	-0
865.1619	-0.4953
865.3246	-1.1004
865.4873	-0
865.65	1.1582
865.8126	0.524
865.9752	-0.1626
866.1378	0.0899
866.3004	-0.154
866.4629	-1.7993
866.6254	-0.6901
866.7879	-0
866.9504	-0
867.1129	0.0256
867.2753	0.1867
867.4377	-0.3997
867.6001	-0
867.7625	-0.2819
867.9249	-0.1048
868.0872	-0.0972
868.2495	0.124
868.4118	-0
868.5741	-0.3155
868.7363	-0
868.8986	-0.7007
869.0608	0.0356
869.223	-0.3822
869.3851	-0
869.5473	0.8147
869.7094	-0
869.8715	-0.2054
870.0336	0.0101
870.1957	-0
870.3577	0.5209
870.5197	-0
870.6817	-1.0493
870.8437	-0
871.0057	-0
871.1676	0.0041
871.3295	-0.2943
871.4914	-0
871.6533	0.1169
871.8151	0.333
871.977	-0.3091
872.1388	-0.339
872.3006	0.2705
872.4623	-0.213
872.6241	0.7682
872.7858	0.2363
872.9475	-0
873.1092	-0.0319
873.2709	0.3301
873.4325	-1.6277
873.5941	-0
873.7557	-0
873.9173	-0.0024
874.0789	-0.0086
874.2404	-0.4097
874.4019	-0.2003
874.5634	-0
874.7249	-0
874.8863	0.1528
875.0478	0.0252
875.2092	0.311
875.3706	0.9824
875.5319	-0
875.6933	0.9115
875.8546	-0.4671
876.0159	0.5554
876.1772	0.5422
876.3385	-0
876.4997	-0
876.6609	-0
876.8221	-0
876.9833	-0.0848
877.1445	0.3053
877.3056	-0
877.4667	-0
877.6278	-0
877.7889	-0.2171
877.9499	0.3442
878.111	-0.4869
878.272	-0
878.433	-0
878.5939	-0.1626
878.7549	-0
878.9158	0.7024
879.0767	0.3184
879.2376	0.3401
879.3984	0.599
879.5593	0.3627
879.7201	-1.8945
879.8809	0.0224
880.0417	-0.2824
880.2024	0.2188
880.3632	0.3871
880.5239	-0.2545
880.6846	-0.2904
880.8452	-0.0353
881.0059	-0
881.1665	0.0654
881.3271	-0
881.4877	0.2521
881.6483	-0.9369
881.8088	-0
881.9693	-0.3606
882.1298	-0.3606
882.2903	-0.3606
