Data from D4ACN5uM440nmA_Absorbance_13-50-26-243.txt Node
Date: Fri Feb 21 13:50:26 GMT 2025
User: LASERRRRR
Spectrometer: FLMT03099
Trigger mode: 0
Integration Time (sec): 1.500000E-2
Scans to average: 1
Electric dark correction enabled: true
Nonlinearity correction enabled: false
Boxcar width: 0
XAxis mode: Wavelengths
Number of Pixels in Spectrum: 3648
>>>>>Begin Spectral Data<<<<<
179.3399	-0.6537
179.5586	-0.6537
179.7771	-0.6537
179.9957	-0.0962
180.2143	-0
180.4329	0.1868
180.6514	-0
180.8699	0.6406
181.0885	-0
181.307	0.1848
181.5255	-0.0216
181.744	-0
181.9625	-0
182.181	-0
182.3994	-0.4403
182.6179	-0.3847
182.8363	-0
183.0547	-0.1382
183.2732	-0.0936
183.4916	0.3082
183.71	0.0534
183.9284	0.1674
184.1467	0.0024
184.3651	-0.0657
184.5835	0.1012
184.8018	0.2423
185.0201	0.0886
185.2385	0.3747
185.4568	0.2164
185.6751	0.096
185.8934	0.3092
186.1117	-0.1001
186.3299	0.4457
186.5482	0.1524
186.7664	0.4224
186.9847	0.3261
187.2029	0.3194
187.4211	0.0278
187.6393	0.0379
187.8575	0.1213
188.0757	0.2315
188.2939	0.0464
188.512	0.1627
188.7302	0.2206
188.9483	0.6106
189.1665	0.3579
189.3846	0.1103
189.6027	0.1624
189.8208	0.1658
190.0389	0.3017
190.257	-0.005
190.475	0.0916
190.6931	-0.0508
190.9111	0.07
191.1292	0.1282
191.3472	0.0782
191.5652	0.1387
191.7832	0.0905
192.0012	0.1425
192.2192	0.156
192.4371	0.1874
192.6551	0.2537
192.873	0.2374
193.091	0.2518
193.3089	0.1567
193.5268	0.2675
193.7447	0.1002
193.9626	0.2204
194.1805	0.269
194.3984	0.1759
194.6162	0.2498
194.8341	0.2705
195.0519	0.17
195.2697	0.2958
195.4875	0.2931
195.7054	0.2483
195.9231	0.1792
196.1409	0.3418
196.3587	0.421
196.5765	0.2894
196.7942	0.3104
197.012	0.3552
197.2297	0.3052
197.4474	0.3964
197.6651	0.3525
197.8828	0.2642
198.1005	0.4115
198.3182	0.426
198.5358	0.4004
198.7535	0.421
198.9711	0.3992
199.1888	0.3472
199.4064	0.3718
199.624	0.4047
199.8416	0.3517
200.0592	0.3931
200.2767	0.3915
200.4943	0.4293
200.7119	0.406
200.9294	0.4386
201.1469	0.4169
201.3645	0.4516
201.582	0.3822
201.7995	0.3982
202.017	0.437
202.2344	0.3868
202.4519	0.3684
202.6694	0.3856
202.8868	0.3858
203.1042	0.4216
203.3217	0.3812
203.5391	0.377
203.7565	0.3687
203.9739	0.3612
204.1913	0.3652
204.4086	0.3614
204.626	0.3782
204.8433	0.3371
205.0607	0.3565
205.278	0.324
205.4953	0.3079
205.7126	0.3495
205.9299	0.311
206.1472	0.3101
206.3644	0.3512
206.5817	0.2929
206.7989	0.3185
207.0162	0.3064
207.2334	0.3395
207.4506	0.3334
207.6678	0.3111
207.885	0.2872
208.1022	0.3169
208.3194	0.2848
208.5365	0.3089
208.7537	0.2935
208.9708	0.311
209.1879	0.2932
209.405	0.2958
209.6222	0.2754
209.8392	0.2732
210.0563	0.292
210.2734	0.2591
210.4905	0.2571
210.7075	0.2688
210.9245	0.2722
211.1416	0.2548
211.3586	0.2642
211.5756	0.2472
211.7926	0.2565
212.0096	0.2815
212.2265	0.2507
212.4435	0.2619
212.6604	0.2531
212.8774	0.2517
213.0943	0.2606
213.3112	0.2461
213.5281	0.232
213.745	0.2384
213.9619	0.2412
214.1788	0.2458
214.3956	0.2484
214.6125	0.2459
214.8293	0.2416
215.0461	0.2484
215.2629	0.2467
215.4798	0.2631
215.6965	0.2513
215.9133	0.2384
216.1301	0.2377
216.3469	0.2539
216.5636	0.2547
216.7803	0.2561
216.9971	0.2409
217.2138	0.2455
217.4305	0.2541
217.6472	0.2652
217.8639	0.2484
218.0805	0.2429
218.2972	0.2499
218.5138	0.2685
218.7305	0.2512
218.9471	0.2491
219.1637	0.2724
219.3803	0.2614
219.5969	0.258
219.8135	0.2552
220.0301	0.2448
220.2466	0.2615
220.4632	0.2409
220.6797	0.247
220.8962	0.2551
221.1127	0.2533
221.3292	0.2682
221.5457	0.2766
221.7622	0.2583
221.9787	0.2779
222.1951	0.2649
222.4116	0.2659
222.628	0.2793
222.8444	0.267
223.0608	0.2667
223.2772	0.2821
223.4936	0.2819
223.71	0.274
223.9264	0.2808
224.1427	0.2867
224.3591	0.2838
224.5754	0.2802
224.7917	0.288
225.008	0.2852
225.2243	0.3043
225.4406	0.2873
225.6569	0.3045
225.8732	0.3039
226.0894	0.301
226.3057	0.3043
226.5219	0.3056
226.7381	0.3177
226.9543	0.3143
227.1705	0.3101
227.3867	0.3183
227.6029	0.3274
227.8191	0.3314
228.0352	0.3401
228.2513	0.3287
228.4675	0.3382
228.6836	0.3345
228.8997	0.3378
229.1158	0.3611
229.3319	0.3476
229.548	0.3539
229.764	0.355
229.9801	0.3821
230.1961	0.3675
230.4121	0.3712
230.6282	0.3751
230.8442	0.3808
231.0602	0.377
231.2761	0.3891
231.4921	0.3966
231.7081	0.3867
231.924	0.3992
232.14	0.402
232.3559	0.4018
232.5718	0.4075
232.7877	0.4145
233.0036	0.4032
233.2195	0.4068
233.4353	0.4126
233.6512	0.4212
233.867	0.4213
234.0829	0.4203
234.2987	0.4249
234.5145	0.4323
234.7303	0.4371
234.9461	0.4425
235.1619	0.4423
235.3776	0.4338
235.5934	0.436
235.8091	0.4465
236.0249	0.4408
236.2406	0.4386
236.4563	0.437
236.672	0.4416
236.8877	0.4543
237.1034	0.4429
237.319	0.4423
237.5347	0.4445
237.7503	0.4568
237.966	0.4542
238.1816	0.4416
238.3972	0.4563
238.6128	0.4686
238.8284	0.4664
239.0439	0.4569
239.2595	0.4686
239.475	0.4581
239.6906	0.461
239.9061	0.4506
240.1216	0.4458
240.3371	0.4556
240.5526	0.4554
240.7681	0.4611
240.9836	0.4611
241.199	0.4526
241.4145	0.4492
241.6299	0.453
241.8453	0.4489
242.0607	0.4404
242.2761	0.4383
242.4915	0.4272
242.7069	0.426
242.9223	0.4237
243.1376	0.4162
243.353	0.4045
243.5683	0.399
243.7836	0.3923
243.9989	0.3851
244.2142	0.3785
244.4295	0.3743
244.6448	0.3648
244.86	0.3605
245.0753	0.3468
245.2905	0.3496
245.5057	0.3455
245.721	0.3362
245.9362	0.3324
246.1514	0.3304
246.3665	0.3151
246.5817	0.3057
246.7969	0.2965
247.012	0.2998
247.2271	0.2933
247.4423	0.2789
247.6574	0.2805
247.8725	0.273
248.0876	0.2642
248.3026	0.2694
248.5177	0.2669
248.7328	0.2494
248.9478	0.2505
249.1628	0.2539
249.3779	0.238
249.5929	0.239
249.8079	0.2333
250.0228	0.2301
250.2378	0.2289
250.4528	0.2309
250.6677	0.2254
250.8827	0.2173
251.0976	0.214
251.3125	0.2161
251.5274	0.2104
251.7423	0.2121
251.9572	0.2114
252.172	0.2128
252.3869	0.2099
252.6017	0.2081
252.8166	0.1989
253.0314	0.1996
253.2462	0.1955
253.461	0.1941
253.6758	0.1987
253.8906	0.1969
254.1053	0.1955
254.3201	0.1922
254.5348	0.179
254.7496	0.1899
254.9643	0.1897
255.179	0.1906
255.3937	0.1896
255.6083	0.1983
255.823	0.1896
256.0377	0.1788
256.2523	0.1795
256.467	0.1861
256.6816	0.1838
256.8962	0.1825
257.1108	0.187
257.3254	0.1816
257.54	0.1741
257.7545	0.1817
257.9691	0.1826
258.1836	0.1782
258.3981	0.1791
258.6127	0.1781
258.8272	0.1849
259.0417	0.1692
259.2561	0.1762
259.4706	0.1795
259.6851	0.1736
259.8995	0.1752
260.114	0.177
260.3284	0.1776
260.5428	0.1746
260.7572	0.1783
260.9716	0.184
261.186	0.174
261.4003	0.174
261.6147	0.1714
261.829	0.1783
262.0433	0.1773
262.2577	0.1798
262.472	0.177
262.6863	0.1833
262.9005	0.1691
263.1148	0.179
263.3291	0.1842
263.5433	0.1829
263.7576	0.1825
263.9718	0.1791
264.186	0.1855
264.4002	0.184
264.6144	0.1934
264.8286	0.1839
265.0427	0.188
265.2569	0.1756
265.471	0.1872
265.6851	0.1825
265.8993	0.1827
266.1134	0.1822
266.3275	0.1805
266.5415	0.1868
266.7556	0.1902
266.9697	0.1848
267.1837	0.188
267.3978	0.1848
267.6118	0.1829
267.8258	0.1896
268.0398	0.1875
268.2538	0.1862
268.4677	0.1812
268.6817	0.1829
268.8957	0.1777
269.1096	0.1785
269.3235	0.1807
269.5374	0.1822
269.7514	0.1809
269.9652	0.1801
270.1791	0.1813
270.393	0.1804
270.6068	0.1786
270.8207	0.1739
271.0345	0.1782
271.2483	0.1703
271.4622	0.1777
271.676	0.1739
271.8897	0.1788
272.1035	0.1816
272.3173	0.1749
272.531	0.1797
272.7448	0.1713
272.9585	0.1725
273.1722	0.1765
273.3859	0.1781
273.5996	0.1832
273.8133	0.1799
274.0269	0.18
274.2406	0.1816
274.4542	0.1781
274.6679	0.1899
274.8815	0.1883
275.0951	0.1884
275.3087	0.1884
275.5223	0.1805
275.7358	0.186
275.9494	0.1878
276.1629	0.1959
276.3765	0.1833
276.59	0.1819
276.8035	0.1852
277.017	0.1927
277.2305	0.1921
277.444	0.1924
277.6574	0.196
277.8709	0.1996
278.0843	0.1983
278.2978	0.1941
278.5112	0.1956
278.7246	0.1916
278.938	0.1878
279.1513	0.1939
279.3647	0.1881
279.5781	0.1899
279.7914	0.191
280.0047	0.189
280.2181	0.1808
280.4314	0.1874
280.6447	0.1966
280.8579	0.1816
281.0712	0.1883
281.2845	0.1845
281.4977	0.184
281.711	0.1812
281.9242	0.1903
282.1374	0.183
282.3506	0.1844
282.5638	0.1811
282.7769	0.1816
282.9901	0.1836
283.2033	0.1869
283.4164	0.1847
283.6295	0.1829
283.8426	0.187
284.0557	0.1909
284.2688	0.1895
284.4819	0.1829
284.695	0.1898
284.908	0.1854
285.1211	0.1855
285.3341	0.18
285.5471	0.1889
285.7601	0.189
285.9731	0.1821
286.1861	0.1878
286.3991	0.1947
286.612	0.1904
286.825	0.1888
287.0379	0.1875
287.2508	0.1853
287.4637	0.1856
287.6766	0.1864
287.8895	0.1892
288.1024	0.1903
288.3152	0.1873
288.5281	0.1797
288.7409	0.1901
288.9538	0.1906
289.1666	0.1846
289.3794	0.1819
289.5922	0.1798
289.8049	0.182
290.0177	0.1859
290.2304	0.1882
290.4432	0.1888
290.6559	0.1888
290.8686	0.192
291.0813	0.1856
291.294	0.1885
291.5067	0.1825
291.7194	0.1803
291.932	0.1788
292.1447	0.1891
292.3573	0.187
292.5699	0.1863
292.7825	0.1842
292.9951	0.1899
293.2077	0.188
293.4203	0.1885
293.6328	0.183
293.8454	0.1874
294.0579	0.1856
294.2704	0.1893
294.4829	0.1842
294.6954	0.1871
294.9079	0.1851
295.1204	0.1887
295.3328	0.1935
295.5453	0.1881
295.7577	0.1898
295.9701	0.1858
296.1825	0.1938
296.3949	0.1837
296.6073	0.1835
296.8197	0.1854
297.0321	0.1853
297.2444	0.1834
297.4567	0.1894
297.6691	0.1886
297.8814	0.1873
298.0937	0.187
298.306	0.1843
298.5182	0.1904
298.7305	0.1865
298.9428	0.1866
299.155	0.1806
299.3672	0.185
299.5794	0.1903
299.7916	0.1866
300.0038	0.1865
300.216	0.1914
300.4282	0.1867
300.6403	0.1898
300.8525	0.1852
301.0646	0.1867
301.2767	0.1855
301.4888	0.1885
301.7009	0.1838
301.913	0.1855
302.125	0.1893
302.3371	0.184
302.5491	0.1894
302.7612	0.1974
302.9732	0.1938
303.1852	0.1914
303.3972	0.1816
303.6092	0.19
303.8211	0.1882
304.0331	0.1863
304.245	0.1859
304.457	0.1859
304.6689	0.1886
304.8808	0.1797
305.0927	0.1814
305.3046	0.186
305.5164	0.1786
305.7283	0.1813
305.9401	0.1702
306.152	0.1722
306.3638	0.1758
306.5756	0.1849
306.7874	0.1706
306.9992	0.1747
307.2109	0.1738
307.4227	0.1721
307.6344	0.1726
307.8462	0.1661
308.0579	0.1662
308.2696	0.1693
308.4813	0.1643
308.693	0.1605
308.9046	0.1638
309.1163	0.1552
309.328	0.1633
309.5396	0.1516
309.7512	0.1599
309.9628	0.1551
310.1744	0.1492
310.386	0.1503
310.5976	0.1476
310.8091	0.1488
311.0207	0.1489
311.2322	0.1494
311.4437	0.1423
311.6552	0.1484
311.8667	0.1505
312.0782	0.1454
312.2897	0.145
312.5012	0.1431
312.7126	0.1368
312.924	0.1435
313.1355	0.1381
313.3469	0.1376
313.5583	0.1359
313.7696	0.1341
313.981	0.1435
314.1924	0.1362
314.4037	0.1362
314.6151	0.1347
314.8264	0.1428
315.0377	0.1391
315.249	0.135
315.4603	0.1301
315.6716	0.1328
315.8828	0.1315
316.0941	0.1316
316.3053	0.1305
316.5165	0.1343
316.7277	0.1211
316.9389	0.1357
317.1501	0.1323
317.3613	0.133
317.5724	0.1296
317.7836	0.1255
317.9947	0.1246
318.2058	0.1328
318.417	0.127
318.6281	0.1265
318.8391	0.1323
319.0502	0.1314
319.2613	0.1272
319.4723	0.1272
319.6834	0.1328
319.8944	0.1297
320.1054	0.1297
320.3164	0.1264
320.5274	0.13
320.7383	0.1301
320.9493	0.1313
321.1602	0.132
321.3712	0.1299
321.5821	0.1256
321.793	0.1337
322.0039	0.1261
322.2148	0.1324
322.4257	0.1278
322.6365	0.1258
322.8474	0.1317
323.0582	0.1403
323.269	0.1303
323.4798	0.1324
323.6906	0.13
323.9014	0.1281
324.1122	0.1294
324.3229	0.137
324.5337	0.1305
324.7444	0.1359
324.9551	0.1307
325.1658	0.1286
325.3765	0.1326
325.5872	0.1335
325.7979	0.1337
326.0085	0.1289
326.2192	0.1299
326.4298	0.1348
326.6404	0.1337
326.851	0.1285
327.0616	0.1322
327.2722	0.1352
327.4828	0.1385
327.6933	0.1387
327.9039	0.1381
328.1144	0.1365
328.3249	0.1385
328.5354	0.1384
328.7459	0.1381
328.9564	0.1356
329.1669	0.1448
329.3773	0.1352
329.5878	0.1412
329.7982	0.141
330.0086	0.1464
330.219	0.1395
330.4294	0.1396
330.6398	0.1443
330.8502	0.1463
331.0605	0.1385
331.2708	0.1416
331.4812	0.1421
331.6915	0.1426
331.9018	0.1421
332.1121	0.1463
332.3224	0.1447
332.5326	0.1403
332.7429	0.1398
332.9531	0.1466
333.1633	0.1465
333.3735	0.1355
333.5837	0.1458
333.7939	0.1427
334.0041	0.1486
334.2143	0.1392
334.4244	0.1537
334.6346	0.1438
334.8447	0.1345
335.0548	0.146
335.2649	0.1524
335.475	0.1438
335.685	0.1442
335.8951	0.1404
336.1051	0.1474
336.3152	0.1487
336.5252	0.1407
336.7352	0.1431
336.9452	0.1437
337.1552	0.1517
337.3652	0.1386
337.5751	0.1411
337.7851	0.1436
337.995	0.1509
338.2049	0.14
338.4148	0.1479
338.6247	0.1543
338.8346	0.1451
339.0445	0.1423
339.2543	0.1391
339.4642	0.1456
339.674	0.1404
339.8838	0.1473
340.0936	0.149
340.3034	0.1456
340.5132	0.143
340.7229	0.1449
340.9327	0.1564
341.1424	0.1512
341.3522	0.1409
341.5619	0.15
341.7716	0.153
341.9813	0.1509
342.1909	0.1582
342.4006	0.1488
342.6102	0.1505
342.8199	0.152
343.0295	0.1463
343.2391	0.152
343.4487	0.1586
343.6583	0.1618
343.8679	0.1569
344.0774	0.1508
344.287	0.1621
344.4965	0.1603
344.706	0.162
344.9155	0.1583
345.125	0.1612
345.3345	0.17
345.544	0.1627
345.7534	0.1645
345.9629	0.1618
346.1723	0.1655
346.3817	0.1677
346.5911	0.172
346.8005	0.1666
347.0099	0.1662
347.2193	0.1744
347.4286	0.178
347.638	0.1671
347.8473	0.1766
348.0566	0.1715
348.2659	0.1794
348.4752	0.1727
348.6845	0.1725
348.8937	0.1809
349.103	0.1825
349.3122	0.1801
349.5214	0.1815
349.7306	0.187
349.9398	0.1731
350.149	0.1728
350.3582	0.1838
350.5674	0.1764
350.7765	0.1807
350.9856	0.1822
351.1948	0.1806
351.4039	0.1803
351.613	0.1736
351.822	0.1824
352.0311	0.183
352.2402	0.1804
352.4492	0.1851
352.6582	0.1832
352.8672	0.1832
353.0762	0.185
353.2852	0.1847
353.4942	0.1882
353.7032	0.185
353.9121	0.1742
354.1211	0.1909
354.33	0.1914
354.5389	0.1823
354.7478	0.1822
354.9567	0.1902
355.1655	0.1786
355.3744	0.1836
355.5833	0.1892
355.7921	0.1861
356.0009	0.1873
356.2097	0.1744
356.4185	0.1863
356.6273	0.1873
356.8361	0.1867
357.0448	0.1826
357.2536	0.1824
357.4623	0.1902
357.671	0.1873
357.8797	0.1859
358.0884	0.1922
358.2971	0.1881
358.5057	0.1932
358.7144	0.1887
358.923	0.1895
359.1316	0.1974
359.3402	0.1884
359.5488	0.1933
359.7574	0.1967
359.966	0.201
360.1746	0.1923
360.3831	0.1987
360.5916	0.1979
360.8002	0.204
361.0087	0.2022
361.2172	0.2009
361.4256	0.1998
361.6341	0.2058
361.8426	0.2041
362.051	0.2052
362.2594	0.2027
362.4678	0.2077
362.6762	0.2078
362.8846	0.205
363.093	0.2025
363.3014	0.2142
363.5097	0.2071
363.718	0.2135
363.9264	0.2115
364.1347	0.2138
364.343	0.2146
364.5513	0.2149
364.7595	0.2188
364.9678	0.2105
365.176	0.2147
365.3842	0.2212
365.5925	0.2188
365.8007	0.2216
366.0089	0.2257
366.217	0.2248
366.4252	0.2254
366.6333	0.2288
366.8415	0.2233
367.0496	0.2234
367.2577	0.2263
367.4658	0.2162
367.6739	0.2199
367.882	0.2274
368.09	0.2235
368.2981	0.2266
368.5061	0.2276
368.7141	0.2282
368.9221	0.2389
369.1301	0.2337
369.3381	0.2394
369.5461	0.2343
369.754	0.2349
369.962	0.2258
370.1699	0.2483
370.3778	0.241
370.5857	0.2416
370.7936	0.2347
371.0015	0.2412
371.2093	0.2457
371.4172	0.2424
371.625	0.2378
371.8328	0.2347
372.0406	0.2519
372.2484	0.2343
372.4562	0.2419
372.664	0.2473
372.8717	0.2466
373.0795	0.2501
373.2872	0.246
373.4949	0.2493
373.7026	0.2358
373.9103	0.2335
374.118	0.2511
374.3256	0.256
374.5333	0.2559
374.7409	0.2567
374.9485	0.246
375.1561	0.2534
375.3637	0.2473
375.5713	0.2616
375.7789	0.2551
375.9864	0.2521
376.194	0.2589
376.4015	0.2582
376.609	0.2573
376.8165	0.2652
377.024	0.2556
377.2315	0.2619
377.4389	0.2496
377.6464	0.2554
377.8538	0.2667
378.0612	0.2641
378.2686	0.2683
378.476	0.2713
378.6834	0.2671
378.8908	0.2594
379.0981	0.2614
379.3055	0.2681
379.5128	0.2671
379.7201	0.27
379.9274	0.2743
380.1347	0.2635
380.342	0.2726
380.5492	0.2689
380.7565	0.2719
380.9637	0.2797
381.1709	0.2712
381.3781	0.2783
381.5853	0.278
381.7925	0.2687
381.9997	0.2769
382.2068	0.2704
382.4139	0.2754
382.6211	0.2756
382.8282	0.2803
383.0353	0.2817
383.2424	0.2719
383.4494	0.2764
383.6565	0.2773
383.8635	0.2709
384.0706	0.2863
384.2776	0.2827
384.4846	0.2813
384.6916	0.2738
384.8986	0.2741
385.1055	0.2958
385.3125	0.2787
385.5194	0.2804
385.7263	0.2843
385.9333	0.286
386.1402	0.2853
386.347	0.2722
386.5539	0.287
386.7608	0.2787
386.9676	0.2734
387.1744	0.284
387.3813	0.2767
387.5881	0.272
387.7948	0.2796
388.0016	0.2859
388.2084	0.2752
388.4151	0.2779
388.6219	0.287
388.8286	0.2886
389.0353	0.2812
389.242	0.2807
389.4487	0.275
389.6553	0.2719
389.862	0.2619
390.0686	0.2861
390.2753	0.2856
390.4819	0.2676
390.6885	0.2765
390.8951	0.2688
391.1016	0.2692
391.3082	0.2641
391.5147	0.268
391.7213	0.2628
391.9278	0.2595
392.1343	0.2698
392.3408	0.2673
392.5473	0.256
392.7537	0.2565
392.9602	0.2633
393.1666	0.265
393.373	0.2568
393.5794	0.2622
393.7858	0.2722
393.9922	0.2539
394.1986	0.2504
394.4049	0.254
394.6113	0.2489
394.8176	0.2585
395.0239	0.2534
395.2302	0.2502
395.4365	0.2514
395.6428	0.2463
395.8491	0.2512
396.0553	0.2507
396.2615	0.242
396.4678	0.253
396.674	0.2455
396.8802	0.2491
397.0863	0.243
397.2925	0.2438
397.4987	0.2353
397.7048	0.2532
397.9109	0.2328
398.117	0.2431
398.3231	0.2388
398.5292	0.2333
398.7353	0.2315
398.9413	0.2425
399.1474	0.2424
399.3534	0.2395
399.5594	0.2455
399.7654	0.2334
399.9714	0.2397
400.1774	0.2339
400.3833	0.24
400.5893	0.2265
400.7952	0.2407
401.0011	0.2295
401.207	0.2341
401.4129	0.2349
401.6188	0.2392
401.8247	0.2376
402.0305	0.2307
402.2364	0.2386
402.4422	0.2361
402.648	0.2306
402.8538	0.2288
403.0596	0.2276
403.2654	0.2312
403.4711	0.2398
403.6768	0.2246
403.8826	0.2415
404.0883	0.2426
404.294	0.2345
404.4997	0.2306
404.7054	0.2489
404.911	0.2354
405.1167	0.232
405.3223	0.2288
405.5279	0.2364
405.7335	0.2352
405.9391	0.2335
406.1447	0.2402
406.3502	0.2267
406.5558	0.2362
406.7613	0.2303
406.9668	0.2276
407.1724	0.2258
407.3778	0.2339
407.5833	0.2303
407.7888	0.2275
407.9942	0.2353
408.1997	0.237
408.4051	0.2363
408.6105	0.2274
408.8159	0.231
409.0213	0.2404
409.2267	0.2426
409.432	0.2362
409.6374	0.2332
409.8427	0.2356
410.048	0.2341
410.2533	0.2335
410.4586	0.2305
410.6639	0.2415
410.8691	0.2278
411.0744	0.2304
411.2796	0.2338
411.4848	0.2419
411.69	0.2335
411.8952	0.2311
412.1004	0.2311
412.3056	0.2177
412.5107	0.2407
412.7158	0.2437
412.921	0.2325
413.1261	0.225
413.3312	0.2271
413.5362	0.2415
413.7413	0.232
413.9464	0.2218
414.1514	0.2323
414.3564	0.2264
414.5614	0.2385
414.7664	0.2323
414.9714	0.2207
415.1764	0.2286
415.3813	0.2333
415.5863	0.2366
415.7912	0.2207
415.9961	0.2243
416.201	0.2349
416.4059	0.2251
416.6108	0.2182
416.8156	0.2193
417.0205	0.234
417.2253	0.2269
417.4301	0.2316
417.6349	0.229
417.8397	0.2209
418.0445	0.2311
418.2492	0.2243
418.454	0.2269
418.6587	0.2292
418.8634	0.2209
419.0681	0.2279
419.2728	0.2264
419.4775	0.2363
419.6822	0.2233
419.8868	0.225
420.0915	0.2165
420.2961	0.2107
420.5007	0.2252
420.7053	0.2145
420.9099	0.2247
421.1144	0.2168
421.319	0.2104
421.5235	0.2102
421.728	0.2268
421.9325	0.2112
422.137	0.2082
422.3415	0.2001
422.546	0.216
422.7504	0.2067
422.9549	0.22
423.1593	0.2019
423.3637	0.215
423.5681	0.2126
423.7725	0.219
423.9769	0.203
424.1812	0.2116
424.3856	0.2093
424.5899	0.2059
424.7942	0.2016
424.9985	0.2035
425.2028	0.2015
425.4071	0.1962
425.6113	0.2152
425.8156	0.1995
426.0198	0.202
426.224	0.1992
426.4282	0.1872
426.6324	0.1909
426.8366	0.1974
427.0407	0.198
427.2449	0.1917
427.449	0.1953
427.6531	0.204
427.8572	0.1826
428.0613	0.1921
428.2654	0.1898
428.4694	0.1795
428.6735	0.183
428.8775	0.1812
429.0815	0.1786
429.2855	0.1821
429.4895	0.1782
429.6935	0.172
429.8975	0.1739
430.1014	0.1813
430.3053	0.1774
430.5093	0.1676
430.7132	0.1743
430.9171	0.1691
431.1209	0.1651
431.3248	0.161
431.5286	0.1706
431.7325	0.1751
431.9363	0.1587
432.1401	0.1621
432.3439	0.1533
432.5477	0.1567
432.7514	0.1618
432.9552	0.1579
433.1589	0.1536
433.3627	0.1549
433.5664	0.1467
433.7701	0.1497
433.9737	0.156
434.1774	0.1497
434.3811	0.1375
434.5847	0.1464
434.7883	0.139
434.9919	0.1288
435.1955	0.1368
435.3991	0.1477
435.6027	0.1365
435.8062	0.1511
436.0098	0.1225
436.2133	0.1296
436.4168	0.1277
436.6203	0.1351
436.8238	0.1279
437.0272	0.1204
437.2307	0.1243
437.4341	0.1211
437.6375	0.1285
437.841	0.1185
438.0443	0.1159
438.2477	0.115
438.4511	0.1093
438.6545	0.1128
438.8578	0.1148
439.0611	0.116
439.2644	0.1092
439.4677	0.115
439.671	0.0952
439.8743	0.1088
440.0775	0.104
440.2808	0.103
440.484	0.1
440.6872	0.098
440.8904	0.0825
441.0936	0.1034
441.2967	0.0869
441.4999	0.0916
441.703	0.0929
441.9062	0.0987
442.1093	0.099
442.3124	0.0889
442.5155	0.0841
442.7185	0.081
442.9216	0.089
443.1246	0.0893
443.3276	0.0815
443.5307	0.0752
443.7337	0.0772
443.9366	0.0755
444.1396	0.0664
444.3426	0.0744
444.5455	0.0769
444.7484	0.0731
444.9513	0.0805
445.1542	0.0725
445.3571	0.0688
445.56	0.0568
445.7628	0.0636
445.9657	0.0662
446.1685	0.0765
446.3713	0.0654
446.5741	0.0694
446.7769	0.0704
446.9797	0.0605
447.1824	0.0558
447.3852	0.0468
447.5879	0.0506
447.7906	0.0521
447.9933	0.0524
448.196	0.0492
448.3986	0.0605
448.6013	0.0395
448.8039	0.0579
449.0066	0.0546
449.2092	0.055
449.4118	0.0486
449.6143	0.049
449.8169	0.0503
450.0195	0.0523
450.222	0.0461
450.4245	0.0525
450.627	0.0416
450.8295	0.0433
451.032	0.037
451.2345	0.0443
451.4369	0.0383
451.6394	0.0398
451.8418	0.0373
452.0442	0.0437
452.2466	0.0308
452.449	0.0384
452.6513	0.0298
452.8537	0.0307
453.056	0.0371
453.2583	0.0395
453.4607	0.0252
453.663	0.0301
453.8652	0.0246
454.0675	0.0395
454.2697	0.0232
454.472	0.0321
454.6742	0.0418
454.8764	0.0385
455.0786	0.0234
455.2808	0.0235
455.4829	0.0234
455.6851	0.0274
455.8872	0.0229
456.0893	0.0337
456.2915	0.0242
456.4935	0.0242
456.6956	0.0214
456.8977	0.0211
457.0997	0.0263
457.3018	0.0224
457.5038	0.0252
457.7058	0.0267
457.9078	0.029
458.1098	0.031
458.3117	0.0311
458.5137	0.0122
458.7156	0.0274
458.9175	0.0327
459.1194	0.0143
459.3213	0.0133
459.5232	0.02
459.725	0.0226
459.9269	0.0204
460.1287	0.0148
460.3305	0.0262
460.5323	0.0136
460.7341	0.0116
460.9359	0.0013
461.1376	0.0177
461.3394	0.0183
461.5411	0.0233
461.7428	0.0229
461.9445	0.0108
462.1462	0.0161
462.3479	0.0167
462.5495	0.0086
462.7512	0.0246
462.9528	0.0126
463.1544	0.0142
463.356	0.0139
463.5576	0.0205
463.7592	0.0117
463.9607	0.0121
464.1623	0.0093
464.3638	0.0024
464.5653	0.0122
464.7668	0.0119
464.9683	0.0148
465.1697	0.008
465.3712	0.007
465.5726	0.0081
465.7741	0.0182
465.9755	0.0075
466.1769	0.0089
466.3782	0.0136
466.5796	0.0157
466.7809	0.0201
466.9823	0.0077
467.1836	0.0113
467.3849	0.0076
467.5862	0.001
467.7875	0.0053
467.9887	0.0099
468.19	0.0088
468.3912	0.0245
468.5924	0.0122
468.7936	0.0095
468.9948	0.0067
469.196	0.009
469.3972	0.0017
469.5983	0.0089
469.7994	0.0073
470.0006	0.0076
470.2017	0.0162
470.4027	0.0212
470.6038	0.0154
470.8049	0.0124
471.0059	0.0106
471.2069	0.0026
471.408	0.0167
471.6089	0.0081
471.8099	0.0114
472.0109	0.004
472.2119	0.0147
472.4128	0.0091
472.6137	0.0113
472.8146	0.0117
473.0155	0.016
473.2164	0.0106
473.4173	0.0029
473.6181	0.0005
473.819	0.0082
474.0198	0.0054
474.2206	-0.0065
474.4214	0.0051
474.6222	-0.0026
474.8229	0.0017
475.0237	0.0106
475.2244	0.0095
475.4251	0.0019
475.6258	0.004
475.8265	0.0126
476.0272	0.003
476.2278	0.0084
476.4285	0.0023
476.6291	0.015
476.8297	0.0038
477.0303	-0.0005
477.2309	0.005
477.4315	0.0098
477.632	0.0024
477.8326	0.0092
478.0331	0.0103
478.2336	0.0047
478.4341	0.0073
478.6346	0.0051
478.8351	0.0033
479.0355	0.016
479.236	0.0086
479.4364	0.0017
479.6368	0.0078
479.8372	0.0013
480.0376	0.0076
480.2379	0.0057
480.4383	0.0146
480.6386	0.0022
480.8389	0.0039
481.0392	0.0034
481.2395	0.0071
481.4398	0.0096
481.6401	0.0114
481.8403	0.0032
482.0405	0.0087
482.2408	0.007
482.441	0.0142
482.6411	0.0079
482.8413	-0.0006
483.0415	0.0173
483.2416	0.0023
483.4417	0.0022
483.6419	-0.0008
483.8419	0.0101
484.042	0.0061
484.2421	-0.0033
484.4422	0.0054
484.6422	0.0096
484.8422	0.0061
485.0422	0.005
485.2422	0.0018
485.4422	0.0045
485.6422	0.0037
485.8421	0.0065
486.042	0.012
486.242	-0
486.4419	0.0033
486.6417	-0.0003
486.8416	0.0023
487.0415	0.0028
487.2413	0.002
487.4411	0.0073
487.641	0.0043
487.8408	0.005
488.0405	0.0104
488.2403	0.0028
488.4401	0.007
488.6398	0.013
488.8395	0.0024
489.0392	0.0141
489.2389	0.0062
489.4386	-0.0068
489.6383	0.0129
489.8379	0.0019
490.0376	0.0078
490.2372	0.0049
490.4368	0.0081
490.6364	-0.0031
490.836	0.0067
491.0355	0.009
491.2351	0.0015
491.4346	0.0089
491.6341	0.0049
491.8336	0.0024
492.0331	0.0063
492.2326	0.0081
492.432	0.006
492.6315	0.0094
492.8309	0.0105
493.0303	0.0021
493.2297	0.0055
493.4291	0.0083
493.6284	0.0147
493.8278	0.0001
494.0271	0.0043
494.2264	0.0039
494.4257	0.0098
494.625	0.0072
494.8243	0.0009
495.0236	0.0103
495.2228	0.0073
495.422	0.0096
495.6213	0.0019
495.8205	0.0082
496.0196	0.0099
496.2188	0.0069
496.418	0.0013
496.6171	0.0036
496.8162	0.0081
497.0153	0.0131
497.2144	0.0004
497.4135	0.004
497.6126	0.0026
497.8116	0.0041
498.0107	0.0063
498.2097	0.0124
498.4087	0.0039
498.6077	-0.0028
498.8067	0.0051
499.0056	0.0041
499.2046	0.0069
499.4035	0.0031
499.6024	0.0015
499.8013	0.0084
500.0002	0.0032
500.199	0.0077
500.3979	0.0045
500.5967	0.0044
500.7956	0.0026
500.9944	0.0039
501.1932	0.0061
501.3919	0.0116
501.5907	0.0051
501.7895	0.0076
501.9882	0.0042
502.1869	0.0121
502.3856	0.0025
502.5843	0.0121
502.783	-0.0019
502.9816	0.014
503.1803	0.0039
503.3789	0.0099
503.5775	0.0063
503.7761	-0.0015
503.9747	0.0096
504.1732	-0.0034
504.3718	0.0165
504.5703	0.0092
504.7689	-0.0018
504.9674	0.0043
505.1658	0.0045
505.3643	0.0177
505.5628	0.0104
505.7612	0.0105
505.9597	0.005
506.1581	0.0002
506.3565	0.0005
506.5549	0.0037
506.7532	0.002
506.9516	0.0012
507.1499	0.0106
507.3482	0.0036
507.5465	0.0139
507.7448	0.0022
507.9431	0.0041
508.1414	0.0001
508.3396	0.0037
508.5379	0.0006
508.7361	0.009
508.9343	0.0061
509.1325	0.0107
509.3306	0.0025
509.5288	-0.0029
509.7269	0.0115
509.9251	0.0078
510.1232	0.0103
510.3213	0.0108
510.5193	-0.0017
510.7174	-0.0004
510.9154	0.0083
511.1135	0.0042
511.3115	0.0036
511.5095	0.0066
511.7075	0.0002
511.9055	0.0141
512.1034	0.0067
512.3014	0.0016
512.4993	0.0086
512.6972	-0.0008
512.8951	0.0016
513.093	0.0051
513.2908	0.0126
513.4887	0.0115
513.6865	0.0029
513.8844	0.0153
514.0822	0.009
514.2799	-0.0028
514.4777	0.0018
514.6755	-0.0056
514.8732	0.0017
515.0709	0.0046
515.2687	-0.0071
515.4664	0.0091
515.664	0.0092
515.8617	0.0067
516.0594	0.0067
516.257	0.0037
516.4546	0.018
516.6522	0.0082
516.8498	0.0055
517.0474	0.0072
517.2449	0.0072
517.4425	0.0036
517.64	0.0063
517.8375	0.0043
518.035	0.0015
518.2325	-0.0035
518.43	0.0089
518.6274	0.0094
518.8249	-0.0016
519.0223	0.0091
519.2197	0.0051
519.4171	0.0054
519.6145	0.0082
519.8118	0.0011
520.0092	0.0028
520.2065	0.0044
520.4038	0.0002
520.6011	0.01
520.7984	0.0064
520.9956	0.0116
521.1929	0.0072
521.3901	0.0118
521.5874	0.0213
521.7846	-0.0033
521.9818	-0.0015
522.1789	-0.0011
522.3761	0.013
522.5732	0.0119
522.7704	0.0023
522.9675	-0.0032
523.1646	-0.0004
523.3617	0.0068
523.5587	-0
523.7558	0.0053
523.9528	0.019
524.1498	0.0004
524.3468	0.0047
524.5438	0.0029
524.7408	-0.0044
524.9378	0.0091
525.1347	0.0019
525.3316	0.0141
525.5285	-0.0018
525.7254	0.0064
525.9223	0.0111
526.1192	0.0043
526.316	0.0016
526.5129	0.0065
526.7097	-0.0022
526.9065	0.0135
527.1033	-0.0029
527.3	-0.003
527.4968	0.0066
527.6935	0.0014
527.8903	0.0069
528.087	-0.0011
528.2837	0.0114
528.4804	0.0075
528.677	0.0031
528.8737	0.0063
529.0703	0.0077
529.2669	0.0107
529.4635	0.0073
529.6601	-0.0015
529.8567	0.0161
530.0532	0.0007
530.2498	0.0017
530.4463	0.0031
530.6428	0.0111
530.8393	0.0109
531.0358	0.0037
531.2322	0.0031
531.4287	0.0087
531.6251	-0.0152
531.8215	0.0068
532.0179	0.0071
532.2143	0.0115
532.4107	0.0073
532.607	-0.0006
532.8034	0.0014
532.9997	0.0006
533.196	0.0098
533.3923	0.0126
533.5886	0.0014
533.7848	0.0067
533.9811	0.006
534.1773	-0.0021
534.3735	0.0082
534.5697	0.0064
534.7659	0.0089
534.9621	0.0042
535.1582	0.0065
535.3544	0.0187
535.5505	0.0101
535.7466	0.004
535.9427	0.0112
536.1387	0.003
536.3348	0.0099
536.5308	0.0002
536.7269	0.0035
536.9229	0.0103
537.1189	0.0212
537.3148	0.0062
537.5108	-0.0017
537.7068	0.015
537.9027	-0.005
538.0986	0.0048
538.2945	0.0013
538.4904	0
538.6863	0.0029
538.8821	0.0153
539.078	0.0013
539.2738	0.0058
539.4696	0.0039
539.6654	-0.0003
539.8611	0.0013
540.0569	0.0012
540.2526	0.0062
540.4484	-0.0044
540.6441	0.0118
540.8398	0.0051
541.0355	0.0006
541.2311	0.0044
541.4268	0.0074
541.6224	0.019
541.818	0.0068
542.0136	0.0089
542.2092	0.0057
542.4048	0.0021
542.6003	0.0062
542.7959	0.008
542.9914	0.0092
543.1869	0.0105
543.3824	0.0056
543.5779	0.021
543.7734	0.0127
543.9688	0.0034
544.1642	0.0017
544.3596	0.0076
544.555	-0.001
544.7504	0.0143
544.9458	0.0096
545.1411	-0
545.3365	0.0068
545.5318	0.0057
545.7271	0.01
545.9224	0.0005
546.1177	0.0077
546.3129	-0.0008
546.5081	-0.0003
546.7034	0.005
546.8986	0.0037
547.0938	0.0037
547.289	0.014
547.4841	0.0034
547.6793	0.0013
547.8744	0.0122
548.0695	-0.0032
548.2646	0.0155
548.4597	-0.0034
548.6548	0.0175
548.8498	0.0059
549.0448	0.0069
549.2399	0.0094
549.4349	0.0062
549.6298	0.0152
549.8248	-0.0008
550.0198	0.0111
550.2147	0.0134
550.4096	-0.0027
550.6045	0.006
550.7994	-0.004
550.9943	0.0054
551.1892	-0.0185
551.384	0.0128
551.5788	0.0122
551.7737	0.0061
551.9685	0.0048
552.1632	0.0107
552.358	0.0006
552.5528	0.0133
552.7475	0.0014
552.9422	0.0188
553.1369	0.0065
553.3316	0.0155
553.5263	0.007
553.7209	-0.003
553.9156	0.0094
554.1102	0.0102
554.3048	0.0146
554.4994	0.0031
554.694	0.0066
554.8885	0.0104
555.0831	0.0123
555.2776	0.0092
555.4721	0.0015
555.6666	0.0022
555.8611	0.0057
556.0555	0.0035
556.25	0.0083
556.4444	0.0039
556.6388	0.0035
556.8332	0.0115
557.0276	0.0164
557.222	0.0031
557.4163	0.0148
557.6107	-0.0009
557.805	0.0004
557.9993	0.0101
558.1936	-0.0059
558.3879	0.0044
558.5821	-0.0008
558.7764	-0.0031
558.9706	0.0106
559.1648	0.0122
559.359	-0.0061
559.5532	0.0063
559.7473	0.001
559.9415	0.0084
560.1356	0.0117
560.3297	0.0073
560.5238	0.0041
560.7179	0.0064
560.9119	0.0055
561.106	-0.0071
561.3	0.0102
561.494	-0.0044
561.688	0.0004
561.882	0.0002
562.076	0.0079
562.2699	0.0126
562.4639	0.0134
562.6578	0.0077
562.8517	0.0092
563.0456	0.0095
563.2395	0.0118
563.4333	0.0083
563.6272	0.0103
563.821	0.0053
564.0148	0.0071
564.2086	0.0096
564.4024	0.0157
564.5961	0.0106
564.7899	0.0068
564.9836	0.006
565.1773	0.006
565.371	0.007
565.5647	0.0027
565.7584	0.0148
565.952	0.0136
566.1456	0.0087
566.3393	0.0064
566.5329	0.003
566.7264	0.0093
566.92	0.0093
567.1136	0.0002
567.3071	0.0022
567.5006	0.0078
567.6941	0.0031
567.8876	0.0104
568.0811	0.0177
568.2745	0.0014
568.468	0.0038
568.6614	0.0097
568.8548	0.0048
569.0482	0.0112
569.2416	0.0098
569.4349	0.0017
569.6283	0.0044
569.8216	0.0069
570.0149	0.0037
570.2082	0.0075
570.4015	0.0024
570.5947	0.0081
570.788	0.0087
570.9812	0.003
571.1744	0.0106
571.3676	0.0034
571.5608	0.0029
571.754	0.0112
571.9471	0.0098
572.1402	0.0076
572.3333	0.004
572.5264	0.0039
572.7195	0.0036
572.9126	0.0033
573.1057	0.0062
573.2987	0.003
573.4917	0.0053
573.6847	0.0045
573.8777	0.0055
574.0707	0.0053
574.2636	0.0038
574.4566	0.0029
574.6495	0.0026
574.8424	0.0058
575.0353	0.0067
575.2281	0.009
575.421	-0.0005
575.6138	0.007
575.8067	0.0068
575.9995	0.0012
576.1923	0.005
576.385	0.0061
576.5778	0.0099
576.7706	0.0095
576.9633	0.0085
577.156	-0.002
577.3487	0.004
577.5414	0.0038
577.734	0.0003
577.9267	0.0073
578.1193	0.0085
578.3119	0.001
578.5045	0.004
578.6971	0.0011
578.8897	0.0004
579.0822	0.0077
579.2747	0.0055
579.4673	0.0044
579.6598	0.0087
579.8522	0.0048
580.0447	0.0047
580.2372	0.0077
580.4296	0.0091
580.622	0.0043
580.8144	0.0065
581.0068	0.0014
581.1992	0.004
581.3915	-0
581.5839	0.0041
581.7762	0.0023
581.9685	0.0075
582.1608	0.006
582.353	0.0021
582.5453	0.0063
582.7375	0.0103
582.9298	-0.0012
583.122	0.0009
583.3142	0.0058
583.5063	0.0063
583.6985	0.0045
583.8906	0.004
584.0827	0.0028
584.2749	0.0042
584.4669	0.0059
584.659	0.0117
584.8511	0.0112
585.0431	0.0032
585.2352	0.001
585.4272	0.0066
585.6192	0.0028
585.8111	0.0023
586.0031	0.0034
586.195	0.0036
586.387	0.0009
586.5789	0.0042
586.7708	0.0065
586.9627	0.0067
587.1545	0.0053
587.3464	0.0028
587.5382	0.0011
587.73	0.0088
587.9218	0.0051
588.1136	-0.0018
588.3053	0.0108
588.4971	0.0036
588.6888	0.004
588.8805	0.0002
589.0722	0.0121
589.2639	0.0089
589.4556	0.0088
589.6472	0.0106
589.8389	0.0034
590.0305	0.0018
590.2221	0.0049
590.4137	0.007
590.6052	0.0062
590.7968	0.0114
590.9883	0.0078
591.1798	0.005
591.3713	0.0028
591.5628	0.0135
591.7543	0.0089
591.9458	0.0028
592.1372	0.0041
592.3286	0.0026
592.52	0.0064
592.7114	0.0064
592.9028	0.0071
593.0941	0.0072
593.2855	0.0065
593.4768	0.0114
593.6681	0.0055
593.8594	0.0098
594.0506	0.0037
594.2419	0.0051
594.4331	-0.0003
594.6244	0.0041
594.8156	0.0018
595.0067	-0.0047
595.1979	0.0057
595.3891	0.0066
595.5802	0.0079
595.7713	0.0062
595.9624	0.0115
596.1535	0.0038
596.3446	0.0074
596.5357	0.0063
596.7267	0.0019
596.9177	0.0006
597.1087	0.0021
597.2997	0.0019
597.4907	-0.0002
597.6817	0.003
597.8726	0.0041
598.0635	-0.0001
598.2544	0.0094
598.4453	0.0018
598.6362	0.0022
598.827	0.0057
599.0179	0.0035
599.2087	0.0134
599.3995	0.007
599.5903	0.0132
599.7811	0.0109
599.9718	0.0022
600.1626	-0.0007
600.3533	-0
600.544	0.0033
600.7347	0.0074
600.9254	0.0103
601.116	0.0039
601.3067	0.001
601.4973	0.0092
601.6879	0.002
601.8785	0.0098
602.0691	-0.0012
602.2596	0.0049
602.4502	0.0027
602.6407	0.005
602.8312	0.0064
603.0217	0.0036
603.2122	0.0042
603.4027	0.0071
603.5931	0.0003
603.7835	0.0088
603.9739	0.0001
604.1643	0.0107
604.3547	0.0091
604.5451	0.0092
604.7354	0.0009
604.9257	0.0043
605.116	0.0037
605.3063	0.0012
605.4966	0.0038
605.6869	0.0087
605.8771	0.0083
606.0673	0.0097
606.2575	0.0046
606.4477	0.0087
606.6379	0.0024
606.8281	0.0044
607.0182	0.0053
607.2083	0.0037
607.3985	0.0031
607.5885	0.0023
607.7786	0.0076
607.9687	0.0101
608.1587	0.0083
608.3488	0.0035
608.5388	-0.0022
608.7288	0.0015
608.9187	0.0094
609.1087	0.0066
609.2986	0.0077
609.4886	0.0061
609.6785	0.0045
609.8684	-0.0025
610.0582	0.0035
610.2481	-0.0002
610.4379	0.0103
610.6278	0.0061
610.8176	0.0047
611.0074	0.0078
611.1971	0.0043
611.3869	0.0088
611.5766	0.0017
611.7664	0.0122
611.9561	0.0101
612.1458	0.0017
612.3354	0.0049
612.5251	-0.0018
612.7147	0.0078
612.9044	0.0003
613.094	0.0025
613.2836	0.0052
613.4731	0.0094
613.6627	0.0122
613.8522	0.0065
614.0417	0.0043
614.2313	-0.0009
614.4207	0.0066
614.6102	0.0054
614.7997	0.0126
614.9891	0.0081
615.1785	-0.0062
615.3679	0.0059
615.5573	0.0088
615.7467	-0.0053
615.9361	0.0067
616.1254	0.0074
616.3147	0.0135
616.504	-0.0061
616.6933	0.0072
616.8826	0.0008
617.0718	0.0154
617.2611	0.008
617.4503	-0.0001
617.6395	0.0086
617.8287	0.0094
618.0179	0.0078
618.207	0.0104
618.3961	0.003
618.5853	-0.0025
618.7744	0.0066
618.9634	0.0044
619.1525	0.0032
619.3416	0.0005
619.5306	0.002
619.7196	0.0143
619.9086	0.0017
620.0976	-0.0003
620.2866	0.0103
620.4755	-0.0007
620.6645	0.0166
620.8534	0.0085
621.0423	0.0074
621.2312	0.0075
621.42	0.0037
621.6089	-0.0024
621.7977	0.014
621.9865	0.0039
622.1753	-0.0049
622.3641	-0.0019
622.5529	-0.007
622.7416	0.0035
622.9303	0.0051
623.1191	0.0082
623.3078	0.0087
623.4964	0.0097
623.6851	0.0021
623.8737	0.0064
624.0624	-0.0062
624.251	0.0062
624.4396	0.0056
624.6282	0.0164
624.8167	0.0026
625.0053	0.0055
625.1938	0.0044
625.3823	0.0075
625.5708	-0.008
625.7593	0.0121
625.9477	0.0012
626.1362	-0.0011
626.3246	0.0022
626.513	0.0143
626.7014	0.0048
626.8898	0.0118
627.0781	0.0178
627.2665	0.017
627.4548	-0.0084
627.6431	-0.0015
627.8314	0.0075
628.0197	0.0014
628.2079	0.006
628.3962	0.0052
628.5844	0.0058
628.7726	-0.0028
628.9608	0.0068
629.1489	-0.0047
629.3371	0.004
629.5252	-0.0038
629.7134	0.006
629.9015	-0.0003
630.0895	-0.0091
630.2776	0.0115
630.4657	0.0035
630.6537	0.0065
630.8417	-0.0051
631.0297	-0.0006
631.2177	0.0074
631.4057	0.0152
631.5936	0.0036
631.7815	0.0067
631.9695	0.0209
632.1574	0.0087
632.3452	0.0051
632.5331	0.0054
632.7209	-0.0003
632.9088	0.0053
633.0966	0.0215
633.2844	0.0242
633.4722	0.0185
633.6599	0.0248
633.8477	0.007
634.0354	0.0133
634.2231	-0.0033
634.4108	-0.0013
634.5985	0.0176
634.7861	0.0041
634.9738	-0.0033
635.1614	0.0157
635.349	0.0123
635.5366	0.0183
635.7242	0.0066
635.9117	0.0047
636.0993	0.0128
636.2868	0.014
636.4743	0.0126
636.6618	0.0007
636.8492	0.0089
637.0367	0.0056
637.2241	-0.0053
637.4115	0.0137
637.5989	0.0076
637.7863	0.02
637.9737	0.0109
638.161	0.0051
638.3484	-0.0142
638.5357	0.0006
638.723	0.0213
638.9103	-0.0155
639.0975	0.0124
639.2848	0.0144
639.472	0.008
639.6592	0.0007
639.8464	0.0056
640.0336	0.0191
640.2208	-0.0042
640.4079	-0.0026
640.595	-0.008
640.7821	0.0102
640.9692	-0.0091
641.1563	-0.0023
641.3434	0.0163
641.5304	0.0266
641.7174	0.0046
641.9044	0.0088
642.0914	0.0231
642.2784	0.0107
642.4653	0.0028
642.6523	0.0056
642.8392	0.005
643.0261	0.0036
643.213	-0.0043
643.3999	0.0174
643.5867	0.0073
643.7735	-0.0094
643.9604	0.0054
644.1472	0.0091
644.3339	-0.0237
644.5207	0.001
644.7075	0.0061
644.8942	0.0001
645.0809	0.0006
645.2676	-0.0271
645.4543	-0.0018
645.6409	0.018
645.8276	0.0151
646.0142	0.0047
646.2008	0.0048
646.3874	-0.0186
646.574	0.0203
646.7605	0.0089
646.9471	0.0026
647.1336	-0.0309
647.3201	0.0181
647.5066	-0.0032
647.6931	0.0029
647.8795	0.0101
648.0659	0.0034
648.2524	0.0228
648.4388	0.003
648.6252	0.0106
648.8115	0.0073
648.9979	0.0139
649.1842	-0.0035
649.3705	0.0267
649.5568	-0.0061
649.7431	-0.008
649.9294	-0.0042
650.1156	0.0045
650.3018	0.0082
650.488	0.0079
650.6742	0.0092
650.8604	0.0211
651.0466	-0.0021
651.2327	0.0055
651.4188	0.006
651.6049	0.0135
651.791	0.0054
651.9771	0.0126
652.1632	0.0101
652.3492	0.0013
652.5352	0.0142
652.7212	-0.0052
652.9072	0.004
653.0932	0.009
653.2791	0.017
653.465	-0.01
653.651	-0.0046
653.8369	0.0084
654.0227	-0.0098
654.2086	0.007
654.3944	0.0114
654.5803	-0.0006
654.7661	0.0028
654.9519	-0.0009
655.1377	-0
655.3234	-0
655.5092	-0
655.6949	-0
655.8806	-0
656.0663	-0
656.2519	-0
656.4376	-0
656.6232	-0
656.8088	-0
656.9945	-0
657.18	-0
657.3656	-0
657.5511	-0
657.7367	-0
657.9222	-0
658.1077	-0
658.2932	-0
658.4786	-0
658.6641	-0
658.8495	-0
659.0349	-0
659.2203	-0
659.4057	-0
659.591	0.1572
659.7764	0.0322
659.9617	0.0105
660.147	0.006
660.3323	0.006
660.5176	-0.0064
660.7028	-0.0079
660.888	0.0217
661.0733	0.0107
661.2585	-0.022
661.4436	0.0107
661.6288	0.0267
661.8139	0.0095
661.9991	-0.0185
662.1842	-0.0085
662.3693	0.0181
662.5544	0.0168
662.7394	0.0078
662.9245	0.0255
663.1095	-0.0236
663.2945	-0.0052
663.4795	-0.0021
663.6644	-0.0028
663.8494	0.0184
664.0343	0.0019
664.2193	-0.0049
664.4042	0.0116
664.589	0.0073
664.7739	0.0235
664.9587	-0.015
665.1436	-0.0136
665.3284	-0.0001
665.5132	-0.0213
665.698	0.0042
665.8827	-0.0066
666.0675	-0.0055
666.2522	-0.0036
666.4369	-0.0031
666.6216	0.0042
666.8063	0.0052
666.9909	0.0114
667.1756	-0.0192
667.3602	-0.0163
667.5448	-0.0002
667.7294	0.0224
667.9139	-0.0185
668.0985	0.0317
668.283	0.0115
668.4675	0.0218
668.652	0.0155
668.8365	-0.0215
669.0209	0.0182
669.2054	0.0088
669.3898	-0.0002
669.5742	0.0043
669.7586	0.0163
669.943	0.0038
670.1273	-0.0105
670.3117	0.0144
670.496	0.0122
670.6803	-0.0019
670.8646	-0.0161
671.0488	0.0252
671.2331	-0.0045
671.4173	0.0113
671.6015	0.0013
671.7857	0.0161
671.9699	-0.0011
672.1541	0.0014
672.3382	0.0153
672.5223	0.0047
672.7064	0.0032
672.8905	-0.0125
673.0746	0.0224
673.2587	0.0302
673.4427	0.0195
673.6267	0.0143
673.8107	0.0133
673.9947	0.0082
674.1787	0.0072
674.3626	0.0103
674.5465	0.0123
674.7304	0.0215
674.9143	0.0017
675.0982	-0.0132
675.2821	0.008
675.4659	-0.0168
675.6497	0.0217
675.8335	0.015
676.0173	-0.0389
676.2011	0.0202
676.3849	-0.0005
676.5686	0.016
676.7523	0.018
676.936	0.0133
677.1197	-0.0002
677.3034	0.038
677.487	0.0112
677.6706	0.0354
677.8542	-0.0064
678.0378	0.0254
678.2214	0.0113
678.405	-0.0008
678.5885	0.0034
678.772	0.0044
678.9555	-0.0207
679.139	0.0173
679.3225	0.0088
679.5059	0.0059
679.6894	0.0061
679.8728	-0.009
680.0562	0.0009
680.2395	0.0046
680.4229	-0.0014
680.6062	0.0095
680.7896	-0.0134
680.9729	0.0183
681.1562	-0.0059
681.3394	-0.0066
681.5227	-0.0069
681.7059	0.0048
681.8891	0.0006
682.0723	0.0213
682.2555	0.0173
682.4387	-0.0069
682.6218	-0.008
682.805	0.0097
682.9881	-0.0002
683.1712	-0.0037
683.3542	0.0112
683.5373	-0.0156
683.7203	0.0084
683.9034	-0.0095
684.0864	-0.0075
684.2694	0.0035
684.4523	0.0164
684.6353	-0.0023
684.8182	0.0041
685.0011	0.0001
685.184	0.0056
685.3669	0.011
685.5498	0.0037
685.7326	-0.0033
685.9154	-0.0033
686.0982	0.0047
686.281	0.0005
686.4638	0.0148
686.6465	-0.0014
686.8293	-0.002
687.012	0.0184
687.1947	0.0073
687.3774	0.0179
687.56	-0.0102
687.7427	0.0089
687.9253	-0.0074
688.1079	-0.0135
688.2905	-0.015
688.4731	0.0021
688.6556	0.0118
688.8382	-0.0134
689.0207	0.0004
689.2032	0.0169
689.3857	0.0229
689.5681	-0.0029
689.7506	0.0331
689.933	0.0066
690.1154	0.0186
690.2978	0.0134
690.4802	0.0234
690.6626	-0.0028
690.8449	0.0143
691.0272	0.0076
691.2095	-0.0158
691.3918	0.0152
691.5741	0.0115
691.7563	-0.0054
691.9386	0.0111
692.1208	-0.0026
692.303	0.0004
692.4852	-0.0171
692.6673	-0.0006
692.8495	-0.0048
693.0316	0.0234
693.2137	0.0105
693.3958	0.0031
693.5778	0.0004
693.7599	-0.0044
693.9419	-0.0129
694.1239	-0.0012
694.3059	0.0293
694.4879	-0.0076
694.6699	0.0001
694.8518	0.0101
695.0337	0.0089
695.2157	0.0157
695.3975	-0.0049
695.5794	-0.0141
695.7613	0.0037
695.9431	-0.0157
696.1249	0.0174
696.3067	0.0006
696.4885	0.016
696.6703	0.0035
696.852	-0.0011
697.0337	0.0138
697.2154	0.0081
697.3971	0.0088
697.5788	0.0238
697.7605	0.0015
697.9421	0.0045
698.1237	-0.0028
698.3053	0.0079
698.4869	0.0098
698.6685	-0.0026
698.85	0.0275
699.0315	0.002
699.213	-0.0074
699.3945	-0.0145
699.576	0.0318
699.7575	0.009
699.9389	-0.0091
700.1203	0.0066
700.3017	0.0065
700.4831	0.0081
700.6645	0.0419
700.8458	0.0045
701.0271	0.0286
701.2084	0.0029
701.3897	0.0088
701.571	-0.0212
701.7523	0.0192
701.9335	0.0061
702.1147	0.0268
702.2959	0.0001
702.4771	0.0016
702.6583	-0.0011
702.8394	-0.0241
703.0205	0.0221
703.2016	0.0063
703.3827	0.0083
703.5638	-0.0122
703.7449	0.0324
703.9259	-0.0002
704.1069	-0.0226
704.2879	0.0206
704.4689	-0.0024
704.6499	0.0117
704.8308	-0.0126
705.0117	0.0033
705.1927	-0.0086
705.3735	0.0104
705.5544	-0.0047
705.7353	0.0181
705.9161	-0.0214
706.0969	0.0157
706.2777	0.0138
706.4585	-0.0001
706.6393	0.0284
706.82	0.0134
707.0007	-0.0151
707.1815	0.0023
707.3621	0.0187
707.5428	0.0221
707.7235	0.0031
707.9041	0.0145
708.0847	-0.0017
708.2653	0.0194
708.4459	0.0128
708.6265	-0.0374
708.807	0.0142
708.9875	-0.0053
709.168	0.0058
709.3485	0.0176
709.529	0.0131
709.7095	-0.017
709.8899	-0.0137
710.0703	0.0092
710.2507	-0.006
710.4311	-0.0221
710.6115	0.0312
710.7918	0.0275
710.9721	-0.0098
711.1524	-0.005
711.3327	-0.0228
711.513	-0.0097
711.6932	0.0006
711.8735	0.0393
712.0537	0.003
712.2339	-0.0002
712.4141	0.0304
712.5942	-0.0325
712.7744	0.0091
712.9545	0.0217
713.1346	0.0125
713.3147	0.0265
713.4947	0.0057
713.6748	-0.0041
713.8548	0.0241
714.0348	0.0142
714.2148	-0.0021
714.3948	0.0161
714.5748	0.0086
714.7547	0.0155
714.9346	0.0096
715.1145	-0.0025
715.2944	-0.0327
715.4743	0.0082
715.6541	-0.0232
715.834	0.0165
716.0138	0.0302
716.1936	-0.0231
716.3733	0.0027
716.5531	-0.0035
716.7328	-0.0013
716.9126	0.0017
717.0923	-0.0419
717.2719	0.0006
717.4516	0.0159
717.6312	-0.0234
717.8109	0.0413
717.9905	0.0075
718.1701	0.0013
718.3496	-0.0206
718.5292	-0.0183
718.7087	0.0096
718.8882	0.0107
719.0677	0.0038
719.2472	-0.0088
719.4267	-0.0378
719.6061	-0.0096
719.7856	0.0221
719.965	0.0006
720.1443	0.0017
720.3237	0.0283
720.5031	0.0338
720.6824	0.0184
720.8617	0.0058
721.041	0.0307
721.2203	-0.0058
721.3995	0.0083
721.5788	-0.0038
721.758	-0.0089
721.9372	0.0128
722.1164	-0.0293
722.2956	-0.0166
722.4747	0.0319
722.6538	0.0051
722.8329	0.0054
723.012	0.0023
723.1911	-0.0265
723.3702	0.0259
723.5492	0.0115
723.7282	-0.0075
723.9072	0.0023
724.0862	0.002
724.2652	0.0088
724.4441	0.0138
724.623	-0.0013
724.8019	0.0099
724.9808	-0.0026
725.1597	-0.0002
725.3385	0.008
725.5174	0.0094
725.6962	0.0091
725.875	0.0215
726.0538	-0.006
726.2325	0.0116
726.4112	-0.0217
726.59	-0.0343
726.7687	0.0102
726.9474	0.0158
727.126	0.0288
727.3047	-0.0061
727.4833	0.021
727.6619	-0.016
727.8405	0.0095
728.0191	0.0082
728.1976	-0.0002
728.3762	0.0063
728.5547	-0.0242
728.7332	0.0338
728.9116	0.0139
729.0901	-0.0123
729.2686	0.0017
729.447	-0.0068
729.6254	0.0109
729.8038	-0.0046
729.9821	-0.0171
730.1605	0.0067
730.3388	-0.0223
730.5171	0.0218
730.6954	-0.009
730.8737	0.0037
731.0519	-0.0022
731.2302	0.0124
731.4084	-0.0223
731.5866	-0.0186
731.7648	0.0154
731.9429	0.0131
732.1211	0.0061
732.2992	-0.0025
732.4773	-0.003
732.6554	-0.0176
732.8335	0.029
733.0115	0.0065
733.1896	0.0028
733.3676	0.0132
733.5456	-0.0149
733.7235	-0.0059
733.9015	-0.0036
734.0794	-0.0022
734.2574	-0.0284
734.4353	0.0145
734.6131	-0.0024
734.791	0.0109
734.9689	-0.0183
735.1467	-0.018
735.3245	0.0063
735.5023	0.0195
735.68	-0.0227
735.8578	-0.0031
736.0355	0.0194
736.2132	0.0028
736.3909	0.0038
736.5686	0.002
736.7463	0.0007
736.9239	0.013
737.1015	0.0094
737.2791	0.0065
737.4567	0.0199
737.6343	-0.0194
737.8118	0.0076
737.9894	0.0101
738.1669	-0.0104
738.3444	0.0369
738.5218	-0.0136
738.6993	0.0117
738.8767	-0.0088
739.0541	-0.008
739.2315	0.0033
739.4089	-0.0085
739.5863	-0.0024
739.7636	0.0078
739.9409	-0.0013
740.1182	0.0178
740.2955	0.0116
740.4728	-0.0046
740.65	0.0227
740.8272	0.0017
741.0044	-0.0435
741.1816	0.0092
741.3588	-0.0224
741.5359	0.0217
741.7131	0.0037
741.8902	0.0132
742.0673	-0.0052
742.2444	0.0387
742.4214	0.0105
742.5985	-0.0081
742.7755	-0.0084
742.9525	-0.059
743.1295	-0.0018
743.3064	-0.0017
743.4834	0.0022
743.6603	0.021
743.8372	-0.0299
744.0141	0.0417
744.191	-0.0127
744.3678	-0.0161
744.5446	0.0107
744.7215	0.0142
744.8982	0.0081
745.075	0.048
745.2518	-0.0092
745.4285	-0.0066
745.6052	-0.0454
745.7819	0.013
745.9586	-0.0079
746.1353	-0.0018
746.3119	-0.0141
746.4885	0.0192
746.6651	-0.0151
746.8417	0.0053
747.0183	0.0265
747.1948	-0.0054
747.3714	0.0007
747.5479	0.0305
747.7244	-0.0115
747.9008	-0.0263
748.0773	0.0186
748.2537	0.0142
748.4301	0.008
748.6065	-0.0079
748.7829	-0.0154
748.9593	0.0082
749.1356	0.0116
749.3119	0.025
749.4882	0.0194
749.6645	0.009
749.8408	0.0182
750.017	0.0223
750.1933	-0.0187
750.3695	-0.0028
750.5457	-0.0056
750.7218	-0.0043
750.898	-0.0144
751.0741	0.0001
751.2502	0.0126
751.4263	0.0149
751.6024	0.0163
751.7784	-0.0326
751.9545	0.0148
752.1305	0.0167
752.3065	0.0144
752.4825	-0.0018
752.6584	-0.0315
752.8344	-0.0107
753.0103	0.0001
753.1862	0.0319
753.3621	-0.0096
753.5379	0.01
753.7138	0.0259
753.8896	0.0037
754.0654	-0.016
754.2412	0.0061
754.417	0.0268
754.5927	-0.0032
754.7685	-0.0018
754.9442	0.0226
755.1199	0.0063
755.2956	-0.0002
755.4712	0.0284
755.6469	-0.0067
755.8225	0.0097
755.9981	0.0134
756.1736	0.0161
756.3492	-0.0045
756.5248	0.0335
756.7003	-0.0173
756.8758	-0.0008
757.0513	-0.0106
757.2267	-0.0055
757.4022	-0.0155
757.5776	-0.0047
757.753	0.0111
757.9284	-0.0059
758.1038	-0.0105
758.2791	0.0012
758.4545	-0.0146
758.6298	0.0093
758.8051	0.0148
758.9803	0.0166
759.1556	0.0056
759.3308	-0.001
759.506	0.0023
759.6812	0.007
759.8564	-0.0086
760.0316	-0.0022
760.2067	0.009
760.3819	-0.0134
760.557	0.0099
760.732	0.001
760.9071	0.018
761.0821	-0.0121
761.2572	0.0043
761.4322	0.0279
761.6072	0.006
761.7821	-0.0339
761.9571	0.0136
762.132	0.0252
762.3069	0.0228
762.4818	-0.004
762.6567	0.0005
762.8316	0.0124
763.0064	-0.0042
763.1812	0.0151
763.356	-0.0254
763.5308	0.0157
763.7055	0.0033
763.8803	0.012
764.055	-0.0072
764.2297	-0.0104
764.4044	0.0041
764.579	-0.0033
764.7537	0.0001
764.9283	0.0154
765.1029	0.0114
765.2775	0.0067
765.4521	0.0027
765.6266	-0.0042
765.8011	0.0053
765.9756	0.0089
766.1501	-0.0135
766.3246	-0.003
766.4991	-0.0046
766.6735	0.0357
766.8479	-0.0251
767.0223	-0.0041
767.1967	0.0229
767.371	0.0007
767.5454	0.0277
767.7197	0.0605
767.894	0.0006
768.0683	0.0148
768.2425	-0.014
768.4168	0.0052
768.591	-0.0316
768.7652	-0.0157
768.9394	-0.0337
769.1135	-0.034
769.2877	-0.0073
769.4618	0.0071
769.6359	-0.0277
769.81	0.0195
769.984	-0.008
770.1581	0.0089
770.3321	-0.0023
770.5061	0.0081
770.6801	0.0092
770.8541	0.0217
771.028	0.031
771.202	0.0228
771.3759	0.0273
771.5498	0.0129
771.7236	-0.0047
771.8975	0.0586
772.0713	0.0113
772.2451	-0.0175
772.4189	0.0076
772.5927	-0.0184
772.7665	-0.0184
772.9402	0.0507
773.1139	-0.0149
773.2876	-0.0397
773.4613	0.0187
773.635	0.0071
773.8086	0.0025
773.9822	0.0205
774.1558	-0.0021
774.3294	-0.0111
774.503	-0.0018
774.6765	0.0469
774.8501	-0.023
775.0236	0.0124
775.1971	-0.0191
775.3705	-0.0097
775.544	-0.0006
775.7174	-0.007
775.8908	-0.0226
776.0642	0.0129
776.2376	-0.024
776.4109	0.0125
776.5843	0.0294
776.7576	0.022
776.9309	0.0261
777.1041	-0.0145
777.2774	-0.0191
777.4506	0.0108
777.6238	-0.0075
777.797	0.0117
777.9702	0.0273
778.1434	-0.0215
778.3165	-0.0324
778.4896	-0.0324
778.6627	0.0146
778.8358	-0.0015
779.0089	-0.0104
779.1819	0.0448
779.3549	-0.0095
779.5279	-0.0087
779.7009	0.0771
779.8739	0.1
780.0468	0.022
780.2197	-0.0102
780.3926	-0.0264
780.5655	0.0214
780.7384	-0.0074
780.9112	0.0126
781.0841	0.0048
781.2569	0.02
781.4297	0.0061
781.6024	0.0089
781.7752	0.0239
781.9479	0.0367
782.1206	0.0055
782.2933	-0.0148
782.466	0.0277
782.6386	-0.0083
782.8113	0.0079
782.9839	-0.0198
783.1565	-0.0239
783.329	-0.0358
783.5016	0.0243
783.6741	-0.0004
783.8466	0.0663
784.0191	0.0114
784.1916	-0.0446
784.3641	-0.0236
784.5365	0.0158
784.7089	-0.0552
784.8813	0.0185
785.0537	0.0337
785.2261	0.031
785.3984	-0.0329
785.5707	-0.0317
785.743	0.0016
785.9153	-0.0213
786.0876	-0.0614
786.2598	-0.0251
786.432	0.017
786.6042	0.0303
786.7764	-0.0393
786.9486	-0.0246
787.1207	0.0356
787.2928	0.0304
787.4649	0.0035
787.637	-0.0027
787.8091	0.0194
787.9811	0.0013
788.1532	0.0043
788.3252	-0.0252
788.4972	0.0069
788.6691	-0.0264
788.8411	-0.0151
789.013	-0.0121
789.1849	-0.0191
789.3568	-0.0174
789.5287	0.0317
789.7005	-0.047
789.8723	-0.0295
790.0442	-0.0228
790.2159	-0.0247
790.3877	0.027
790.5595	0.0373
790.7312	-0.0379
790.9029	-0.0435
791.0746	0.012
791.2463	-0.049
791.4179	0.0232
791.5896	-0.0055
791.7612	0.0446
791.9328	0.0018
792.1044	-0.0174
792.2759	-0.052
792.4474	-0.049
792.619	0.0311
792.7905	-0.062
792.9619	0.0394
793.1334	0.0354
793.3048	0.0556
793.4762	0.0037
793.6476	-0.0567
793.819	-0.0089
793.9904	-0.0228
794.1617	-0.0004
794.333	0.0008
794.5043	0.0142
794.6756	0.009
794.8469	0.061
795.0181	-0.0035
795.1893	0.0306
795.3605	0.0158
795.5317	-0.006
795.7029	0.0149
795.874	-0.0116
796.0452	0.0086
796.2163	-0.0049
796.3873	0.02
796.5584	0.0837
796.7294	0.0036
796.9005	-0.0124
797.0715	0.03
797.2425	0.0787
797.4134	0.0675
797.5844	0.0169
797.7553	-0.0563
797.9262	0.1107
798.0971	0.0487
798.2679	-0.0091
798.4388	0.0493
798.6096	-0.0398
798.7804	-0.0031
798.9512	0.0208
799.122	-0.0422
799.2927	0.0297
799.4635	-0.0962
799.6342	-0.0247
799.8049	0.0118
799.9755	-0.0441
800.1462	0.0512
800.3168	0.0032
800.4874	-0.1134
800.658	0.0062
800.8286	0.0132
800.9991	0.0506
801.1696	-0.0384
801.3402	-0.0763
801.5106	-0.09
801.6811	-0.0621
801.8516	-0.0181
802.022	-0.0799
802.1924	-0.0594
802.3628	0.0292
802.5332	0.0755
802.7035	0.0353
802.8739	0.0269
803.0442	0.0338
803.2145	0.0698
803.3847	0.1276
803.555	0.0515
803.7252	-0.0384
803.8954	-0.0107
804.0656	-0.0793
804.2358	0.0044
804.4059	0.0622
804.5761	0.0182
804.7462	0.0238
804.9163	-0.0025
805.0864	-0.0147
805.2564	-0.0338
805.4264	-0.0622
805.5965	0.0435
805.7665	-0.0456
805.9364	0.0038
806.1064	0.0258
806.2763	0.0337
806.4462	0.0088
806.6161	0.0219
806.786	-0.0095
806.9559	-0.0196
807.1257	-0.028
807.2955	-0.029
807.4653	-0.0193
807.6351	-0.0056
807.8048	0.0061
807.9746	0.0005
808.1443	-0.0345
808.314	0.0148
808.4837	0.1043
808.6533	-0.0237
808.8229	0.0104
808.9926	0.086
809.1622	0.0449
809.3317	-0.0821
809.5013	-0.0883
809.6708	-0.0059
809.8403	0.0291
810.0098	-0.015
810.1793	-0.0896
810.3488	0.0205
810.5182	0.0795
810.6876	-0.0237
810.857	-0.0164
811.0264	-0.0089
811.1958	0.1162
811.3651	-0.0666
811.5344	0.2266
811.7037	0.1432
811.873	0.0126
812.0422	-0.1003
812.2115	-0.0496
812.3807	-0.0361
812.5499	-0.029
812.7191	0.0742
812.8882	0.0108
813.0574	0.0365
813.2265	-0.0096
813.3956	-0.0446
813.5646	0.1
813.7337	0.0541
813.9027	-0.0477
814.0718	0.0642
814.2407	-0.0009
814.4097	0.0566
814.5787	0.0996
814.7476	0.0565
814.9165	0.0177
815.0854	-0.0355
815.2543	-0.0859
815.4232	0.0903
815.592	0.0297
815.7608	-0.1419
815.9296	0.0676
816.0984	0.0015
816.2671	-0.3345
816.4359	0.1101
816.6046	0.0264
816.7733	-0.0121
816.942	-0.0518
817.1106	0.0678
817.2793	0.2374
817.4479	-0.0785
817.6165	-0.0698
817.785	0.108
817.9536	-0.118
818.1221	0.0134
818.2906	-0.1358
818.4591	-0.0292
818.6276	-0.0182
818.7961	-0.0412
818.9645	0.0167
819.1329	-0.0681
819.3013	0.0703
819.4697	-0.1452
819.638	-0.0913
819.8064	0.0147
819.9747	-0.0019
820.143	-0.0472
820.3113	0.1198
820.4795	0.0753
820.6477	0.055
820.816	0.0101
820.9842	0.0193
821.1523	0.0033
821.3205	0.0111
821.4886	-0.071
821.6567	-0.09
821.8248	0.1896
821.9929	-0.1213
822.1609	-0.1334
822.329	-0.0076
822.497	0.0618
822.665	-0.0447
822.833	0.0622
823.0009	-0.0357
823.1688	0.1588
823.3367	-0.1916
823.5046	-0.0807
823.6725	-0.0052
823.8404	-0.0214
824.0082	-0.0124
824.176	-0.1387
824.3438	0.0982
824.5116	-0.0909
824.6793	0.0852
824.847	0.1552
825.0147	0.0023
825.1824	0.026
825.3501	-0.1423
825.5177	-0.0449
825.6854	-0.1201
825.853	-0.0055
826.0206	-0.1123
826.1881	-0.0435
826.3557	0.0347
826.5232	0.0195
826.6907	0.0698
826.8582	-0.1077
827.0257	0.0965
827.1931	0.1106
827.3605	0.1051
827.528	-0.0281
827.6953	-0.3352
827.8627	-0.0422
828.03	0.1284
828.1974	-0.0582
828.3647	0.1797
828.532	0.0671
828.6992	-0.0072
828.8665	-0.1305
829.0337	0.1176
829.2009	-0.0872
829.3681	0.0209
829.5352	-0.2228
829.7024	0.0243
829.8695	-0.1289
830.0366	0.164
830.2037	0.0347
830.3707	0.1694
830.5378	0.1233
830.7048	-0.0748
830.8718	0.0062
831.0388	0.0593
831.2057	0.2843
831.3727	-0.4275
831.5396	0.1187
831.7065	-0.9408
831.8734	0.228
832.0402	0.0306
832.2071	-0.2187
832.3739	-0.1424
832.5407	-2.1101
832.7075	-0.4107
832.8742	-0.035
833.041	-0.0745
833.2077	1.531
833.3744	0.0679
833.541	0.0066
833.7077	-0.0978
833.8743	-0.0822
834.0409	0.0445
834.2075	-0.0384
834.3741	-0.283
834.5407	-0.0404
834.7072	0.018
834.8737	0.2205
835.0402	0.8655
835.2067	-0.0104
835.3731	0.0302
835.5395	-0.0945
835.706	-0.1573
835.8723	-0.0736
836.0387	0.1508
836.2051	0.4244
836.3714	0.0617
836.5377	0.303
836.704	-0.0537
836.8703	-0.0603
837.0365	-0.5379
837.2027	-0.0046
837.3689	0.1052
837.5351	0.0791
837.7013	-0.0524
837.8674	-0.106
838.0335	0.0022
838.1997	-0.2773
838.3657	-0
838.5318	-0.2048
838.6978	-0.0728
838.8639	-0.4399
839.0299	0.1682
839.1958	0.2584
839.3618	-0.2044
839.5277	0.0026
839.6937	-0.1228
839.8596	-0.4052
840.0254	-0.0522
840.1913	-0.2737
840.3571	0.081
840.523	-0
840.6888	-0.0498
840.8545	-0.3568
841.0203	-0.0848
841.186	0.1034
841.3517	-0.1779
841.5174	-0.057
841.6831	0.0369
841.8488	-0.2228
842.0144	0.014
842.18	0.2409
842.3456	-0.4463
842.5112	-0
842.6767	0.2122
842.8422	-0.0781
843.0077	0.2332
843.1732	-0.3955
843.3387	-0.301
843.5042	-0
843.6696	-0.2443
843.835	-0.301
844.0004	-0.3306
844.1657	-0.9813
844.3311	-0.2722
844.4964	0.2204
844.6617	0.4705
844.827	0.1782
844.9923	0.2106
845.1575	-0.6403
845.3227	-0.2588
845.4879	-0.3268
845.6531	0.1073
845.8183	0.3728
845.9834	-0
846.1485	0.2578
846.3136	-0.2044
846.4787	0.6052
846.6438	-0.0453
846.8088	0.1896
846.9738	-0.8325
847.1388	0.371
847.3038	0.4246
847.4687	-0
847.6337	-0.3586
847.7986	-0.4131
847.9635	0.1288
848.1284	0.1067
848.2932	0.0713
848.458	-0
848.6228	0.2176
848.7876	-0
848.9524	-0
849.1172	-1.827
849.2819	-0
849.4466	0.1812
849.6113	0.2083
849.7759	-0
849.9406	-0.168
850.1052	-1.2182
850.2698	-0
850.4344	-0.3288
850.599	-0.1044
850.7635	1.0842
850.928	0.0577
851.0925	0.1566
851.257	-0.1321
851.4215	-0.0219
851.5859	0.1137
851.7503	-0
851.9147	-0.3157
852.0791	-0.0607
852.2434	0.0298
852.4078	-0
852.5721	0.4182
852.7364	-0.1382
852.9007	-0.1921
853.0649	-0
853.2291	0.0644
853.3934	-0
853.5575	-0.2522
853.7217	0.4249
853.8859	-0.4403
854.05	-0.5885
854.2141	-0
854.3782	-0.217
854.5423	0.0642
854.7063	-0.1183
854.8703	0.4557
855.0343	-0.1603
855.1983	0.0513
855.3623	-0.0049
855.5262	-0
855.6901	0.0342
855.854	0.133
856.0179	-0.38
856.1818	0.0909
856.3456	0.0393
856.5094	-0.5004
856.6732	-0
856.837	-1.4638
857.0008	-0
857.1645	-0.2417
857.3282	-0
857.4919	-0.0757
857.6556	-0.3694
857.8192	-0.1746
857.9828	-0.2408
858.1465	-0.1655
858.31	-0
858.4736	-0.5116
858.6372	0.184
858.8007	0.1557
858.9642	0.1957
859.1277	-0
859.2911	-0.5163
859.4546	-0
859.618	-0
859.7814	-0
859.9448	-0
860.1081	-0
860.2715	-1.8486
860.4348	0.1804
860.5981	1.0619
860.7614	-0
860.9246	0.3175
861.0879	-0
861.2511	-0
861.4143	-0
861.5774	-0
861.7406	2.1123
861.9037	-0
862.0668	-0.8849
862.2299	-0.0376
862.393	-0
862.556	-0
862.7191	-0.5163
862.8821	0.1359
863.0451	-0.0067
863.208	-0.4463
863.371	0.8667
863.5339	0.2469
863.6968	-0
863.8597	-0.0899
864.0225	-0
864.1854	-0
864.3482	0.0764
864.511	-0.0893
864.6737	-0
864.8365	-0.163
864.9992	-0
865.1619	-0
865.3246	-1.3263
865.4873	-0.2053
865.65	0.9777
865.8126	-0
865.9752	-0.3665
866.1378	-0.1063
866.3004	-0.2776
866.4629	-1.3193
866.6254	-0.2408
866.7879	-0.0697
866.9504	0.7545
867.1129	-0.4507
867.2753	-0.2727
867.4377	-0.2082
867.6001	-0
867.7625	-0.0761
867.9249	0.0712
868.0872	0.1305
868.2495	-0
868.4118	1.0249
868.5741	-0.4496
868.7363	-0
868.8986	-0
869.0608	-0
869.223	-0.0479
869.3851	-0
869.5473	-0.2263
869.7094	0.2668
869.8715	-0
870.0336	0.0609
870.1957	0.0813
870.3577	0.2113
870.5197	-0.2342
870.6817	-0.6752
870.8437	0.1314
871.0057	0.9666
871.1676	0.2557
871.3295	-0.301
871.4914	-0
871.6533	-0
871.8151	0.3771
871.977	0.2304
872.1388	0.0093
872.3006	-0.1349
872.4623	-0.7745
872.6241	-0.196
872.7858	-0.1074
872.9475	-0
873.1092	0.4994
873.2709	1.1053
873.4325	-1.6681
873.5941	-0
873.7557	0.3859
873.9173	-0
874.0789	0.0106
874.2404	-0
874.4019	-0.1056
874.5634	0.5918
874.7249	2.2492
874.8863	-0
875.0478	-0.4468
875.2092	0.7532
875.3706	0.1134
875.5319	-0
875.6933	2.2636
875.8546	-0.2702
876.0159	0.1277
876.1772	-0.5392
876.3385	0.5441
876.4997	-0
876.6609	0.0077
876.8221	-0
876.9833	-0
877.1445	0.809
877.3056	-0.9335
877.4667	-0
877.6278	0.2914
877.7889	-0.3098
877.9499	0.3321
878.111	-0.6633
878.272	0.0414
878.433	-0.2625
878.5939	0.156
878.7549	0.3798
878.9158	0.1898
879.0767	-0
879.2376	-0
879.3984	0.318
879.5593	-0
879.7201	-1.9077
879.8809	-0.3505
880.0417	-0.056
880.2024	1.0577
880.3632	-0.5291
880.5239	0.1948
880.6846	0.1436
880.8452	0.1289
881.0059	-0.971
881.1665	-0.2405
881.3271	0.271
881.4877	-0.0137
881.6483	-0
881.8088	-0
881.9693	-0
882.1298	-0
882.2903	-0
