Data from D4ACN5uM440nmA_Absorbance_13-50-24-472.txt Node
Date: Fri Feb 21 13:50:24 GMT 2025
User: LASERRRRR
Spectrometer: FLMT03099
Trigger mode: 0
Integration Time (sec): 1.500000E-2
Scans to average: 1
Electric dark correction enabled: true
Nonlinearity correction enabled: false
Boxcar width: 0
XAxis mode: Wavelengths
Number of Pixels in Spectrum: 3648
>>>>>Begin Spectral Data<<<<<
179.3399	1.1809
179.5586	1.1809
179.7771	1.1809
179.9957	0.0306
180.2143	-0
180.4329	0.4168
180.6514	-0
180.8699	-0.0528
181.0885	-0
181.307	0.3065
181.5255	0.0273
181.744	-0
181.9625	1.5675
182.181	0.5557
182.3994	-0.1657
182.6179	-0.6545
182.8363	-0
183.0547	0.7547
183.2732	0.1168
183.4916	0.1646
183.71	0.2408
183.9284	0.0947
184.1467	0.1039
184.3651	0.055
184.5835	0.3309
184.8018	0.0522
185.0201	0.2478
185.2385	0.1391
185.4568	0.1549
185.6751	0.1549
185.8934	0.1443
186.1117	-0.038
186.3299	0.443
186.5482	0.1474
186.7664	0.161
186.9847	-0.08
187.2029	0.4488
187.4211	-0.0069
187.6393	0.3061
187.8575	0.3899
188.0757	0.3831
188.2939	0.1852
188.512	0.225
188.7302	0.1362
188.9483	0.539
189.1665	0.4277
189.3846	0.1661
189.6027	0.0829
189.8208	0.2221
190.0389	0.026
190.257	0.1344
190.475	0.1095
190.6931	0.1569
190.9111	0.271
191.1292	0.1965
191.3472	0.215
191.5652	0.2706
191.7832	0.108
192.0012	0.1116
192.2192	0.178
192.4371	0.1312
192.6551	0.2111
192.873	0.2185
193.091	0.1278
193.3089	0.1784
193.5268	0.2083
193.7447	0.189
193.9626	0.2875
194.1805	0.3733
194.3984	0.198
194.6162	0.247
194.8341	0.3279
195.0519	0.1727
195.2697	0.3842
195.4875	0.2747
195.7054	0.2812
195.9231	0.2741
196.1409	0.3448
196.3587	0.3262
196.5765	0.3666
196.7942	0.334
197.012	0.3609
197.2297	0.3211
197.4474	0.4125
197.6651	0.2988
197.8828	0.3823
198.1005	0.4364
198.3182	0.3726
198.5358	0.4213
198.7535	0.3942
198.9711	0.382
199.1888	0.3653
199.4064	0.3478
199.624	0.3429
199.8416	0.3514
200.0592	0.4094
200.2767	0.4087
200.4943	0.443
200.7119	0.3892
200.9294	0.4029
201.1469	0.4138
201.3645	0.4352
201.582	0.4508
201.7995	0.4355
202.017	0.3897
202.2344	0.4306
202.4519	0.414
202.6694	0.4319
202.8868	0.3817
203.1042	0.4451
203.3217	0.3951
203.5391	0.3755
203.7565	0.3772
203.9739	0.3675
204.1913	0.3423
204.4086	0.3567
204.626	0.3313
204.8433	0.3497
205.0607	0.3677
205.278	0.3301
205.4953	0.3389
205.7126	0.3358
205.9299	0.3339
206.1472	0.3285
206.3644	0.3381
206.5817	0.3291
206.7989	0.3489
207.0162	0.3185
207.2334	0.3416
207.4506	0.3314
207.6678	0.3184
207.885	0.303
208.1022	0.321
208.3194	0.2912
208.5365	0.2941
208.7537	0.279
208.9708	0.306
209.1879	0.2747
209.405	0.2994
209.6222	0.2756
209.8392	0.3044
210.0563	0.2669
210.2734	0.2801
210.4905	0.2583
210.7075	0.2632
210.9245	0.2499
211.1416	0.2715
211.3586	0.2838
211.5756	0.2535
211.7926	0.2763
212.0096	0.2908
212.2265	0.2802
212.4435	0.2575
212.6604	0.26
212.8774	0.2631
213.0943	0.2512
213.3112	0.2525
213.5281	0.2484
213.745	0.2417
213.9619	0.2434
214.1788	0.2812
214.3956	0.2566
214.6125	0.2636
214.8293	0.261
215.0461	0.264
215.2629	0.2469
215.4798	0.2412
215.6965	0.2404
215.9133	0.2602
216.1301	0.2487
216.3469	0.2425
216.5636	0.2482
216.7803	0.2491
216.9971	0.2526
217.2138	0.2543
217.4305	0.2591
217.6472	0.2302
217.8639	0.2565
218.0805	0.2656
218.2972	0.2548
218.5138	0.2473
218.7305	0.2532
218.9471	0.2479
219.1637	0.2716
219.3803	0.265
219.5969	0.2464
219.8135	0.2731
220.0301	0.2529
220.2466	0.255
220.4632	0.2587
220.6797	0.2655
220.8962	0.2659
221.1127	0.2885
221.3292	0.2687
221.5457	0.265
221.7622	0.2743
221.9787	0.2769
222.1951	0.2686
222.4116	0.2824
222.628	0.2909
222.8444	0.2906
223.0608	0.2834
223.2772	0.2821
223.4936	0.2705
223.71	0.2829
223.9264	0.2919
224.1427	0.2882
224.3591	0.2901
224.5754	0.2824
224.7917	0.2971
225.008	0.2991
225.2243	0.3074
225.4406	0.2952
225.6569	0.3035
225.8732	0.3083
226.0894	0.3042
226.3057	0.3157
226.5219	0.3133
226.7381	0.3264
226.9543	0.3097
227.1705	0.3197
227.3867	0.326
227.6029	0.3185
227.8191	0.3354
228.0352	0.3448
228.2513	0.347
228.4675	0.3472
228.6836	0.3466
228.8997	0.3435
229.1158	0.3509
229.3319	0.3654
229.548	0.3556
229.764	0.3544
229.9801	0.3684
230.1961	0.3675
230.4121	0.3686
230.6282	0.3934
230.8442	0.3806
231.0602	0.3891
231.2761	0.3779
231.4921	0.3927
231.7081	0.3843
231.924	0.3961
232.14	0.4051
232.3559	0.4114
232.5718	0.413
232.7877	0.4034
233.0036	0.4038
233.2195	0.4153
233.4353	0.4155
233.6512	0.4111
233.867	0.4124
234.0829	0.4357
234.2987	0.4278
234.5145	0.4255
234.7303	0.4353
234.9461	0.4316
235.1619	0.4409
235.3776	0.4389
235.5934	0.4344
235.8091	0.4321
236.0249	0.4469
236.2406	0.4442
236.4563	0.4507
236.672	0.4386
236.8877	0.4488
237.1034	0.446
237.319	0.4561
237.5347	0.4491
237.7503	0.4491
237.966	0.463
238.1816	0.4454
238.3972	0.4575
238.6128	0.4704
238.8284	0.4646
239.0439	0.4648
239.2595	0.4634
239.475	0.4624
239.6906	0.4626
239.9061	0.4671
240.1216	0.4646
240.3371	0.4627
240.5526	0.4539
240.7681	0.4633
240.9836	0.4573
241.199	0.4502
241.4145	0.4488
241.6299	0.4489
241.8453	0.4429
242.0607	0.427
242.2761	0.4356
242.4915	0.4203
242.7069	0.4131
242.9223	0.4253
243.1376	0.4091
243.353	0.4009
243.5683	0.3894
243.7836	0.3809
243.9989	0.3736
244.2142	0.369
244.4295	0.3674
244.6448	0.3601
244.86	0.3427
245.0753	0.336
245.2905	0.3383
245.5057	0.3282
245.721	0.3257
245.9362	0.3236
246.1514	0.3121
246.3665	0.3123
246.5817	0.3018
246.7969	0.2921
247.012	0.2849
247.2271	0.2897
247.4423	0.2801
247.6574	0.2814
247.8725	0.2692
248.0876	0.2679
248.3026	0.2677
248.5177	0.2546
248.7328	0.2539
248.9478	0.2475
249.1628	0.2495
249.3779	0.24
249.5929	0.2372
249.8079	0.2364
250.0228	0.2248
250.2378	0.2326
250.4528	0.2244
250.6677	0.2185
250.8827	0.2137
251.0976	0.2163
251.3125	0.2217
251.5274	0.2094
251.7423	0.2071
251.9572	0.2047
252.172	0.2072
252.3869	0.2072
252.6017	0.1995
252.8166	0.1971
253.0314	0.1985
253.2462	0.1968
253.461	0.1954
253.6758	0.1948
253.8906	0.1962
254.1053	0.1955
254.3201	0.1941
254.5348	0.178
254.7496	0.1847
254.9643	0.1939
255.179	0.1864
255.3937	0.1825
255.6083	0.1937
255.823	0.1827
256.0377	0.1815
256.2523	0.18
256.467	0.1892
256.6816	0.1792
256.8962	0.1894
257.1108	0.1831
257.3254	0.1806
257.54	0.1757
257.7545	0.186
257.9691	0.1769
258.1836	0.1736
258.3981	0.1801
258.6127	0.176
258.8272	0.1795
259.0417	0.1755
259.2561	0.1788
259.4706	0.1762
259.6851	0.1743
259.8995	0.1735
260.114	0.1779
260.3284	0.1781
260.5428	0.1797
260.7572	0.1756
260.9716	0.1842
261.186	0.1765
261.4003	0.1751
261.6147	0.1757
261.829	0.1765
262.0433	0.1748
262.2577	0.1746
262.472	0.1706
262.6863	0.1778
262.9005	0.1779
263.1148	0.1767
263.3291	0.1766
263.5433	0.1772
263.7576	0.1743
263.9718	0.1738
264.186	0.1727
264.4002	0.1795
264.6144	0.1777
264.8286	0.1806
265.0427	0.1756
265.2569	0.1784
265.471	0.1781
265.6851	0.1783
265.8993	0.178
266.1134	0.1788
266.3275	0.1807
266.5415	0.1766
266.7556	0.1788
266.9697	0.1825
267.1837	0.1795
267.3978	0.1812
267.6118	0.168
267.8258	0.1762
268.0398	0.1785
268.2538	0.1815
268.4677	0.1735
268.6817	0.1725
268.8957	0.1662
269.1096	0.1648
269.3235	0.1746
269.5374	0.1705
269.7514	0.1724
269.9652	0.1687
270.1791	0.1712
270.393	0.1676
270.6068	0.1681
270.8207	0.1658
271.0345	0.1693
271.2483	0.1686
271.4622	0.17
271.676	0.1665
271.8897	0.1637
272.1035	0.1716
272.3173	0.168
272.531	0.1667
272.7448	0.1667
272.9585	0.162
273.1722	0.1617
273.3859	0.1698
273.5996	0.167
273.8133	0.1718
274.0269	0.1645
274.2406	0.1668
274.4542	0.1654
274.6679	0.1706
274.8815	0.1709
275.0951	0.1722
275.3087	0.1732
275.5223	0.1689
275.7358	0.1712
275.9494	0.1717
276.1629	0.1769
276.3765	0.1708
276.59	0.1694
276.8035	0.1681
277.017	0.1737
277.2305	0.1752
277.444	0.1688
277.6574	0.1747
277.8709	0.1743
278.0843	0.1756
278.2978	0.176
278.5112	0.1748
278.7246	0.1706
278.938	0.1719
279.1513	0.1756
279.3647	0.1822
279.5781	0.1757
279.7914	0.172
280.0047	0.1744
280.2181	0.1761
280.4314	0.174
280.6447	0.1758
280.8579	0.1737
281.0712	0.1712
281.2845	0.1766
281.4977	0.177
281.711	0.1787
281.9242	0.1757
282.1374	0.1739
282.3506	0.1804
282.5638	0.1805
282.7769	0.1757
282.9901	0.1791
283.2033	0.182
283.4164	0.1744
283.6295	0.1793
283.8426	0.1769
284.0557	0.1868
284.2688	0.1784
284.4819	0.1794
284.695	0.1889
284.908	0.1848
285.1211	0.1846
285.3341	0.1841
285.5471	0.1824
285.7601	0.1852
285.9731	0.1837
286.1861	0.188
286.3991	0.1897
286.612	0.1856
286.825	0.1871
287.0379	0.1834
287.2508	0.1879
287.4637	0.1929
287.6766	0.191
287.8895	0.1836
288.1024	0.1932
288.3152	0.1928
288.5281	0.1826
288.7409	0.1894
288.9538	0.1898
289.1666	0.1918
289.3794	0.1928
289.5922	0.1915
289.8049	0.1911
290.0177	0.1924
290.2304	0.1911
290.4432	0.1973
290.6559	0.1964
290.8686	0.1955
291.0813	0.1905
291.294	0.2001
291.5067	0.1924
291.7194	0.1923
291.932	0.1853
292.1447	0.1944
292.3573	0.1928
292.5699	0.1959
292.7825	0.1921
292.9951	0.1979
293.2077	0.1909
293.4203	0.1939
293.6328	0.1963
293.8454	0.1996
294.0579	0.1924
294.2704	0.1988
294.4829	0.1944
294.6954	0.1965
294.9079	0.1916
295.1204	0.1958
295.3328	0.2007
295.5453	0.1924
295.7577	0.1995
295.9701	0.1931
296.1825	0.2004
296.3949	0.1995
296.6073	0.1886
296.8197	0.1959
297.0321	0.1896
297.2444	0.1895
297.4567	0.1986
297.6691	0.196
297.8814	0.1973
298.0937	0.1938
298.306	0.1954
298.5182	0.1968
298.7305	0.1966
298.9428	0.1978
299.155	0.1889
299.3672	0.1932
299.5794	0.1992
299.7916	0.1945
300.0038	0.1918
300.216	0.1912
300.4282	0.1894
300.6403	0.1956
300.8525	0.1949
301.0646	0.1937
301.2767	0.192
301.4888	0.1948
301.7009	0.1957
301.913	0.1974
302.125	0.1948
302.3371	0.1949
302.5491	0.1959
302.7612	0.201
302.9732	0.1958
303.1852	0.1908
303.3972	0.1944
303.6092	0.1909
303.8211	0.191
304.0331	0.1922
304.245	0.1915
304.457	0.1913
304.6689	0.1947
304.8808	0.1873
305.0927	0.1883
305.3046	0.1902
305.5164	0.1866
305.7283	0.1828
305.9401	0.1747
306.152	0.1821
306.3638	0.1824
306.5756	0.1821
306.7874	0.1793
306.9992	0.1758
307.2109	0.1724
307.4227	0.168
307.6344	0.1766
307.8462	0.1709
308.0579	0.1726
308.2696	0.1647
308.4813	0.1711
308.693	0.1647
308.9046	0.1634
309.1163	0.1573
309.328	0.163
309.5396	0.1544
309.7512	0.1502
309.9628	0.1523
310.1744	0.1492
310.386	0.1445
310.5976	0.1467
310.8091	0.1464
311.0207	0.1442
311.2322	0.1424
311.4437	0.1451
311.6552	0.1416
311.8667	0.146
312.0782	0.1375
312.2897	0.141
312.5012	0.1419
312.7126	0.1289
312.924	0.1378
313.1355	0.1353
313.3469	0.1296
313.5583	0.1298
313.7696	0.129
313.981	0.1359
314.1924	0.13
314.4037	0.1231
314.6151	0.1242
314.8264	0.1319
315.0377	0.1258
315.249	0.1314
315.4603	0.1238
315.6716	0.1319
315.8828	0.1234
316.0941	0.1273
316.3053	0.12
316.5165	0.1269
316.7277	0.1233
316.9389	0.1227
317.1501	0.1196
317.3613	0.1227
317.5724	0.1241
317.7836	0.1236
317.9947	0.1222
318.2058	0.1219
318.417	0.1194
318.6281	0.1185
318.8391	0.1246
319.0502	0.1195
319.2613	0.1161
319.4723	0.1198
319.6834	0.1229
319.8944	0.1149
320.1054	0.1164
320.3164	0.1167
320.5274	0.1162
320.7383	0.1228
320.9493	0.1222
321.1602	0.1239
321.3712	0.1199
321.5821	0.1188
321.793	0.1296
322.0039	0.1195
322.2148	0.121
322.4257	0.1185
322.6365	0.1117
322.8474	0.1251
323.0582	0.1233
323.269	0.1206
323.4798	0.1278
323.6906	0.1163
323.9014	0.1183
324.1122	0.1207
324.3229	0.1254
324.5337	0.1263
324.7444	0.1241
324.9551	0.1224
325.1658	0.1198
325.3765	0.121
325.5872	0.1225
325.7979	0.1234
326.0085	0.1251
326.2192	0.1177
326.4298	0.1262
326.6404	0.131
326.851	0.1232
327.0616	0.1286
327.2722	0.1261
327.4828	0.1289
327.6933	0.1356
327.9039	0.1261
328.1144	0.1253
328.3249	0.1289
328.5354	0.1232
328.7459	0.1274
328.9564	0.1198
329.1669	0.1296
329.3773	0.126
329.5878	0.1264
329.7982	0.1254
330.0086	0.1307
330.219	0.1251
330.4294	0.1321
330.6398	0.1291
330.8502	0.1349
331.0605	0.126
331.2708	0.1268
331.4812	0.128
331.6915	0.1318
331.9018	0.1303
332.1121	0.1286
332.3224	0.1318
332.5326	0.1212
332.7429	0.133
332.9531	0.1308
333.1633	0.1293
333.3735	0.1289
333.5837	0.1309
333.7939	0.1311
334.0041	0.1361
334.2143	0.1332
334.4244	0.1407
334.6346	0.1297
334.8447	0.127
335.0548	0.1323
335.2649	0.1372
335.475	0.1364
335.685	0.1325
335.8951	0.1277
336.1051	0.1331
336.3152	0.135
336.5252	0.135
336.7352	0.1304
336.9452	0.1361
337.1552	0.1329
337.3652	0.1382
337.5751	0.1302
337.7851	0.1355
337.995	0.1377
338.2049	0.1354
338.4148	0.14
338.6247	0.1407
338.8346	0.1385
339.0445	0.1326
339.2543	0.1382
339.4642	0.1346
339.674	0.1373
339.8838	0.1381
340.0936	0.1383
340.3034	0.1349
340.5132	0.1311
340.7229	0.1366
340.9327	0.149
341.1424	0.1375
341.3522	0.1367
341.5619	0.1424
341.7716	0.1438
341.9813	0.1476
342.1909	0.1487
342.4006	0.1489
342.6102	0.1443
342.8199	0.1418
343.0295	0.1434
343.2391	0.1537
343.4487	0.1466
343.6583	0.1525
343.8679	0.1399
344.0774	0.1469
344.287	0.1441
344.4965	0.1516
344.706	0.15
344.9155	0.1492
345.125	0.1549
345.3345	0.1539
345.544	0.1548
345.7534	0.1462
345.9629	0.154
346.1723	0.1567
346.3817	0.1524
346.5911	0.1598
346.8005	0.1555
347.0099	0.1592
347.2193	0.1674
347.4286	0.1626
347.638	0.1638
347.8473	0.1684
348.0566	0.1623
348.2659	0.1629
348.4752	0.1664
348.6845	0.1594
348.8937	0.1634
349.103	0.1655
349.3122	0.1649
349.5214	0.1714
349.7306	0.1715
349.9398	0.1651
350.149	0.1652
350.3582	0.1771
350.5674	0.1707
350.7765	0.176
350.9856	0.1624
351.1948	0.173
351.4039	0.174
351.613	0.1737
351.822	0.1836
352.0311	0.1756
352.2402	0.1747
352.4492	0.1828
352.6582	0.1824
352.8672	0.1766
353.0762	0.1752
353.2852	0.1889
353.4942	0.1871
353.7032	0.1879
353.9121	0.1797
354.1211	0.1798
354.33	0.1839
354.5389	0.1769
354.7478	0.1803
354.9567	0.1849
355.1655	0.1816
355.3744	0.1836
355.5833	0.1796
355.7921	0.1928
356.0009	0.1879
356.2097	0.1761
356.4185	0.1875
356.6273	0.1912
356.8361	0.1899
357.0448	0.1853
357.2536	0.1913
357.4623	0.1915
357.671	0.1955
357.8797	0.1928
358.0884	0.1938
358.2971	0.1938
358.5057	0.1934
358.7144	0.1954
358.923	0.1963
359.1316	0.2062
359.3402	0.2016
359.5488	0.2034
359.7574	0.2003
359.966	0.1972
360.1746	0.2046
360.3831	0.2144
360.5916	0.2042
360.8002	0.2151
361.0087	0.2054
361.2172	0.208
361.4256	0.2054
361.6341	0.2144
361.8426	0.2173
362.051	0.2146
362.2594	0.2175
362.4678	0.2157
362.6762	0.2205
362.8846	0.2121
363.093	0.2191
363.3014	0.2225
363.5097	0.2238
363.718	0.2295
363.9264	0.226
364.1347	0.2239
364.343	0.2258
364.5513	0.2301
364.7595	0.2292
364.9678	0.2268
365.176	0.2309
365.3842	0.2258
365.5925	0.2295
365.8007	0.2365
366.0089	0.2436
366.217	0.2371
366.4252	0.2363
366.6333	0.238
366.8415	0.2432
367.0496	0.2405
367.2577	0.2376
367.4658	0.236
367.6739	0.2408
367.882	0.2596
368.09	0.2416
368.2981	0.2543
368.5061	0.25
368.7141	0.2479
368.9221	0.2535
369.1301	0.2455
369.3381	0.2597
369.5461	0.2531
369.754	0.2554
369.962	0.2513
370.1699	0.2638
370.3778	0.258
370.5857	0.249
370.7936	0.2645
371.0015	0.2559
371.2093	0.2605
371.4172	0.2571
371.625	0.2587
371.8328	0.2619
372.0406	0.2622
372.2484	0.2613
372.4562	0.2686
372.664	0.276
372.8717	0.2679
373.0795	0.2687
373.2872	0.2789
373.4949	0.2754
373.7026	0.2715
373.9103	0.2684
374.118	0.2813
374.3256	0.2733
374.5333	0.2772
374.7409	0.2712
374.9485	0.2716
375.1561	0.2792
375.3637	0.2786
375.5713	0.281
375.7789	0.2777
375.9864	0.2729
376.194	0.2874
376.4015	0.2829
376.609	0.2803
376.8165	0.2822
377.024	0.2857
377.2315	0.2784
377.4389	0.2843
377.6464	0.2863
377.8538	0.2895
378.0612	0.2889
378.2686	0.2854
378.476	0.2945
378.6834	0.2912
378.8908	0.2984
379.0981	0.2973
379.3055	0.3022
379.5128	0.2851
379.7201	0.2945
379.9274	0.3017
380.1347	0.2925
380.342	0.3039
380.5492	0.3036
380.7565	0.2987
380.9637	0.309
381.1709	0.2941
381.3781	0.3021
381.5853	0.2903
381.7925	0.3038
381.9997	0.3094
382.2068	0.3023
382.4139	0.3052
382.6211	0.3036
382.8282	0.3172
383.0353	0.2993
383.2424	0.3041
383.4494	0.3094
383.6565	0.312
383.8635	0.309
384.0706	0.3166
384.2776	0.3164
384.4846	0.3137
384.6916	0.3112
384.8986	0.3152
385.1055	0.3202
385.3125	0.3154
385.5194	0.3131
385.7263	0.3132
385.9333	0.3138
386.1402	0.3127
386.347	0.3106
386.5539	0.3065
386.7608	0.3112
386.9676	0.3165
387.1744	0.3051
387.3813	0.317
387.5881	0.304
387.7948	0.3217
388.0016	0.3156
388.2084	0.3074
388.4151	0.3081
388.6219	0.296
388.8286	0.2966
389.0353	0.3051
389.242	0.3153
389.4487	0.3056
389.6553	0.298
389.862	0.3104
390.0686	0.3086
390.2753	0.3142
390.4819	0.3089
390.6885	0.3056
390.8951	0.3044
391.1016	0.3005
391.3082	0.303
391.5147	0.2995
391.7213	0.2973
391.9278	0.2919
392.1343	0.2967
392.3408	0.2972
392.5473	0.2883
392.7537	0.291
392.9602	0.2868
393.1666	0.289
393.373	0.2813
393.5794	0.2852
393.7858	0.2909
393.9922	0.2899
394.1986	0.2747
394.4049	0.2835
394.6113	0.2923
394.8176	0.2806
395.0239	0.2742
395.2302	0.2858
395.4365	0.2808
395.6428	0.2789
395.8491	0.2911
396.0553	0.2732
396.2615	0.2866
396.4678	0.2779
396.674	0.2762
396.8802	0.2688
397.0863	0.2725
397.2925	0.2774
397.4987	0.2671
397.7048	0.28
397.9109	0.2645
398.117	0.2687
398.3231	0.2681
398.5292	0.2557
398.7353	0.2671
398.9413	0.269
399.1474	0.2741
399.3534	0.2705
399.5594	0.2731
399.7654	0.2598
399.9714	0.2683
400.1774	0.254
400.3833	0.2701
400.5893	0.2728
400.7952	0.2765
401.0011	0.2621
401.207	0.2717
401.4129	0.2633
401.6188	0.2643
401.8247	0.2734
402.0305	0.2581
402.2364	0.2654
402.4422	0.2608
402.648	0.272
402.8538	0.2637
403.0596	0.2693
403.2654	0.2683
403.4711	0.2581
403.6768	0.2657
403.8826	0.2711
404.0883	0.2604
404.294	0.2718
404.4997	0.2647
404.7054	0.2742
404.911	0.2725
405.1167	0.2761
405.3223	0.2617
405.5279	0.2671
405.7335	0.2679
405.9391	0.2616
406.1447	0.2683
406.3502	0.2663
406.5558	0.2592
406.7613	0.2605
406.9668	0.273
407.1724	0.2607
407.3778	0.2626
407.5833	0.2453
407.7888	0.2598
407.9942	0.2667
408.1997	0.2663
408.4051	0.2669
408.6105	0.2667
408.8159	0.2621
409.0213	0.2666
409.2267	0.2695
409.432	0.2606
409.6374	0.2677
409.8427	0.2703
410.048	0.2736
410.2533	0.267
410.4586	0.2625
410.6639	0.2694
410.8691	0.2523
411.0744	0.2671
411.2796	0.2737
411.4848	0.2652
411.69	0.2633
411.8952	0.2625
412.1004	0.2646
412.3056	0.2613
412.5107	0.2677
412.7158	0.2612
412.921	0.2599
413.1261	0.2623
413.3312	0.268
413.5362	0.2685
413.7413	0.2598
413.9464	0.2608
414.1514	0.2597
414.3564	0.2563
414.5614	0.2628
414.7664	0.2628
414.9714	0.2583
415.1764	0.2619
415.3813	0.256
415.5863	0.2598
415.7912	0.2567
415.9961	0.2569
416.201	0.2682
416.4059	0.2488
416.6108	0.2605
416.8156	0.2624
417.0205	0.2521
417.2253	0.2564
417.4301	0.2492
417.6349	0.2565
417.8397	0.2505
418.0445	0.2531
418.2492	0.2568
418.454	0.252
418.6587	0.2595
418.8634	0.2586
419.0681	0.2659
419.2728	0.2528
419.4775	0.2624
419.6822	0.2591
419.8868	0.2511
420.0915	0.2447
420.2961	0.2394
420.5007	0.2444
420.7053	0.2461
420.9099	0.2451
421.1144	0.2485
421.319	0.2531
421.5235	0.2441
421.728	0.2542
421.9325	0.241
422.137	0.2355
422.3415	0.2332
422.546	0.2306
422.7504	0.2395
422.9549	0.2393
423.1593	0.2354
423.3637	0.2342
423.5681	0.2363
423.7725	0.2345
423.9769	0.2401
424.1812	0.2259
424.3856	0.2278
424.5899	0.225
424.7942	0.2325
424.9985	0.2346
425.2028	0.2393
425.4071	0.2383
425.6113	0.226
425.8156	0.2225
426.0198	0.2248
426.224	0.2256
426.4282	0.2157
426.6324	0.2118
426.8366	0.2248
427.0407	0.2164
427.2449	0.2104
427.449	0.2146
427.6531	0.2282
427.8572	0.2162
428.0613	0.2167
428.2654	0.2111
428.4694	0.2117
428.6735	0.2142
428.8775	0.2129
429.0815	0.2114
429.2855	0.1966
429.4895	0.1928
429.6935	0.1984
429.8975	0.1919
430.1014	0.1985
430.3053	0.2116
430.5093	0.2035
430.7132	0.194
430.9171	0.1814
431.1209	0.1975
431.3248	0.1872
431.5286	0.1884
431.7325	0.197
431.9363	0.1837
432.1401	0.1847
432.3439	0.1703
432.5477	0.1769
432.7514	0.1783
432.9552	0.1769
433.1589	0.1649
433.3627	0.1722
433.5664	0.1767
433.7701	0.1602
433.9737	0.1683
434.1774	0.1706
434.3811	0.1592
434.5847	0.1771
434.7883	0.1516
434.9919	0.1618
435.1955	0.1598
435.3991	0.1601
435.6027	0.1507
435.8062	0.1583
436.0098	0.1544
436.2133	0.1525
436.4168	0.1497
436.6203	0.1416
436.8238	0.1463
437.0272	0.1398
437.2307	0.1387
437.4341	0.1427
437.6375	0.1398
437.841	0.1314
438.0443	0.1368
438.2477	0.1282
438.4511	0.1301
438.6545	0.1302
438.8578	0.1354
439.0611	0.1366
439.2644	0.1234
439.4677	0.1288
439.671	0.1205
439.8743	0.121
440.0775	0.1195
440.2808	0.1123
440.484	0.1082
440.6872	0.1114
440.8904	0.1055
441.0936	0.1076
441.2967	0.1004
441.4999	0.102
441.703	0.1068
441.9062	0.0958
442.1093	0.1031
442.3124	0.1021
442.5155	0.0979
442.7185	0.0944
442.9216	0.0914
443.1246	0.0899
443.3276	0.092
443.5307	0.0834
443.7337	0.0937
443.9366	0.0823
444.1396	0.0819
444.3426	0.0799
444.5455	0.0881
444.7484	0.0784
444.9513	0.0794
445.1542	0.0807
445.3571	0.0764
445.56	0.0714
445.7628	0.0676
445.9657	0.0733
446.1685	0.0762
446.3713	0.0752
446.5741	0.0783
446.7769	0.0697
446.9797	0.0677
447.1824	0.0644
447.3852	0.0548
447.5879	0.059
447.7906	0.0575
447.9933	0.0605
448.196	0.0516
448.3986	0.0578
448.6013	0.0606
448.8039	0.0605
449.0066	0.0673
449.2092	0.0666
449.4118	0.0491
449.6143	0.0634
449.8169	0.0497
450.0195	0.0592
450.222	0.0546
450.4245	0.0563
450.627	0.0566
450.8295	0.0551
451.032	0.0436
451.2345	0.0364
451.4369	0.0538
451.6394	0.0506
451.8418	0.0455
452.0442	0.0501
452.2466	0.0341
452.449	0.0321
452.6513	0.0293
452.8537	0.0419
453.056	0.0295
453.2583	0.0316
453.4607	0.0346
453.663	0.0299
453.8652	0.0295
454.0675	0.0434
454.2697	0.0304
454.472	0.0312
454.6742	0.0392
454.8764	0.0365
455.0786	0.031
455.2808	0.027
455.4829	0.0314
455.6851	0.0249
455.8872	0.0184
456.0893	0.029
456.2915	0.0281
456.4935	0.0335
456.6956	0.0247
456.8977	0.0228
457.0997	0.0291
457.3018	0.0202
457.5038	0.0277
457.7058	0.03
457.9078	0.0229
458.1098	0.0249
458.3117	0.0275
458.5137	0.0154
458.7156	0.0221
458.9175	0.0339
459.1194	0.0231
459.3213	0.0167
459.5232	0.0225
459.725	0.0162
459.9269	0.014
460.1287	0.0078
460.3305	0.019
460.5323	0.0171
460.7341	0.0216
460.9359	0.0085
461.1376	0.0209
461.3394	0.0169
461.5411	0.0331
461.7428	0.014
461.9445	0.0158
462.1462	0.0066
462.3479	0.0094
462.5495	0.0182
462.7512	0.0204
462.9528	0.0097
463.1544	0.0152
463.356	0.0064
463.5576	0.0192
463.7592	0.0192
463.9607	0.0124
464.1623	0.0139
464.3638	0.011
464.5653	0.0061
464.7668	0.0158
464.9683	0.0112
465.1697	0.0107
465.3712	0.0137
465.5726	0.0116
465.7741	0.0163
465.9755	0.0128
466.1769	0.0175
466.3782	0.0116
466.5796	0.0149
466.7809	0.0193
466.9823	0.0119
467.1836	0.011
467.3849	0.0088
467.5862	0.0043
467.7875	0.0051
467.9887	0.0175
468.19	0.0157
468.3912	0.0144
468.5924	0.0086
468.7936	0.0146
468.9948	0.0024
469.196	0.0155
469.3972	0.0062
469.5983	0.0033
469.7994	0.0205
470.0006	0.012
470.2017	0.0104
470.4027	0.0146
470.6038	0.0184
470.8049	0.011
471.0059	0.0233
471.2069	0.0044
471.408	0.0127
471.6089	0.0122
471.8099	0.0073
472.0109	0.0181
472.2119	0.0254
472.4128	0.0047
472.6137	0.0056
472.8146	0.0029
473.0155	0.0093
473.2164	0.0077
473.4173	-0.0038
473.6181	0.0022
473.819	0.0058
474.0198	-0.0025
474.2206	0.0012
474.4214	0.0115
474.6222	-0.0009
474.8229	0.0039
475.0237	0.0117
475.2244	0.0177
475.4251	0.0019
475.6258	-0.0067
475.8265	0.0092
476.0272	0.0121
476.2278	0.0069
476.4285	0.0113
476.6291	0.0078
476.8297	0.0057
477.0303	0.0095
477.2309	0.0059
477.4315	0.0119
477.632	0.0012
477.8326	0.0102
478.0331	0.0164
478.2336	0.0018
478.4341	0.009
478.6346	0.0133
478.8351	0.0063
479.0355	0.0109
479.236	0.0191
479.4364	0.0083
479.6368	0.0025
479.8372	0.0062
480.0376	0.0046
480.2379	0.013
480.4383	0.0142
480.6386	-0.0064
480.8389	0.0038
481.0392	0.0041
481.2395	0.008
481.4398	0.0082
481.6401	0.0095
481.8403	0.0038
482.0405	0.0064
482.2408	0.0094
482.441	0.0118
482.6411	0.0096
482.8413	0.0016
483.0415	0.012
483.2416	0.0012
483.4417	0.0048
483.6419	0.0011
483.8419	0.006
484.042	0.0005
484.2421	0.0014
484.4422	0.0044
484.6422	0.0034
484.8422	0.007
485.0422	0.0092
485.2422	0.0024
485.4422	0.0047
485.6422	0.0032
485.8421	0.0053
486.042	0.0127
486.242	0.0012
486.4419	0.0068
486.6417	0.0034
486.8416	0.0063
487.0415	0.0053
487.2413	-0.0039
487.4411	0.011
487.641	-0.0002
487.8408	0.008
488.0405	0.009
488.2403	-0.0036
488.4401	0.0058
488.6398	0.0082
488.8395	0.0036
489.0392	0.0134
489.2389	0.0107
489.4386	0.0014
489.6383	0.0115
489.8379	0.0041
490.0376	0.0024
490.2372	-0.0009
490.4368	-0.004
490.6364	-0.0011
490.836	0.0046
491.0355	-0.0072
491.2351	0.0057
491.4346	0.0065
491.6341	0.0028
491.8336	0.0075
492.0331	0.003
492.2326	0.0112
492.432	0.0122
492.6315	0.0098
492.8309	0.0066
493.0303	0.009
493.2297	0.0021
493.4291	0.0048
493.6284	0.0042
493.8278	-0.004
494.0271	0.0076
494.2264	-0.0005
494.4257	0.0071
494.625	0.0059
494.8243	0.0046
495.0236	0.0062
495.2228	0.008
495.422	0.0075
495.6213	0.0031
495.8205	0.0103
496.0196	0.0037
496.2188	0.0058
496.418	0.004
496.6171	0.006
496.8162	0.0113
497.0153	0.003
497.2144	0.0025
497.4135	0.0038
497.6126	0.0017
497.8116	-0.0049
498.0107	-0.0013
498.2097	0.012
498.4087	0.0086
498.6077	-0.0053
498.8067	0.0083
499.0056	0.0048
499.2046	0.0043
499.4035	0.0131
499.6024	0.0018
499.8013	0.0121
500.0002	0.0145
500.199	0.0131
500.3979	0.0025
500.5967	0.007
500.7956	0.0067
500.9944	0.0049
501.1932	0.0095
501.3919	0.0089
501.5907	0.0083
501.7895	0.0048
501.9882	0.0078
502.1869	0.0093
502.3856	-0
502.5843	0.0068
502.783	-0.0012
502.9816	0.0123
503.1803	0.0136
503.3789	0.0093
503.5775	-0.0042
503.7761	0.0103
503.9747	0.0022
504.1732	0.0021
504.3718	0.0107
504.5703	0.004
504.7689	-0.0001
504.9674	0.011
505.1658	0.0043
505.3643	0.0046
505.5628	0.0087
505.7612	0.0027
505.9597	0.0004
506.1581	0.0105
506.3565	0.0081
506.5549	0.0113
506.7532	0.0001
506.9516	0.0046
507.1499	0.0023
507.3482	0.0016
507.5465	0.0056
507.7448	0.0009
507.9431	0.0107
508.1414	0.0008
508.3396	0.0043
508.5379	0.0048
508.7361	0.0074
508.9343	0.0125
509.1325	0.0104
509.3306	0.0074
509.5288	0.0034
509.7269	0.0159
509.9251	0.0179
510.1232	0.0124
510.3213	0.0128
510.5193	0.0053
510.7174	-0.0025
510.9154	0.0112
511.1135	0.0095
511.3115	-0.0016
511.5095	0.0104
511.7075	0.0064
511.9055	0.0076
512.1034	0.0047
512.3014	-0.0057
512.4993	0.0077
512.6972	0.0077
512.8951	0.0006
513.093	-0.0002
513.2908	0.0156
513.4887	0.0004
513.6865	0.0013
513.8844	0.0102
514.0822	0.0026
514.2799	-0.0055
514.4777	-0.0079
514.6755	0.005
514.8732	0.0045
515.0709	0.0101
515.2687	0.0065
515.4664	0.0063
515.664	0.0112
515.8617	0.0093
516.0594	0.0069
516.257	-0.0019
516.4546	0.0166
516.6522	0.0086
516.8498	0.0016
517.0474	0.0087
517.2449	0.0005
517.4425	0.0083
517.64	0.0056
517.8375	0.0096
518.035	0.0072
518.2325	0.0008
518.43	0.0003
518.6274	0.0059
518.8249	-0.007
519.0223	0.0073
519.2197	0.0023
519.4171	-0.0018
519.6145	0.0102
519.8118	0.0004
520.0092	0.0042
520.2065	0.0139
520.4038	-0.0004
520.6011	0.0062
520.7984	0.0083
520.9956	0.0101
521.1929	0.01
521.3901	0.0136
521.5874	0.0135
521.7846	0
521.9818	-0.0004
522.1789	0.0051
522.3761	0.0156
522.5732	0.0176
522.7704	-0.0009
522.9675	0.0012
523.1646	-0.0013
523.3617	0.0164
523.5587	-0.002
523.7558	0.0085
523.9528	0.0117
524.1498	-0.0005
524.3468	0.0138
524.5438	0.0007
524.7408	-0.0017
524.9378	0.0129
525.1347	0.0064
525.3316	0.0082
525.5285	0.0084
525.7254	0.01
525.9223	0.0091
526.1192	-0.0024
526.316	0.0091
526.5129	0.0139
526.7097	0.0049
526.9065	0.0079
527.1033	0.0037
527.3	-0.0008
527.4968	0.0106
527.6935	-0.0041
527.8903	0.0077
528.087	0.0046
528.2837	0.0099
528.4804	0.0037
528.677	0.0031
528.8737	0.0034
529.0703	0.002
529.2669	0.0084
529.4635	0.0033
529.6601	0.0017
529.8567	0
530.0532	0.0042
530.2498	0.0021
530.4463	-0.0038
530.6428	0.0015
530.8393	0.0076
531.0358	0.0043
531.2322	-0.0037
531.4287	0.0062
531.6251	-0.0088
531.8215	-0.0024
532.0179	0.0145
532.2143	0.0075
532.4107	0.0169
532.607	0.0023
532.8034	0.0065
532.9997	0.0033
533.196	0.0015
533.3923	0.0066
533.5886	0.0006
533.7848	-0.0009
533.9811	0.006
534.1773	-0.0019
534.3735	0.0053
534.5697	0.0005
534.7659	0.0131
534.9621	0.0086
535.1582	-0.0005
535.3544	0.0064
535.5505	0.0125
535.7466	0.0043
535.9427	0.0059
536.1387	0.0007
536.3348	0.0088
536.5308	0.0073
536.7269	0.0093
536.9229	0.0074
537.1189	0.0114
537.3148	0.0088
537.5108	0.0033
537.7068	-0.0011
537.9027	-0.0029
538.0986	0.0065
538.2945	0.002
538.4904	-0.0026
538.6863	0.0028
538.8821	0.0143
539.078	0.0066
539.2738	0.0084
539.4696	-0.0048
539.6654	0.0054
539.8611	0.014
540.0569	0.0049
540.2526	0.0124
540.4484	0.001
540.6441	0.0053
540.8398	0.0166
541.0355	-0.0002
541.2311	0.0079
541.4268	0.0064
541.6224	0.0104
541.818	0.0093
542.0136	0.0109
542.2092	0.0098
542.4048	0.0095
542.6003	0.0012
542.7959	0.0069
542.9914	0.0017
543.1869	0.0028
543.3824	0.0111
543.5779	0.0203
543.7734	0.0121
543.9688	0.0092
544.1642	-0.0013
544.3596	0.0045
544.555	0.0028
544.7504	0.0118
544.9458	0.0006
545.1411	0.0038
545.3365	0.0025
545.5318	0.0016
545.7271	0.0179
545.9224	-0.0028
546.1177	0.0117
546.3129	0.0059
546.5081	0.0106
546.7034	0.0088
546.8986	0.0055
547.0938	-0.0003
547.289	0.0086
547.4841	0.0117
547.6793	0.0052
547.8744	0.0016
548.0695	-0.0049
548.2646	0.0089
548.4597	0.0049
548.6548	0.0136
548.8498	0.0057
549.0448	0.0008
549.2399	0.0165
549.4349	0.0028
549.6298	0.0097
549.8248	0.0035
550.0198	0.0067
550.2147	0.0051
550.4096	0.0013
550.6045	0.0028
550.7994	0.0074
550.9943	0.0018
551.1892	-0.0148
551.384	0.0117
551.5788	0.0099
551.7737	0.0088
551.9685	0.0038
552.1632	-0.0027
552.358	0
552.5528	0.0143
552.7475	0.0037
552.9422	0.0068
553.1369	0.0092
553.3316	0.0056
553.5263	0.0062
553.7209	0.0002
553.9156	0.001
554.1102	0.0048
554.3048	0.0059
554.4994	0.0038
554.694	0.0124
554.8885	0.0063
555.0831	0.0137
555.2776	0.006
555.4721	0.0019
555.6666	0.0073
555.8611	0.0033
556.0555	0.0066
556.25	0.0007
556.4444	0.01
556.6388	-0.0053
556.8332	0.0106
557.0276	0.0068
557.222	-0.0015
557.4163	0.009
557.6107	0.0038
557.805	0.0064
557.9993	-0.0029
558.1936	-0.0151
558.3879	0.0056
558.5821	0.0084
558.7764	0.0018
558.9706	0.0131
559.1648	0.0089
559.359	0.0005
559.5532	0.0006
559.7473	-0.0065
559.9415	0.0175
560.1356	0.0199
560.3297	0.0053
560.5238	0.0106
560.7179	0.0036
560.9119	-0.0006
561.106	-0.0026
561.3	0.0067
561.494	-0.0038
561.688	-0.0004
561.882	0.0063
562.076	0.0047
562.2699	0.0127
562.4639	0.0082
562.6578	0.0069
562.8517	0.0103
563.0456	0.0036
563.2395	0.0086
563.4333	0.0123
563.6272	0.0046
563.821	0.0063
564.0148	0.0066
564.2086	0.006
564.4024	0.0205
564.5961	0.0111
564.7899	0.0144
564.9836	0.0086
565.1773	0.0133
565.371	0.0061
565.5647	0.0068
565.7584	0.0218
565.952	0.0103
566.1456	0.0029
566.3393	0.0035
566.5329	0.0085
566.7264	0.0064
566.92	0.0063
567.1136	-0.0052
567.3071	-0.0063
567.5006	0.0099
567.6941	-0.0008
567.8876	0.0039
568.0811	0.0204
568.2745	0.0003
568.468	0.005
568.6614	0.0101
568.8548	0.002
569.0482	0.0106
569.2416	0.0035
569.4349	0.0026
569.6283	0.0026
569.8216	0.0061
570.0149	0.0004
570.2082	0.0119
570.4015	0.0036
570.5947	0.0039
570.788	0.0075
570.9812	-0.0002
571.1744	0.004
571.3676	0.0061
571.5608	0.0051
571.754	0.0082
571.9471	0.0121
572.1402	0.005
572.3333	0.0006
572.5264	0.0082
572.7195	0.0015
572.9126	0.0047
573.1057	0.0062
573.2987	0.0061
573.4917	0.0047
573.6847	0.0054
573.8777	0.0074
574.0707	0.003
574.2636	0.0059
574.4566	0.0062
574.6495	0.0053
574.8424	0.0062
575.0353	0.0038
575.2281	0.0052
575.421	0.001
575.6138	0.0061
575.8067	0.0061
575.9995	0.0035
576.1923	0.0041
576.385	0.0078
576.5778	0.0109
576.7706	0.0049
576.9633	0.0076
577.156	-0.0008
577.3487	0.0053
577.5414	0.0035
577.734	0.0041
577.9267	0.0036
578.1193	0.0079
578.3119	-0.0005
578.5045	0.0058
578.6971	0.0022
578.8897	0.0073
579.0822	0.0052
579.2747	0.0077
579.4673	0.0056
579.6598	0.0056
579.8522	0.004
580.0447	0.0079
580.2372	0.0057
580.4296	0.0085
580.622	0.003
580.8144	0.006
581.0068	0.004
581.1992	0.0051
581.3915	0
581.5839	0.0027
581.7762	0.0017
581.9685	0.0028
582.1608	0.0025
582.353	0.0039
582.5453	0.007
582.7375	0.0073
582.9298	0.0011
583.122	-0.0015
583.3142	0.0026
583.5063	0.0031
583.6985	0.0028
583.8906	-0.0012
584.0827	0.0074
584.2749	0.0036
584.4669	0.0013
584.659	0.004
584.8511	0.0114
585.0431	0.0072
585.2352	0.002
585.4272	0.0056
585.6192	0.0042
585.8111	0.0043
586.0031	0.0025
586.195	0.0062
586.387	0.0027
586.5789	0.0069
586.7708	0.0099
586.9627	0.0044
587.1545	0.0066
587.3464	0.0051
587.5382	0.0019
587.73	0.0106
587.9218	0.005
588.1136	-0
588.3053	0.0084
588.4971	0.005
588.6888	0.0014
588.8805	0.001
589.0722	0.0087
589.2639	0.004
589.4556	0.0078
589.6472	0.0083
589.8389	0.0028
590.0305	0.0026
590.2221	0.0068
590.4137	0.0021
590.6052	0.0027
590.7968	0.0081
590.9883	0
591.1798	0.005
591.3713	0.0026
591.5628	0.0088
591.7543	0.0087
591.9458	0.0095
592.1372	0.0074
592.3286	-0.0003
592.52	0.0005
592.7114	0.0059
592.9028	0.0098
593.0941	0.006
593.2855	0.0028
593.4768	0.0096
593.6681	0.0068
593.8594	0.0024
594.0506	0.0014
594.2419	0.0051
594.4331	0.0026
594.6244	-0.0008
594.8156	0.0026
595.0067	-0.001
595.1979	0.0047
595.3891	0.0043
595.5802	0.0128
595.7713	0.0031
595.9624	0.0094
596.1535	0.0008
596.3446	-0.0025
596.5357	0.0021
596.7267	0.0046
596.9177	0.0037
597.1087	-0.0014
597.2997	0.0099
597.4907	0.0039
597.6817	0.0074
597.8726	0.0102
598.0635	0.0019
598.2544	0.0068
598.4453	0.0032
598.6362	0.0035
598.827	0.0052
599.0179	0.0027
599.2087	0.0113
599.3995	0.0041
599.5903	0.0085
599.7811	0.0109
599.9718	0.0049
600.1626	-0.0023
600.3533	0.0053
600.544	0.0059
600.7347	0.0067
600.9254	0.0094
601.116	0.0001
601.3067	0.0039
601.4973	0.0047
601.6879	0.0089
601.8785	0.0062
602.0691	0.0017
602.2596	0.0089
602.4502	0.0032
602.6407	0.0072
602.8312	0.0047
603.0217	0.0107
603.2122	0.0014
603.4027	0.001
603.5931	0.0013
603.7835	0.0078
603.9739	0.0002
604.1643	0.0097
604.3547	0.013
604.5451	0.0112
604.7354	-0.0023
604.9257	0.0068
605.116	-0.0022
605.3063	0.007
605.4966	0.0042
605.6869	0.0079
605.8771	0.0068
606.0673	0.0117
606.2575	0.0054
606.4477	0.0109
606.6379	0.0035
606.8281	0.0017
607.0182	0.0028
607.2083	0.0036
607.3985	0.0061
607.5885	0.0055
607.7786	0.0077
607.9687	0.0108
608.1587	0.0047
608.3488	0.0032
608.5388	-0.0068
608.7288	-0.0052
608.9187	0.002
609.1087	0.0051
609.2986	0.0078
609.4886	0.0075
609.6785	0.0087
609.8684	-0.002
610.0582	-0.0018
610.2481	0.0008
610.4379	0.0054
610.6278	0.0072
610.8176	0.0075
611.0074	0.002
611.1971	0.0069
611.3869	0.0057
611.5766	0.0021
611.7664	0.0021
611.9561	0.0056
612.1458	0.0116
612.3354	0.0062
612.5251	0.0044
612.7147	0.0096
612.9044	0.0023
613.094	0.0074
613.2836	0.0018
613.4731	0.004
613.6627	0.0116
613.8522	0.0125
614.0417	0.0061
614.2313	-0.0001
614.4207	0.0081
614.6102	0.0097
614.7997	0.0145
614.9891	-0.0009
615.1785	-0.0004
615.3679	0.0043
615.5573	0.0052
615.7467	0.0008
615.9361	0.0056
616.1254	0.0125
616.3147	0.01
616.504	0.0122
616.6933	-0.0008
616.8826	0.0049
617.0718	0.0024
617.2611	0.0051
617.4503	0.0001
617.6395	0.0031
617.8287	0.0087
618.0179	0.0065
618.207	0.017
618.3961	-0.0002
618.5853	0
618.7744	-0.0008
618.9634	0.0074
619.1525	0.0034
619.3416	0.0059
619.5306	0.0061
619.7196	0.0127
619.9086	-0.0022
620.0976	0.0051
620.2866	0.0048
620.4755	0.0002
620.6645	0.0181
620.8534	0.0098
621.0423	0.0111
621.2312	0.0021
621.42	0.0075
621.6089	0.005
621.7977	0.01
621.9865	0.0093
622.1753	0.0011
622.3641	-0.0038
622.5529	-0.0088
622.7416	0.0053
622.9303	-0.0016
623.1191	-0.0009
623.3078	0.005
623.4964	0.007
623.6851	0.0111
623.8737	-0.0073
624.0624	-0.0102
624.251	0.0022
624.4396	0.0016
624.6282	0.0127
624.8167	-0.0034
625.0053	0.0082
625.1938	-0.0027
625.3823	0.0129
625.5708	-0.0042
625.7593	-0.0003
625.9477	0.0011
626.1362	-0.0017
626.3246	0.0002
626.513	0.0153
626.7014	0.0087
626.8898	0.0097
627.0781	0.0079
627.2665	0.0071
627.4548	-0.0046
627.6431	0.0124
627.8314	0.0083
628.0197	0.0138
628.2079	-0.0032
628.3962	0.0184
628.5844	0.0122
628.7726	0.0031
628.9608	0.0108
629.1489	0.0001
629.3371	-0.0008
629.5252	0.0101
629.7134	-0.0107
629.9015	0.0122
630.0895	0
630.2776	0.0121
630.4657	0.0094
630.6537	0.0095
630.8417	-0.0022
631.0297	0.0085
631.2177	0.014
631.4057	0.0087
631.5936	0.0033
631.7815	-0.0032
631.9695	0.0161
632.1574	0.0162
632.3452	0.0111
632.5331	0.0136
632.7209	0.0114
632.9088	0.0018
633.0966	0.0464
633.2844	0.01
633.4722	0.0125
633.6599	0.0259
633.8477	0.0027
634.0354	0.0254
634.2231	-0.0056
634.4108	-0.001
634.5985	-0.0026
634.7861	-0.0102
634.9738	-0.0095
635.1614	0.0107
635.349	0.0007
635.5366	0.0019
635.7242	-0.0013
635.9117	0.0034
636.0993	0.0071
636.2868	-0.0021
636.4743	0.0117
636.6618	-0.0032
636.8492	0.0072
637.0367	-0.0049
637.2241	-0.001
637.4115	0.0272
637.5989	0.0038
637.7863	0.0196
637.9737	0.0103
638.161	0.0005
638.3484	-0.0143
638.5357	0.0137
638.723	0.0098
638.9103	-0.0111
639.0975	0.0049
639.2848	0.0175
639.472	0.0218
639.6592	-0.0032
639.8464	0.0025
640.0336	0.0029
640.2208	0.0061
640.4079	-0.0075
640.595	0.0048
640.7821	0.0147
640.9692	0.0006
641.1563	0.0116
641.3434	0.0021
641.5304	0.0134
641.7174	0.0227
641.9044	0.0028
642.0914	0.0274
642.2784	0.0099
642.4653	-0.009
642.6523	0.0172
642.8392	0.0067
643.0261	0.0035
643.213	0.0103
643.3999	0.0167
643.5867	0.0047
643.7735	0.0076
643.9604	0.0186
644.1472	0.0136
644.3339	0.0063
644.5207	0.0083
644.7075	-0.0002
644.8942	-0.0047
645.0809	0.0156
645.2676	0.0111
645.4543	0.011
645.6409	0.02
645.8276	0.0078
646.0142	0.0044
646.2008	0.005
646.3874	-0.006
646.574	-0.0017
646.7605	0.008
646.9471	0.009
647.1336	-0.0109
647.3201	0.0069
647.5066	0.0062
647.6931	0.0002
647.8795	-0.011
648.0659	0.0062
648.2524	0.0098
648.4388	-0.0015
648.6252	-0.0019
648.8115	-0.0022
648.9979	0.0109
649.1842	0.0107
649.3705	0.0197
649.5568	-0.0159
649.7431	0.0007
649.9294	0.0032
650.1156	-0.0143
650.3018	0.0049
650.488	0.0118
650.6742	0.0291
650.8604	0.0159
651.0466	0.0137
651.2327	0.0129
651.4188	0.0168
651.6049	0.016
651.791	-0.001
651.9771	0.0136
652.1632	0.0148
652.3492	0.0095
652.5352	0.0175
652.7212	-0.0048
652.9072	0.0062
653.0932	0.0147
653.2791	-0.0012
653.465	-0.0048
653.651	0.0145
653.8369	0.0163
654.0227	-0.0038
654.2086	0.0079
654.3944	-0.0063
654.5803	0.0071
654.7661	0.0047
654.9519	-0.0008
655.1377	0
655.3234	0
655.5092	0
655.6949	0
655.8806	0
656.0663	0
656.2519	0
656.4376	0
656.6232	0
656.8088	0
656.9945	0
657.18	0
657.3656	0
657.5511	0
657.7367	0
657.9222	0
658.1077	0
658.2932	0
658.4786	0
658.6641	0
658.8495	0
659.0349	0
659.2203	0
659.4057	0
659.591	0.1443
659.7764	0.0282
659.9617	0.0044
660.147	0.0009
660.3323	0.0034
660.5176	-0.0067
660.7028	-0.0084
660.888	-0.007
661.0733	0.0239
661.2585	-0.0225
661.4436	0.0128
661.6288	0.0251
661.8139	-0.0133
661.9991	-0.0079
662.1842	0.0077
662.3693	-0.0055
662.5544	0.014
662.7394	0.0199
662.9245	0.0128
663.1095	-0.0011
663.2945	-0.0072
663.4795	-0.0065
663.6644	0.0134
663.8494	0.0164
664.0343	0.0196
664.2193	-0.0078
664.4042	0.0029
664.589	0.0162
664.7739	0.004
664.9587	-0.0061
665.1436	-0.0125
665.3284	0.0053
665.5132	-0.0123
665.698	0.0175
665.8827	0.0048
666.0675	-0.0221
666.2522	0.0197
666.4369	0.0183
666.6216	0.0079
666.8063	0.0103
666.9909	-0.007
667.1756	-0.0174
667.3602	-0.0068
667.5448	0.0149
667.7294	0.0426
667.9139	0.0039
668.0985	-0.0013
668.283	0.0072
668.4675	0.0162
668.652	0.0068
668.8365	0.0235
669.0209	0.0154
669.2054	-0.0125
669.3898	0.0128
669.5742	0.0157
669.7586	0.0085
669.943	0.0146
670.1273	-0.0015
670.3117	0.0168
670.496	0.0042
670.6803	0.0077
670.8646	-0.018
671.0488	0.0216
671.2331	-0.0052
671.4173	0.0065
671.6015	0.0099
671.7857	0.006
671.9699	0.0077
672.1541	0.001
672.3382	-0.0012
672.5223	0.0046
672.7064	0.0071
672.8905	0.0028
673.0746	0.0071
673.2587	0.0331
673.4427	0.007
673.6267	0.0011
673.8107	0.0025
673.9947	0.0333
674.1787	0.0105
674.3626	0.001
674.5465	-0.006
674.7304	-0.0077
674.9143	0.002
675.0982	0.0193
675.2821	0.0015
675.4659	-0.0116
675.6497	0.0195
675.8335	0.0106
676.0173	-0.0006
676.2011	0.036
676.3849	0.007
676.5686	0.0066
676.7523	-0.0171
676.936	0.0087
677.1197	-0.0024
677.3034	0.0316
677.487	0.0028
677.6706	0.0211
677.8542	-0.0045
678.0378	0.0166
678.2214	-0.0048
678.405	0.0124
678.5885	0.0182
678.772	0.0121
678.9555	0.011
679.139	0.0132
679.3225	0.0027
679.5059	0.0025
679.6894	-0.0009
679.8728	0.0076
680.0562	0.015
680.2395	-0.0033
680.4229	0.0086
680.6062	0.0097
680.7896	-0.0111
680.9729	0.0171
681.1562	-0.0064
681.3394	-0.0047
681.5227	0.0182
681.7059	0.0103
681.8891	0.0065
682.0723	0.0224
682.2555	0.0091
682.4387	0.03
682.6218	0.0148
682.805	0.0055
682.9881	0.0192
683.1712	0.034
683.3542	0.0069
683.5373	-0.0092
683.7203	0.0106
683.9034	0.0045
684.0864	-0.0018
684.2694	0.0056
684.4523	0.0015
684.6353	0.0043
684.8182	0.0045
685.0011	-0.0044
685.184	0.0003
685.3669	0.0218
685.5498	-0.0037
685.7326	0
685.9154	-0.0067
686.0982	0.0144
686.281	0.0166
686.4638	0.0096
686.6465	0.0056
686.8293	-0.0218
687.012	0.0039
687.1947	0.0036
687.3774	0.0212
687.56	-0.007
687.7427	-0.0088
687.9253	-0.0169
688.1079	0.0024
688.2905	-0.0042
688.4731	0.019
688.6556	-0.0014
688.8382	-0.0168
689.0207	0.002
689.2032	0.0285
689.3857	-0.001
689.5681	0.0104
689.7506	0.0496
689.933	-0.0076
690.1154	0.023
690.2978	-0.0126
690.4802	0.0205
690.6626	0.0043
690.8449	-0.0031
691.0272	-0.0023
691.2095	-0.0127
691.3918	0.0119
691.5741	0.0125
691.7563	0.0074
691.9386	0.0299
692.1208	0.0035
692.303	-0.0047
692.4852	0.0007
692.6673	0.0014
692.8495	-0.0094
693.0316	0.0206
693.2137	0.0072
693.3958	0.0014
693.5778	0.015
693.7599	-0.0187
693.9419	-0.0075
694.1239	-0.0037
694.3059	-0.0101
694.4879	0.0007
694.6699	-0.018
694.8518	0.026
695.0337	0.0217
695.2157	0.0309
695.3975	-0.0044
695.5794	0.0079
695.7613	0.0203
695.9431	-0.0004
696.1249	0.0379
696.3067	-0.0072
696.4885	0.0144
696.6703	0.003
696.852	0.0114
697.0337	0.0157
697.2154	0.001
697.3971	0.0129
697.5788	0.0079
697.7605	-0.0031
697.9421	0.0145
698.1237	0.0244
698.3053	-0.027
698.4869	0.0138
698.6685	-0.0241
698.85	0.0047
699.0315	-0.0156
699.213	0.0003
699.3945	0.0262
699.576	0.0346
699.7575	0.0141
699.9389	0.0063
700.1203	-0.0063
700.3017	-0.0112
700.4831	0.0038
700.6645	0.0216
700.8458	-0.007
701.0271	0.0224
701.2084	0.018
701.3897	0.0087
701.571	0.0146
701.7523	0.0274
701.9335	0.0282
702.1147	0.031
702.2959	-0.0123
702.4771	0.0054
702.6583	-0.0037
702.8394	-0.0284
703.0205	0.0332
703.2016	-0.0046
703.3827	0.0035
703.5638	0.0194
703.7449	0.0413
703.9259	0.0132
704.1069	0.0021
704.2879	-0.0015
704.4689	-0.01
704.6499	0.0005
704.8308	0.0019
705.0117	0.0241
705.1927	-0.0078
705.3735	0.0167
705.5544	0.0156
705.7353	0.0219
705.9161	-0.0044
706.0969	-0.0043
706.2777	0.0013
706.4585	0.0007
706.6393	0.0193
706.82	0.0121
707.0007	-0.02
707.1815	-0.0022
707.3621	0.026
707.5428	0.017
707.7235	0.0105
707.9041	0.0005
708.0847	0.0148
708.2653	0.019
708.4459	-0.0146
708.6265	0.0024
708.807	0.0018
708.9875	0.0074
709.168	0.0173
709.3485	0.0235
709.529	0.0281
709.7095	-0.0122
709.8899	-0.0068
710.0703	0.0197
710.2507	-0.0155
710.4311	-0.0123
710.6115	0.0358
710.7918	0.0267
710.9721	-0.0027
711.1524	-0.0014
711.3327	-0.0135
711.513	0.0259
711.6932	-0.0029
711.8735	0.0196
712.0537	-0.0036
712.2339	0.014
712.4141	0.0322
712.5942	-0.0136
712.7744	0.02
712.9545	0.0061
713.1346	0.0284
713.3147	0.0094
713.4947	-0.0215
713.6748	-0.0029
713.8548	0.0385
714.0348	-0.0005
714.2148	0.0165
714.3948	0.0128
714.5748	0.0166
714.7547	0.0183
714.9346	0.0285
715.1145	0.0101
715.2944	-0.046
715.4743	0.0031
715.6541	-0.0168
715.834	0.0159
716.0138	-0.0023
716.1936	-0.0472
716.3733	0.0227
716.5531	-0.0064
716.7328	0.0137
716.9126	0.018
717.0923	-0.0276
717.2719	0.0267
717.4516	0.0072
717.6312	-0.0132
717.8109	0.0164
717.9905	-0.0079
718.1701	0.0008
718.3496	-0.0031
718.5292	0.005
718.7087	0.0168
718.8882	0.0301
719.0677	0.0093
719.2472	0.0026
719.4267	0.0023
719.6061	-0.0147
719.7856	0.0228
719.965	-0.0042
720.1443	-0.018
720.3237	0.0149
720.5031	0.0008
720.6824	0.0096
720.8617	0.0223
721.041	0.0306
721.2203	0.0065
721.3995	0.0062
721.5788	-0.0039
721.758	-0.0308
721.9372	0.0164
722.1164	-0.0004
722.2956	0.008
722.4747	0.0174
722.6538	-0.0004
722.8329	0.0457
723.012	0.0134
723.1911	0.0095
723.3702	0.0266
723.5492	-0.0004
723.7282	0.0275
723.9072	0.0396
724.0862	0.0032
724.2652	0.0193
724.4441	0.0045
724.623	0.0134
724.8019	0.0051
724.9808	-0.0044
725.1597	0.0181
725.3385	0.0254
725.5174	0.0072
725.6962	-0.0027
725.875	0.0179
726.0538	0.0148
726.2325	0.031
726.4112	0
726.59	-0.0019
726.7687	-0.0146
726.9474	0.0212
727.126	0.017
727.3047	-0.0112
727.4833	0.0027
727.6619	-0.0281
727.8405	0.0108
728.0191	0.018
728.1976	-0.0024
728.3762	0.012
728.5547	0.0297
728.7332	0.0296
728.9116	0.0107
729.0901	0.0109
729.2686	0.0141
729.447	0.0003
729.6254	0.0183
729.8038	0.0022
729.9821	-0.0062
730.1605	-0.007
730.3388	0.0021
730.5171	0.0233
730.6954	-0.0134
730.8737	0.0175
731.0519	0.0015
731.2302	0.0089
731.4084	0.0031
731.5866	-0.0069
731.7648	-0.0144
731.9429	0.0127
732.1211	-0.0056
732.2992	-0.0054
732.4773	0.0112
732.6554	-0.0131
732.8335	-0.0029
733.0115	0.0172
733.1896	0.0081
733.3676	0.0117
733.5456	-0.0013
733.7235	0.0005
733.9015	0.0123
734.0794	-0.0011
734.2574	-0.0142
734.4353	0.0311
734.6131	-0.0014
734.791	0.0151
734.9689	-0.007
735.1467	-0.0066
735.3245	0.0142
735.5023	0.0152
735.68	-0.0054
735.8578	0.0229
736.0355	0.0213
736.2132	0.0242
736.3909	0.0105
736.5686	0.0186
736.7463	-0.0145
736.9239	0.013
737.1015	0.003
737.2791	0.0113
737.4567	0.0098
737.6343	0.0292
737.8118	0.0284
737.9894	0.0381
738.1669	-0.0102
738.3444	0.02
738.5218	-0.0185
738.6993	0.0044
738.8767	0.0135
739.0541	0.001
739.2315	-0.0084
739.4089	0.0111
739.5863	-0.0097
739.7636	0.0184
739.9409	0.0103
740.1182	0.0054
740.2955	0.0318
740.4728	-0.0236
740.65	-0.016
740.8272	0.0327
741.0044	-0.0125
741.1816	0.0341
741.3588	-0.0106
741.5359	-0.0049
741.7131	0.0135
741.8902	0.0109
742.0673	-0.0283
742.2444	0.0226
742.4214	0.0115
742.5985	-0.0171
742.7755	0.0258
742.9525	-0.0028
743.1295	-0.0172
743.3064	-0.0166
743.4834	-0.0059
743.6603	0.0605
743.8372	-0.03
744.0141	0.0445
744.191	0.0086
744.3678	-0.0306
744.5446	-0.0027
744.7215	0.0099
744.8982	0.0089
745.075	0.0177
745.2518	0.0041
745.4285	0.0135
745.6052	-0.0229
745.7819	0.0061
745.9586	0.0082
746.1353	-0.0237
746.3119	-0.0088
746.4885	0.0111
746.6651	0.0087
746.8417	-0.0046
747.0183	0.0313
747.1948	-0.0034
747.3714	0.01
747.5479	0.0309
747.7244	0.0269
747.9008	0.0223
748.0773	0.0676
748.2537	0.0321
748.4301	0.0317
748.6065	-0.0241
748.7829	0.003
748.9593	-0.0015
749.1356	0.0077
749.3119	0.0152
749.4882	0.0311
749.6645	-0.0063
749.8408	0.0109
750.017	0.0121
750.1933	-0.007
750.3695	0.0103
750.5457	-0.001
750.7218	-0.0091
750.898	-0.0043
751.0741	0.0016
751.2502	0.0022
751.4263	0.0083
751.6024	-0.0099
751.7784	0.006
751.9545	0.0015
752.1305	0.0318
752.3065	0.0171
752.4825	0.0073
752.6584	-0.0031
752.8344	-0.0187
753.0103	-0.0064
753.1862	0.0244
753.3621	-0.0176
753.5379	0.0014
753.7138	0.0145
753.8896	0.015
754.0654	0.0206
754.2412	0.0084
754.417	-0.001
754.5927	0.0206
754.7685	-0.014
754.9442	-0.0075
755.1199	0.0103
755.2956	-0.0012
755.4712	-0.0132
755.6469	0.0003
755.8225	0.0048
755.9981	0.0101
756.1736	0.0003
756.3492	-0.0026
756.5248	0.0032
756.7003	-0.0185
756.8758	0.0132
757.0513	-0.006
757.2267	0.0098
757.4022	-0.0006
757.5776	0
757.753	0.0148
757.9284	-0.0009
758.1038	0.0164
758.2791	0.0006
758.4545	-0.0116
758.6298	0.0081
758.8051	0.0083
758.9803	-0.0078
759.1556	-0.0077
759.3308	0.0062
759.506	0.0038
759.6812	-0.0147
759.8564	0.0015
760.0316	-0.0115
760.2067	0.0139
760.3819	0.0168
760.557	0.0128
760.732	-0.0047
760.9071	0.0136
761.0821	-0.0122
761.2572	0.0109
761.4322	0.0111
761.6072	0.0128
761.7821	-0.0259
761.9571	-0.0021
762.132	0.0042
762.3069	0.0182
762.4818	0.0093
762.6567	-0.0094
762.8316	0.0123
763.0064	0.0215
763.1812	0.0089
763.356	-0.0121
763.5308	0.0354
763.7055	-0.015
763.8803	-0.014
764.055	0.0129
764.2297	-0.0074
764.4044	-0.0079
764.579	-0.0002
764.7537	0.0158
764.9283	0.0019
765.1029	-0.0043
765.2775	0.0266
765.4521	0.0111
765.6266	0.0076
765.8011	-0.0013
765.9756	0.0211
766.1501	-0.0012
766.3246	0.0181
766.4991	0.0117
766.6735	0.0387
766.8479	0.0043
767.0223	0
767.1967	0.0191
767.371	0.0006
767.5454	0.0119
767.7197	0.0359
767.894	0.0041
768.0683	0.0221
768.2425	0.0231
768.4168	0.0149
768.591	0.0146
768.7652	-0.0041
768.9394	-0.0365
769.1135	-0.0034
769.2877	0.0093
769.4618	0.0321
769.6359	-0.0041
769.81	0.0104
769.984	0
770.1581	0.0099
770.3321	0.024
770.5061	-0.0057
770.6801	0.0156
770.8541	-0.0037
771.028	0.0471
771.202	0.0201
771.3759	0.0198
771.5498	0.0038
771.7236	0.0174
771.8975	-0.0027
772.0713	0.0112
772.2451	-0.0204
772.4189	0.0189
772.5927	-0.024
772.7665	-0.0336
772.9402	0.0293
773.1139	0.0101
773.2876	0.0146
773.4613	-0.0028
773.635	0.0261
773.8086	0.0432
773.9822	0.0116
774.1558	0.0298
774.3294	-0.0205
774.503	-0.0048
774.6765	0.0253
774.8501	-0.0322
775.0236	0.0452
775.1971	-0.0223
775.3705	0.0063
775.544	-0.0612
775.7174	-0.0515
775.8908	-0.0254
776.0642	0.0168
776.2376	0.0127
776.4109	0.0481
776.5843	0.0254
776.7576	0.0289
776.9309	-0.0041
777.1041	-0.0316
777.2774	0.0101
777.4506	-0.0175
777.6238	-0.0017
777.797	0.005
777.9702	0.0463
778.1434	-0.0269
778.3165	-0.0091
778.4896	-0.0331
778.6627	0.0112
778.8358	-0.0274
779.0089	-0.0295
779.1819	0.0209
779.3549	0.0369
779.5279	-0.0038
779.7009	0.0649
779.8739	-0.0066
780.0468	-0.0131
780.2197	0.0177
780.3926	-0.0058
780.5655	0.034
780.7384	0.0026
780.9112	0.0372
781.0841	0.0113
781.2569	0.018
781.4297	-0.0027
781.6024	0.0158
781.7752	0.0149
781.9479	0.0682
782.1206	-0.0057
782.2933	0.0251
782.466	0.0114
782.6386	-0.0195
782.8113	0.01
782.9839	0.0193
783.1565	0.0775
783.329	0.007
783.5016	0.0356
783.6741	-0.0179
783.8466	0.0353
784.0191	0.0083
784.1916	-0.0547
784.3641	-0.0423
784.5365	-0.0178
784.7089	-0.0258
784.8813	0.0626
785.0537	0.032
785.2261	0.0174
785.3984	-0.0234
785.5707	-0.0208
785.743	-0.0085
785.9153	-0.0058
786.0876	-0.0244
786.2598	-0.0175
786.432	0.0053
786.6042	0.0413
786.7764	-0.0202
786.9486	0.0192
787.1207	0.0177
787.2928	0.0495
787.4649	-0.0323
787.637	0.0162
787.8091	0.0272
787.9811	0.0447
788.1532	0.0081
788.3252	-0.0199
788.4972	-0.0027
788.6691	0.0119
788.8411	-0.0358
789.013	0.0272
789.1849	0.0072
789.3568	0.0169
789.5287	0.0363
789.7005	-0.0309
789.8723	-0.0083
790.0442	-0.0269
790.2159	0.0169
790.3877	0.046
790.5595	0.0589
790.7312	-0.0166
790.9029	-0.008
791.0746	0.0258
791.2463	-0.0399
791.4179	0.0065
791.5896	0.0233
791.7612	0.0041
791.9328	-0.0194
792.1044	-0.0145
792.2759	-0.0228
792.4474	0.0107
792.619	-0.041
792.7905	-0.0134
792.9619	0.0494
793.1334	0.0684
793.3048	0.0572
793.4762	0.0111
793.6476	-0.0238
793.819	0.0041
793.9904	-0.0113
794.1617	-0.0043
794.333	0.035
794.5043	0.0485
794.6756	-0.0091
794.8469	0.0251
795.0181	0.0051
795.1893	0.0371
795.3605	-0.0155
795.5317	-0.0117
795.7029	0.0252
795.874	-0.0366
796.0452	0.0021
796.2163	0.063
796.3873	0.0924
796.5584	-0.0218
796.7294	-0.0131
796.9005	-0.0509
797.0715	-0.0077
797.2425	0.0319
797.4134	0.0413
797.5844	0.0486
797.7553	-0.1079
797.9262	0.07
798.0971	0.0589
798.2679	-0.0774
798.4388	0.0578
798.6096	0.0327
798.7804	0.0587
798.9512	-0.0159
799.122	-0.0332
799.2927	0.0574
799.4635	-0.0821
799.6342	-0.0323
799.8049	0.0499
799.9755	-0.0431
800.1462	0.0254
800.3168	0.0458
800.4874	-0.037
800.658	-0.007
800.8286	-0.0269
800.9991	0.0178
801.1696	0.006
801.3402	0.0022
801.5106	0.0515
801.6811	0.0001
801.8516	0.1495
802.022	-0.0147
802.1924	0.0304
802.3628	0.0434
802.5332	0.0844
802.7035	0.0381
802.8739	-0.028
803.0442	0.0232
803.2145	0.0237
803.3847	0.0256
803.555	0.0599
803.7252	-0.0717
803.8954	0.022
804.0656	-0.0147
804.2358	0.0402
804.4059	0.0798
804.5761	-0.0465
804.7462	0.0214
804.9163	0.0553
805.0864	0.0001
805.2564	-0.0238
805.4264	0.0051
805.5965	0.0686
805.7665	-0.0827
805.9364	-0.0753
806.1064	-0.039
806.2763	0.0447
806.4462	0.0268
806.6161	0.0281
806.786	0.0258
806.9559	0.0451
807.1257	-0.004
807.2955	0.0353
807.4653	-0.0242
807.6351	0.0688
807.8048	-0.0159
807.9746	0.0026
808.1443	0.0237
808.314	0.0535
808.4837	0.0913
808.6533	0.021
808.8229	0.0156
808.9926	0.049
809.1622	-0.0261
809.3317	-0.0265
809.5013	0.0344
809.6708	-0.0272
809.8403	0.0534
810.0098	0.0411
810.1793	0.0129
810.3488	-0.0558
810.5182	0.1774
810.6876	0.0139
810.857	-0.0129
811.0264	-0.029
811.1958	0.0118
811.3651	0.037
811.5344	-0.0481
811.7037	0.1422
811.873	0.11
812.0422	-0.1214
812.2115	0.012
812.3807	-0.003
812.5499	-0.0126
812.7191	-0.0431
812.8882	-0.1124
813.0574	-0.0152
813.2265	0.0085
813.3956	0.0556
813.5646	0.0796
813.7337	-0.0326
813.9027	-0.0315
814.0718	-0.0041
814.2407	0.0512
814.4097	0.0437
814.5787	0.1069
814.7476	-0.0057
814.9165	0.0482
815.0854	-0.0184
815.2543	-0.0045
815.4232	0.15
815.592	0.0595
815.7608	-0.1066
815.9296	0.073
816.0984	0.103
816.2671	-0.2659
816.4359	0.1535
816.6046	0.0221
816.7733	-0.0263
816.942	0.0029
817.1106	0.041
817.2793	0.0209
817.4479	-0.0591
817.6165	0.0959
817.785	0.0957
817.9536	-0.0147
818.1221	0.0323
818.2906	-0.0902
818.4591	-0.0194
818.6276	0.0076
818.7961	0.0881
818.9645	0.1
819.1329	0.0175
819.3013	0.0035
819.4697	-0.1873
819.638	0.189
819.8064	0.0379
819.9747	0.0675
820.143	-0.0725
820.3113	-0.0241
820.4795	0.0615
820.6477	0.0727
820.816	-0.0407
820.9842	0.13
821.1523	-0.0021
821.3205	0.0563
821.4886	-0.008
821.6567	-0.0828
821.8248	0.0822
821.9929	-0.0741
822.1609	-0.0503
822.329	0.0092
822.497	-0.0722
822.665	-0.1153
822.833	-0.1175
823.0009	0.0408
823.1688	0.1691
823.3367	-0.2236
823.5046	0.0141
823.6725	-0.0803
823.8404	0.1974
824.0082	-0.027
824.176	-0.1612
824.3438	0.221
824.5116	0.0476
824.6793	0.0226
824.847	-0.0167
825.0147	0.0715
825.1824	0.0037
825.3501	0.1279
825.5177	-0.0963
825.6854	-0.1059
825.853	-0.1488
826.0206	0.0539
826.1881	-0.0543
826.3557	0.0147
826.5232	0.2334
826.6907	-0.0227
826.8582	-0.0443
827.0257	0.0791
827.1931	0.213
827.3605	0.0619
827.528	-0.0886
827.6953	-0.1931
827.8627	-0.0985
828.03	0.2595
828.1974	0.1104
828.3647	0.0057
828.532	-0.1021
828.6992	0.1842
828.8665	-0.1109
829.0337	0.1517
829.2009	-0.1508
829.3681	0.0067
829.5352	-0.2853
829.7024	0.2539
829.8695	0.0277
830.0366	0.1458
830.2037	0.0195
830.3707	0.0563
830.5378	-0.0708
830.7048	-0.0876
830.8718	0.1189
831.0388	0.102
831.2057	0.0208
831.3727	-0.3833
831.5396	0.1851
831.7065	-0.909
831.8734	0.6522
832.0402	0.0829
832.2071	-0.448
832.3739	-0.1614
832.5407	-1.9624
832.7075	-0.3893
832.8742	0.9241
833.041	0.2355
833.2077	0.1993
833.3744	0.0477
833.541	0.0933
833.7077	0.1568
833.8743	0.0175
834.0409	0.0784
834.2075	0.1874
834.3741	-0.2213
834.5407	-0.0813
834.7072	0.1193
834.8737	0.3633
835.0402	-0.0792
835.2067	-0.1493
835.3731	-0.1563
835.5395	0.0115
835.706	-0.1379
835.8723	-0.0652
836.0387	0.3442
836.2051	-0.0306
836.3714	0.1359
836.5377	-0.1794
836.704	0.1322
836.8703	0.198
837.0365	-0.2505
837.2027	0.3479
837.3689	0.284
837.5351	-0.0131
837.7013	0.0008
837.8674	0.6756
838.0335	-0.1552
838.1997	-0.083
838.3657	-0
838.5318	-0.6674
838.6978	-0
838.8639	-0.5912
839.0299	-0.0386
839.1958	0.0438
839.3618	0.2012
839.5277	0.0842
839.6937	-0.0578
839.8596	-0.1805
840.0254	0.0007
840.1913	-0.2674
840.3571	-0.2386
840.523	-0
840.6888	-0.0292
840.8545	-0.6179
841.0203	0.2441
841.186	-0.0742
841.3517	-0.1063
841.5174	0.1726
841.6831	0.0206
841.8488	0.0641
842.0144	-0
842.18	0.2382
842.3456	-0.6891
842.5112	-0.6616
842.6767	-0.0204
842.8422	-0.0553
843.0077	0.1001
843.1732	-0.325
843.3387	-0.0493
843.5042	-0
843.6696	-0.1619
843.835	0.3775
844.0004	-0.3078
844.1657	-0
844.3311	-0.3696
844.4964	-0.3094
844.6617	0.386
844.827	-0
844.9923	0.1634
845.1575	0.0788
845.3227	-0.2282
845.4879	0.2603
845.6531	-0.0172
845.8183	0.1656
845.9834	0.1133
846.1485	0.3255
846.3136	0.4781
846.4787	0.3172
846.6438	-0.1051
846.8088	0.1845
846.9738	-0
847.1388	-0.0535
847.3038	2.0905
847.4687	-0
847.6337	-0.2654
847.7986	-0.0523
847.9635	0.0009
848.1284	-0
848.2932	0.1065
848.458	-0
848.6228	-0
848.7876	-0.1642
848.9524	-0
849.1172	-1.8625
849.2819	-0
849.4466	0.4316
849.6113	-0
849.7759	-0.3302
849.9406	-0.1835
850.1052	-0.6755
850.2698	-0
850.4344	-0.7056
850.599	-0.2123
850.7635	0.4368
850.928	-0
851.0925	0.7667
851.257	-0.1903
851.4215	0.0963
851.5859	-0.0264
851.7503	-0
851.9147	-0.3345
852.0791	-0.0777
852.2434	0.384
852.4078	0.0577
852.5721	0.1932
852.7364	0.3517
852.9007	-0.205
853.0649	-0.0526
853.2291	1.2703
853.3934	-0
853.5575	-0.2209
853.7217	0.1301
853.8859	-0.5132
854.05	-0.1071
854.2141	-0.0208
854.3782	0.1905
854.5423	-0.1781
854.7063	0.1059
854.8703	0.1319
855.0343	0.1417
855.1983	0.262
855.3623	0.127
855.5262	-0
855.6901	0.6373
855.854	0.1901
856.0179	0.7003
856.1818	0.5523
856.3456	0.5064
856.5094	-0.6404
856.6732	-0
856.837	-1.2911
857.0008	0.3896
857.1645	-0
857.3282	-0.7141
857.4919	0.3217
857.6556	0.4322
857.8192	-0.0971
857.9828	0.0241
858.1465	-0
858.31	0.2275
858.4736	-0.4216
858.6372	0.3397
858.8007	-0.0996
858.9642	0.1751
859.1277	0.5794
859.2911	-0.5516
859.4546	-0
859.618	0.5115
859.7814	0.5478
859.9448	-0
860.1081	0.2526
860.2715	-0
860.4348	0.1196
860.5981	0.508
860.7614	-0.0975
860.9246	0.2831
861.0879	-0
861.2511	-0
861.4143	-0.5002
861.5774	-0.2577
861.7406	-0.0891
861.9037	0.3358
862.0668	-0
862.2299	0.0013
862.393	-0
862.556	0.4106
862.7191	-0
862.8821	0.438
863.0451	-0.083
863.208	-0.1432
863.371	-0
863.5339	0.1421
863.6968	-0
863.8597	-0
864.0225	-0.093
864.1854	-0
864.3482	-0
864.511	-0.1283
864.6737	-0.2245
864.8365	0.211
864.9992	-0
865.1619	-0.4654
865.3246	-0
865.4873	-0.3105
865.65	-0
865.8126	0.8598
865.9752	-0.4322
866.1378	0.5034
866.3004	-0.3982
866.4629	-1.1091
866.6254	-0.1792
866.7879	0.1521
866.9504	-0.1998
867.1129	0.1427
867.2753	0.191
867.4377	0.3954
867.6001	-0
867.7625	0.2083
867.9249	0.9558
868.0872	-0.1619
868.2495	0.2264
868.4118	-0
868.5741	0.0586
868.7363	-0
868.8986	-0.4073
869.0608	-0
869.223	-0.485
869.3851	-0
869.5473	-0.0849
869.7094	0.6977
869.8715	-0
870.0336	0.1412
870.1957	-0
870.3577	0.1947
870.5197	-0.1338
870.6817	-1.0927
870.8437	-0.2274
871.0057	-0
871.1676	0.5241
871.3295	-0
871.4914	-1.692
871.6533	-0
871.8151	0.4279
871.977	-0.6169
872.1388	-0.1314
872.3006	-0.5387
872.4623	-0
872.6241	1.0534
872.7858	0.3552
872.9475	-0
873.1092	0.1491
873.2709	0.6053
873.4325	-1.4771
873.5941	0.5576
873.7557	-0.2236
873.9173	0.5416
874.0789	0.3612
874.2404	-0
874.4019	0.1043
874.5634	-0
874.7249	1.295
874.8863	0.0506
875.0478	-0.1988
875.2092	0.4368
875.3706	0.1523
875.5319	0.2674
875.6933	-0
875.8546	-0
876.0159	0.2684
876.1772	-0.6365
876.3385	0.3338
876.4997	0.3381
876.6609	-0
876.8221	-0
876.9833	0.9526
877.1445	0.2548
877.3056	-0
877.4667	-1.2184
877.6278	-0
877.7889	1.6887
877.9499	-0
878.111	-0.7473
878.272	-0
878.433	-0.1117
878.5939	-0.1077
878.7549	-0.3565
878.9158	-0
879.0767	0.6292
879.2376	0.7019
879.3984	2.0688
879.5593	0.1416
879.7201	-1.7964
879.8809	1.5207
880.0417	-0.2398
880.2024	0.1272
880.3632	-0.0975
880.5239	0.1284
880.6846	-0.4374
880.8452	-0.134
881.0059	-0
881.1665	0.0546
881.3271	-0
881.4877	0.3243
881.6483	-1.1812
881.8088	-0
881.9693	-0
882.1298	-0
882.2903	-0
