Data from D4ACN5uM440nmA_Absorbance_13-50-26-062.txt Node
Date: Fri Feb 21 13:50:26 GMT 2025
User: LASERRRRR
Spectrometer: FLMT03099
Trigger mode: 0
Integration Time (sec): 1.500000E-2
Scans to average: 1
Electric dark correction enabled: true
Nonlinearity correction enabled: false
Boxcar width: 0
XAxis mode: Wavelengths
Number of Pixels in Spectrum: 3648
>>>>>Begin Spectral Data<<<<<
179.3399	0.1461
179.5586	0.1461
179.7771	0.1461
179.9957	0.0319
180.2143	-0
180.4329	-0
180.6514	-0
180.8699	0.0032
181.0885	-0
181.307	0.2104
181.5255	-0.0237
181.744	-0.1749
181.9625	0.4301
182.181	-0.2508
182.3994	-0.3449
182.6179	0.4196
182.8363	-0
183.0547	-0
183.2732	0.7337
183.4916	0.2355
183.71	0.212
183.9284	-0.1094
184.1467	0.0831
184.3651	0.1911
184.5835	0.1212
184.8018	0.163
185.0201	0.0595
185.2385	0.749
185.4568	0.1993
185.6751	0.1078
185.8934	0.4641
186.1117	-0.1607
186.3299	0.1974
186.5482	0.3306
186.7664	0.3042
186.9847	0.1114
187.2029	0.2299
187.4211	0.0759
187.6393	0.1379
187.8575	0.0605
188.0757	0.4605
188.2939	0.0327
188.512	0.3368
188.7302	0.3747
188.9483	0.1461
189.1665	0.9567
189.3846	0.1304
189.6027	0.2242
189.8208	0.3237
190.0389	0.0964
190.257	0.1956
190.475	0.1571
190.6931	0.052
190.9111	0.2639
191.1292	0.216
191.3472	0.1126
191.5652	0.3535
191.7832	0.298
192.0012	0.2344
192.2192	0.1394
192.4371	0.1896
192.6551	0.3954
192.873	0.2072
193.091	0.306
193.3089	0.2479
193.5268	0.4177
193.7447	0.2037
193.9626	0.3684
194.1805	0.2384
194.3984	0.2304
194.6162	0.2714
194.8341	0.2529
195.0519	0.3151
195.2697	0.3269
195.4875	0.3769
195.7054	0.3248
195.9231	0.2657
196.1409	0.396
196.3587	0.3616
196.5765	0.4514
196.7942	0.3674
197.012	0.3295
197.2297	0.3143
197.4474	0.348
197.6651	0.2801
197.8828	0.3629
198.1005	0.4229
198.3182	0.3896
198.5358	0.4119
198.7535	0.4351
198.9711	0.4002
199.1888	0.3737
199.4064	0.439
199.624	0.3845
199.8416	0.4064
200.0592	0.4191
200.2767	0.4336
200.4943	0.4486
200.7119	0.3865
200.9294	0.4218
201.1469	0.4007
201.3645	0.4798
201.582	0.3902
201.7995	0.4436
202.017	0.4143
202.2344	0.4106
202.4519	0.4215
202.6694	0.3957
202.8868	0.416
203.1042	0.4476
203.3217	0.3796
203.5391	0.4254
203.7565	0.3752
203.9739	0.4041
204.1913	0.338
204.4086	0.3789
204.626	0.3681
204.8433	0.3475
205.0607	0.3713
205.278	0.3405
205.4953	0.3406
205.7126	0.352
205.9299	0.334
206.1472	0.3169
206.3644	0.3527
206.5817	0.3398
206.7989	0.3524
207.0162	0.3219
207.2334	0.3224
207.4506	0.3183
207.6678	0.3246
207.885	0.2952
208.1022	0.3148
208.3194	0.2935
208.5365	0.3218
208.7537	0.3058
208.9708	0.3134
209.1879	0.2976
209.405	0.2898
209.6222	0.2664
209.8392	0.3026
210.0563	0.3028
210.2734	0.2635
210.4905	0.2551
210.7075	0.2741
210.9245	0.2718
211.1416	0.2777
211.3586	0.2731
211.5756	0.2358
211.7926	0.2632
212.0096	0.2632
212.2265	0.2679
212.4435	0.2604
212.6604	0.2473
212.8774	0.2472
213.0943	0.2597
213.3112	0.2437
213.5281	0.2516
213.745	0.2368
213.9619	0.246
214.1788	0.2742
214.3956	0.2453
214.6125	0.2552
214.8293	0.2498
215.0461	0.2425
215.2629	0.255
215.4798	0.252
215.6965	0.236
215.9133	0.2321
216.1301	0.2345
216.3469	0.2574
216.5636	0.2327
216.7803	0.2441
216.9971	0.2614
217.2138	0.2549
217.4305	0.2538
217.6472	0.2397
217.8639	0.2505
218.0805	0.2464
218.2972	0.2562
218.5138	0.2452
218.7305	0.2612
218.9471	0.2471
219.1637	0.2665
219.3803	0.2652
219.5969	0.2541
219.8135	0.2626
220.0301	0.2442
220.2466	0.2434
220.4632	0.2505
220.6797	0.259
220.8962	0.2525
221.1127	0.2557
221.3292	0.2608
221.5457	0.2624
221.7622	0.2733
221.9787	0.2761
222.1951	0.2737
222.4116	0.2717
222.628	0.2922
222.8444	0.2817
223.0608	0.2651
223.2772	0.2696
223.4936	0.2756
223.71	0.2777
223.9264	0.2865
224.1427	0.2846
224.3591	0.283
224.5754	0.2969
224.7917	0.2909
225.008	0.2971
225.2243	0.2914
225.4406	0.292
225.6569	0.3158
225.8732	0.3063
226.0894	0.3129
226.3057	0.3038
226.5219	0.3174
226.7381	0.3154
226.9543	0.3258
227.1705	0.3239
227.3867	0.3267
227.6029	0.3386
227.8191	0.3385
228.0352	0.3513
228.2513	0.3417
228.4675	0.3424
228.6836	0.3492
228.8997	0.3411
229.1158	0.3591
229.3319	0.3482
229.548	0.3503
229.764	0.3524
229.9801	0.3779
230.1961	0.3675
230.4121	0.3678
230.6282	0.3837
230.8442	0.3841
231.0602	0.3841
231.2761	0.3943
231.4921	0.3915
231.7081	0.3961
231.924	0.4029
232.14	0.4049
232.3559	0.4102
232.5718	0.4118
232.7877	0.4082
233.0036	0.4018
233.2195	0.4174
233.4353	0.4142
233.6512	0.4189
233.867	0.4283
234.0829	0.4294
234.2987	0.426
234.5145	0.4308
234.7303	0.4384
234.9461	0.45
235.1619	0.4445
235.3776	0.4382
235.5934	0.4273
235.8091	0.4478
236.0249	0.4475
236.2406	0.438
236.4563	0.4478
236.672	0.4304
236.8877	0.4502
237.1034	0.4466
237.319	0.4439
237.5347	0.4584
237.7503	0.4474
237.966	0.4707
238.1816	0.4624
238.3972	0.4534
238.6128	0.4583
238.8284	0.4556
239.0439	0.4653
239.2595	0.4565
239.475	0.4584
239.6906	0.4654
239.9061	0.4646
240.1216	0.4565
240.3371	0.4567
240.5526	0.4635
240.7681	0.4668
240.9836	0.4627
241.199	0.4584
241.4145	0.455
241.6299	0.4511
241.8453	0.4394
242.0607	0.444
242.2761	0.442
242.4915	0.4351
242.7069	0.4121
242.9223	0.4157
243.1376	0.4172
243.353	0.4049
243.5683	0.401
243.7836	0.3924
243.9989	0.3853
244.2142	0.3829
244.4295	0.3736
244.6448	0.3682
244.86	0.3534
245.0753	0.3536
245.2905	0.3481
245.5057	0.3346
245.721	0.3425
245.9362	0.337
246.1514	0.3259
246.3665	0.3106
246.5817	0.312
246.7969	0.3002
247.012	0.2954
247.2271	0.2963
247.4423	0.2931
247.6574	0.2894
247.8725	0.2732
248.0876	0.2685
248.3026	0.2713
248.5177	0.259
248.7328	0.2511
248.9478	0.2562
249.1628	0.2543
249.3779	0.2405
249.5929	0.2416
249.8079	0.2392
250.0228	0.2292
250.2378	0.2353
250.4528	0.2291
250.6677	0.2265
250.8827	0.2116
251.0976	0.2194
251.3125	0.2206
251.5274	0.2126
251.7423	0.2081
251.9572	0.2143
252.172	0.2025
252.3869	0.2041
252.6017	0.2096
252.8166	0.2025
253.0314	0.1948
253.2462	0.1917
253.461	0.196
253.6758	0.1978
253.8906	0.1897
254.1053	0.1933
254.3201	0.1925
254.5348	0.1857
254.7496	0.1795
254.9643	0.1942
255.179	0.1852
255.3937	0.1867
255.6083	0.1893
255.823	0.1885
256.0377	0.1885
256.2523	0.1844
256.467	0.1817
256.6816	0.1809
256.8962	0.1867
257.1108	0.1839
257.3254	0.1869
257.54	0.1864
257.7545	0.1806
257.9691	0.1813
258.1836	0.1757
258.3981	0.1796
258.6127	0.1719
258.8272	0.1833
259.0417	0.1705
259.2561	0.1804
259.4706	0.1778
259.6851	0.1748
259.8995	0.1805
260.114	0.1791
260.3284	0.1777
260.5428	0.1793
260.7572	0.1749
260.9716	0.1806
261.186	0.1723
261.4003	0.1755
261.6147	0.1726
261.829	0.1774
262.0433	0.1782
262.2577	0.1797
262.472	0.1802
262.6863	0.1831
262.9005	0.1747
263.1148	0.1794
263.3291	0.1805
263.5433	0.1812
263.7576	0.1824
263.9718	0.1838
264.186	0.1835
264.4002	0.1803
264.6144	0.1862
264.8286	0.1922
265.0427	0.1873
265.2569	0.1866
265.471	0.1825
265.6851	0.1835
265.8993	0.1873
266.1134	0.1852
266.3275	0.1818
266.5415	0.1886
266.7556	0.1856
266.9697	0.1905
267.1837	0.187
267.3978	0.1867
267.6118	0.1829
267.8258	0.1872
268.0398	0.1913
268.2538	0.19
268.4677	0.1874
268.6817	0.179
268.8957	0.1797
269.1096	0.1773
269.3235	0.1779
269.5374	0.1855
269.7514	0.1834
269.9652	0.1845
270.1791	0.1834
270.393	0.1757
270.6068	0.1843
270.8207	0.1771
271.0345	0.1761
271.2483	0.1751
271.4622	0.1746
271.676	0.18
271.8897	0.1736
272.1035	0.1828
272.3173	0.1816
272.531	0.178
272.7448	0.1843
272.9585	0.1738
273.1722	0.1712
273.3859	0.1783
273.5996	0.1786
273.8133	0.1847
274.0269	0.1774
274.2406	0.1778
274.4542	0.1819
274.6679	0.1818
274.8815	0.1841
275.0951	0.1872
275.3087	0.1938
275.5223	0.1802
275.7358	0.1942
275.9494	0.1891
276.1629	0.1918
276.3765	0.1906
276.59	0.1799
276.8035	0.1844
277.017	0.1919
277.2305	0.1924
277.444	0.1909
277.6574	0.1863
277.8709	0.1931
278.0843	0.1904
278.2978	0.1915
278.5112	0.1882
278.7246	0.186
278.938	0.1925
279.1513	0.1929
279.3647	0.1857
279.5781	0.1929
279.7914	0.1885
280.0047	0.1894
280.2181	0.1875
280.4314	0.19
280.6447	0.1902
280.8579	0.1852
281.0712	0.1879
281.2845	0.1883
281.4977	0.186
281.711	0.1856
281.9242	0.1894
282.1374	0.1908
282.3506	0.1901
282.5638	0.1854
282.7769	0.1813
282.9901	0.1925
283.2033	0.1861
283.4164	0.1817
283.6295	0.1859
283.8426	0.1845
284.0557	0.1903
284.2688	0.1851
284.4819	0.1861
284.695	0.1865
284.908	0.1836
285.1211	0.1862
285.3341	0.185
285.5471	0.1853
285.7601	0.1829
285.9731	0.185
286.1861	0.1887
286.3991	0.1864
286.612	0.1847
286.825	0.1899
287.0379	0.1832
287.2508	0.188
287.4637	0.1895
287.6766	0.1863
287.8895	0.1833
288.1024	0.1943
288.3152	0.1894
288.5281	0.1865
288.7409	0.1893
288.9538	0.187
289.1666	0.1847
289.3794	0.183
289.5922	0.1882
289.8049	0.1881
290.0177	0.189
290.2304	0.189
290.4432	0.1916
290.6559	0.1904
290.8686	0.1898
291.0813	0.1898
291.294	0.1885
291.5067	0.1862
291.7194	0.1814
291.932	0.1898
292.1447	0.1888
292.3573	0.1904
292.5699	0.187
292.7825	0.1834
292.9951	0.1858
293.2077	0.1888
293.4203	0.1904
293.6328	0.1872
293.8454	0.1919
294.0579	0.1861
294.2704	0.1923
294.4829	0.1922
294.6954	0.1899
294.9079	0.182
295.1204	0.1837
295.3328	0.1937
295.5453	0.1875
295.7577	0.1897
295.9701	0.1864
296.1825	0.1927
296.3949	0.1791
296.6073	0.1872
296.8197	0.1874
297.0321	0.1929
297.2444	0.1833
297.4567	0.1932
297.6691	0.1919
297.8814	0.1891
298.0937	0.1937
298.306	0.1869
298.5182	0.1879
298.7305	0.1914
298.9428	0.1861
299.155	0.1821
299.3672	0.1879
299.5794	0.1893
299.7916	0.1885
300.0038	0.1883
300.216	0.1868
300.4282	0.1897
300.6403	0.1912
300.8525	0.1906
301.0646	0.1918
301.2767	0.1917
301.4888	0.1849
301.7009	0.1921
301.913	0.1907
302.125	0.1874
302.3371	0.1921
302.5491	0.1878
302.7612	0.1924
302.9732	0.1933
303.1852	0.1865
303.3972	0.1891
303.6092	0.1876
303.8211	0.1836
304.0331	0.1857
304.245	0.1895
304.457	0.1867
304.6689	0.1897
304.8808	0.1838
305.0927	0.1835
305.3046	0.1874
305.5164	0.1859
305.7283	0.1773
305.9401	0.1726
306.152	0.1803
306.3638	0.1791
306.5756	0.1817
306.7874	0.1766
306.9992	0.1727
307.2109	0.169
307.4227	0.1716
307.6344	0.1764
307.8462	0.166
308.0579	0.1734
308.2696	0.165
308.4813	0.1704
308.693	0.1642
308.9046	0.1676
309.1163	0.1568
309.328	0.1627
309.5396	0.1575
309.7512	0.1487
309.9628	0.1526
310.1744	0.1544
310.386	0.149
310.5976	0.1501
310.8091	0.151
311.0207	0.1473
311.2322	0.1456
311.4437	0.1518
311.6552	0.1479
311.8667	0.1482
312.0782	0.1453
312.2897	0.1448
312.5012	0.138
312.7126	0.1366
312.924	0.1422
313.1355	0.1408
313.3469	0.1386
313.5583	0.1351
313.7696	0.1367
313.981	0.1424
314.1924	0.1355
314.4037	0.135
314.6151	0.1375
314.8264	0.1377
315.0377	0.1344
315.249	0.1339
315.4603	0.1288
315.6716	0.1337
315.8828	0.1343
316.0941	0.1314
316.3053	0.1274
316.5165	0.136
316.7277	0.1306
316.9389	0.1351
317.1501	0.133
317.3613	0.1309
317.5724	0.1321
317.7836	0.1242
317.9947	0.133
318.2058	0.1323
318.417	0.1246
318.6281	0.1238
318.8391	0.1335
319.0502	0.1227
319.2613	0.1258
319.4723	0.1287
319.6834	0.1308
319.8944	0.1291
320.1054	0.1274
320.3164	0.1263
320.5274	0.1208
320.7383	0.1348
320.9493	0.1324
321.1602	0.1294
321.3712	0.127
321.5821	0.1267
321.793	0.1327
322.0039	0.1272
322.2148	0.1292
322.4257	0.1283
322.6365	0.1237
322.8474	0.1318
323.0582	0.1306
323.269	0.129
323.4798	0.1301
323.6906	0.1275
323.9014	0.1276
324.1122	0.1244
324.3229	0.1356
324.5337	0.1337
324.7444	0.1323
324.9551	0.1304
325.1658	0.1276
325.3765	0.1345
325.5872	0.138
325.7979	0.1251
326.0085	0.1319
326.2192	0.1263
326.4298	0.1395
326.6404	0.1362
326.851	0.1356
327.0616	0.1329
327.2722	0.1405
327.4828	0.1349
327.6933	0.1413
327.9039	0.1317
328.1144	0.1374
328.3249	0.1356
328.5354	0.1384
328.7459	0.1354
328.9564	0.1338
329.1669	0.145
329.3773	0.1436
329.5878	0.1393
329.7982	0.1378
330.0086	0.1419
330.219	0.139
330.4294	0.1421
330.6398	0.1464
330.8502	0.1463
331.0605	0.1365
331.2708	0.138
331.4812	0.1457
331.6915	0.1386
331.9018	0.1375
332.1121	0.15
332.3224	0.1378
332.5326	0.1392
332.7429	0.1426
332.9531	0.1472
333.1633	0.1412
333.3735	0.1382
333.5837	0.1377
333.7939	0.1417
334.0041	0.1489
334.2143	0.1439
334.4244	0.1488
334.6346	0.1416
334.8447	0.1514
335.0548	0.1506
335.2649	0.1465
335.475	0.1482
335.685	0.1456
335.8951	0.1453
336.1051	0.1488
336.3152	0.1475
336.5252	0.1439
336.7352	0.1428
336.9452	0.1421
337.1552	0.1452
337.3652	0.1437
337.5751	0.1464
337.7851	0.1381
337.995	0.1409
338.2049	0.1481
338.4148	0.1426
338.6247	0.1448
338.8346	0.1455
339.0445	0.146
339.2543	0.1454
339.4642	0.1376
339.674	0.1419
339.8838	0.149
340.0936	0.1487
340.3034	0.1462
340.5132	0.1425
340.7229	0.1481
340.9327	0.1555
341.1424	0.1468
341.3522	0.1433
341.5619	0.1499
341.7716	0.1473
341.9813	0.1556
342.1909	0.1544
342.4006	0.1509
342.6102	0.1499
342.8199	0.1531
343.0295	0.1493
343.2391	0.1497
343.4487	0.1533
343.6583	0.1598
343.8679	0.1489
344.0774	0.1541
344.287	0.1581
344.4965	0.167
344.706	0.1697
344.9155	0.168
345.125	0.1618
345.3345	0.1691
345.544	0.1652
345.7534	0.1648
345.9629	0.1565
346.1723	0.1691
346.3817	0.1613
346.5911	0.1758
346.8005	0.1766
347.0099	0.1714
347.2193	0.1768
347.4286	0.1791
347.638	0.1741
347.8473	0.1737
348.0566	0.1665
348.2659	0.1766
348.4752	0.1702
348.6845	0.1697
348.8937	0.1727
349.103	0.172
349.3122	0.179
349.5214	0.1778
349.7306	0.1784
349.9398	0.1772
350.149	0.1698
350.3582	0.179
350.5674	0.1801
350.7765	0.1864
350.9856	0.1792
351.1948	0.1749
351.4039	0.1828
351.613	0.1728
351.822	0.1837
352.0311	0.1832
352.2402	0.1784
352.4492	0.1777
352.6582	0.1796
352.8672	0.1826
353.0762	0.1848
353.2852	0.1825
353.4942	0.1913
353.7032	0.185
353.9121	0.1829
354.1211	0.1821
354.33	0.1917
354.5389	0.1805
354.7478	0.1867
354.9567	0.1896
355.1655	0.1927
355.3744	0.1852
355.5833	0.1817
355.7921	0.1869
356.0009	0.189
356.2097	0.1802
356.4185	0.1866
356.6273	0.1829
356.8361	0.1852
357.0448	0.1799
357.2536	0.1964
357.4623	0.1836
357.671	0.1966
357.8797	0.1946
358.0884	0.183
358.2971	0.1951
358.5057	0.1937
358.7144	0.1947
358.923	0.1982
359.1316	0.1964
359.3402	0.2
359.5488	0.1892
359.7574	0.1945
359.966	0.1989
360.1746	0.2009
360.3831	0.2019
360.5916	0.2004
360.8002	0.2064
361.0087	0.2027
361.2172	0.2038
361.4256	0.206
361.6341	0.2056
361.8426	0.2062
362.051	0.2093
362.2594	0.1976
362.4678	0.2032
362.6762	0.2061
362.8846	0.2071
363.093	0.2048
363.3014	0.2182
363.5097	0.2147
363.718	0.2116
363.9264	0.2144
364.1347	0.2152
364.343	0.2206
364.5513	0.2165
364.7595	0.2226
364.9678	0.2195
365.176	0.221
365.3842	0.2241
365.5925	0.2177
365.8007	0.2233
366.0089	0.2237
366.217	0.2213
366.4252	0.2213
366.6333	0.2233
366.8415	0.224
367.0496	0.2263
367.2577	0.2328
367.4658	0.2253
367.6739	0.2344
367.882	0.2392
368.09	0.2241
368.2981	0.2293
368.5061	0.2302
368.7141	0.2281
368.9221	0.2463
369.1301	0.234
369.3381	0.2439
369.5461	0.2315
369.754	0.2438
369.962	0.2334
370.1699	0.2404
370.3778	0.2484
370.5857	0.2374
370.7936	0.245
371.0015	0.2378
371.2093	0.243
371.4172	0.2488
371.625	0.242
371.8328	0.2298
372.0406	0.2497
372.2484	0.2508
372.4562	0.2511
372.664	0.2465
372.8717	0.2474
373.0795	0.2531
373.2872	0.2589
373.4949	0.2508
373.7026	0.246
373.9103	0.2412
374.118	0.2588
374.3256	0.264
374.5333	0.24
374.7409	0.2549
374.9485	0.2531
375.1561	0.2532
375.3637	0.2575
375.5713	0.2547
375.7789	0.2626
375.9864	0.2567
376.194	0.2621
376.4015	0.2591
376.609	0.2539
376.8165	0.2617
377.024	0.2656
377.2315	0.2659
377.4389	0.2524
377.6464	0.2668
377.8538	0.27
378.0612	0.2627
378.2686	0.2605
378.476	0.2727
378.6834	0.2731
378.8908	0.2714
379.0981	0.2676
379.3055	0.2717
379.5128	0.2644
379.7201	0.2672
379.9274	0.2741
380.1347	0.2748
380.342	0.2751
380.5492	0.2716
380.7565	0.2687
380.9637	0.2806
381.1709	0.2754
381.3781	0.278
381.5853	0.2727
381.7925	0.2741
381.9997	0.2817
382.2068	0.2791
382.4139	0.2735
382.6211	0.2778
382.8282	0.2862
383.0353	0.2836
383.2424	0.2767
383.4494	0.2761
383.6565	0.2892
383.8635	0.2732
384.0706	0.2864
384.2776	0.286
384.4846	0.2833
384.6916	0.2766
384.8986	0.2823
385.1055	0.2866
385.3125	0.2886
385.5194	0.2918
385.7263	0.2782
385.9333	0.2886
386.1402	0.2919
386.347	0.2797
386.5539	0.2886
386.7608	0.2827
386.9676	0.2847
387.1744	0.2916
387.3813	0.2825
387.5881	0.2744
387.7948	0.2849
388.0016	0.2934
388.2084	0.2855
388.4151	0.2777
388.6219	0.2755
388.8286	0.2817
389.0353	0.2863
389.242	0.2869
389.4487	0.2862
389.6553	0.2679
389.862	0.2842
390.0686	0.2801
390.2753	0.2845
390.4819	0.2833
390.6885	0.279
390.8951	0.2756
391.1016	0.2694
391.3082	0.2783
391.5147	0.2665
391.7213	0.2764
391.9278	0.2703
392.1343	0.2687
392.3408	0.2758
392.5473	0.2661
392.7537	0.2581
392.9602	0.2636
393.1666	0.2611
393.373	0.2657
393.5794	0.2567
393.7858	0.2634
393.9922	0.2674
394.1986	0.2579
394.4049	0.2628
394.6113	0.2647
394.8176	0.2602
395.0239	0.2567
395.2302	0.2508
395.4365	0.256
395.6428	0.2571
395.8491	0.2511
396.0553	0.2489
396.2615	0.2441
396.4678	0.2556
396.674	0.2447
396.8802	0.2468
397.0863	0.2427
397.2925	0.2483
397.4987	0.2483
397.7048	0.2569
397.9109	0.2381
398.117	0.2514
398.3231	0.2404
398.5292	0.2354
398.7353	0.2391
398.9413	0.2344
399.1474	0.2419
399.3534	0.2383
399.5594	0.2456
399.7654	0.244
399.9714	0.239
400.1774	0.2402
400.3833	0.2357
400.5893	0.2477
400.7952	0.2425
401.0011	0.2419
401.207	0.2404
401.4129	0.2442
401.6188	0.2408
401.8247	0.2497
402.0305	0.238
402.2364	0.2512
402.4422	0.2434
402.648	0.2462
402.8538	0.2404
403.0596	0.2339
403.2654	0.2398
403.4711	0.2384
403.6768	0.2371
403.8826	0.2437
404.0883	0.2416
404.294	0.2371
404.4997	0.2382
404.7054	0.2463
404.911	0.2375
405.1167	0.2502
405.3223	0.234
405.5279	0.2404
405.7335	0.2365
405.9391	0.2342
406.1447	0.2481
406.3502	0.2455
406.5558	0.2382
406.7613	0.2302
406.9668	0.2327
407.1724	0.2431
407.3778	0.2436
407.5833	0.2264
407.7888	0.2407
407.9942	0.237
408.1997	0.2496
408.4051	0.2368
408.6105	0.2402
408.8159	0.238
409.0213	0.2409
409.2267	0.2425
409.432	0.244
409.6374	0.2427
409.8427	0.2472
410.048	0.2381
410.2533	0.2337
410.4586	0.2346
410.6639	0.2536
410.8691	0.2345
411.0744	0.2418
411.2796	0.2341
411.4848	0.2438
411.69	0.2278
411.8952	0.2399
412.1004	0.2406
412.3056	0.23
412.5107	0.2393
412.7158	0.2495
412.921	0.2484
413.1261	0.2319
413.3312	0.2365
413.5362	0.2493
413.7413	0.236
413.9464	0.2351
414.1514	0.2361
414.3564	0.2362
414.5614	0.228
414.7664	0.2245
414.9714	0.2265
415.1764	0.24
415.3813	0.2331
415.5863	0.2389
415.7912	0.2265
415.9961	0.2289
416.201	0.2393
416.4059	0.2246
416.6108	0.2274
416.8156	0.2318
417.0205	0.227
417.2253	0.2372
417.4301	0.2404
417.6349	0.2162
417.8397	0.2298
418.0445	0.2261
418.2492	0.2268
418.454	0.2384
418.6587	0.2284
418.8634	0.2266
419.0681	0.2294
419.2728	0.228
419.4775	0.2295
419.6822	0.2209
419.8868	0.2226
420.0915	0.22
420.2961	0.2168
420.5007	0.2293
420.7053	0.2168
420.9099	0.225
421.1144	0.2224
421.319	0.2164
421.5235	0.2053
421.728	0.22
421.9325	0.2204
422.137	0.2199
422.3415	0.2116
422.546	0.216
422.7504	0.2165
422.9549	0.2192
423.1593	0.2066
423.3637	0.2072
423.5681	0.2179
423.7725	0.214
423.9769	0.2164
424.1812	0.2124
424.3856	0.2095
424.5899	0.205
424.7942	0.2173
424.9985	0.205
425.2028	0.2053
425.4071	0.2151
425.6113	0.204
425.8156	0.2007
426.0198	0.208
426.224	0.2071
426.4282	0.196
426.6324	0.2005
426.8366	0.1936
427.0407	0.1949
427.2449	0.199
427.449	0.2003
427.6531	0.1983
427.8572	0.1916
428.0613	0.2067
428.2654	0.187
428.4694	0.1809
428.6735	0.1818
428.8775	0.1935
429.0815	0.1855
429.2855	0.1889
429.4895	0.1836
429.6935	0.182
429.8975	0.1727
430.1014	0.1909
430.3053	0.1767
430.5093	0.1748
430.7132	0.1637
430.9171	0.1689
431.1209	0.1731
431.3248	0.1667
431.5286	0.1679
431.7325	0.1725
431.9363	0.1659
432.1401	0.1636
432.3439	0.1632
432.5477	0.1517
432.7514	0.1602
432.9552	0.1566
433.1589	0.1463
433.3627	0.1573
433.5664	0.1449
433.7701	0.1521
433.9737	0.1576
434.1774	0.157
434.3811	0.1491
434.5847	0.1459
434.7883	0.1507
434.9919	0.1431
435.1955	0.1487
435.3991	0.1395
435.6027	0.1404
435.8062	0.1521
436.0098	0.1323
436.2133	0.136
436.4168	0.1331
436.6203	0.1332
436.8238	0.1256
437.0272	0.1262
437.2307	0.1165
437.4341	0.1258
437.6375	0.1195
437.841	0.1158
438.0443	0.1163
438.2477	0.1084
438.4511	0.1089
438.6545	0.1152
438.8578	0.117
439.0611	0.1197
439.2644	0.1132
439.4677	0.1151
439.671	0.1038
439.8743	0.1071
440.0775	0.0986
440.2808	0.1054
440.484	0.0931
440.6872	0.1006
440.8904	0.0911
441.0936	0.1003
441.2967	0.0868
441.4999	0.0968
441.703	0.093
441.9062	0.0904
442.1093	0.0972
442.3124	0.0877
442.5155	0.0903
442.7185	0.0895
442.9216	0.0847
443.1246	0.0875
443.3276	0.0871
443.5307	0.0736
443.7337	0.0793
443.9366	0.079
444.1396	0.0738
444.3426	0.0751
444.5455	0.076
444.7484	0.068
444.9513	0.0679
445.1542	0.0709
445.3571	0.0713
445.56	0.0601
445.7628	0.0709
445.9657	0.066
446.1685	0.0691
446.3713	0.0734
446.5741	0.0676
446.7769	0.0638
446.9797	0.0589
447.1824	0.0561
447.3852	0.0525
447.5879	0.0547
447.7906	0.052
447.9933	0.0546
448.196	0.0559
448.3986	0.0553
448.6013	0.0526
448.8039	0.0562
449.0066	0.0559
449.2092	0.0634
449.4118	0.0549
449.6143	0.0512
449.8169	0.053
450.0195	0.0498
450.222	0.0457
450.4245	0.0428
450.627	0.0421
450.8295	0.0438
451.032	0.052
451.2345	0.0449
451.4369	0.0382
451.6394	0.0415
451.8418	0.0428
452.0442	0.0453
452.2466	0.0407
452.449	0.0436
452.6513	0.0258
452.8537	0.0345
453.056	0.0347
453.2583	0.033
453.4607	0.0179
453.663	0.035
453.8652	0.0266
454.0675	0.0341
454.2697	0.0311
454.472	0.0293
454.6742	0.0305
454.8764	0.0353
455.0786	0.025
455.2808	0.018
455.4829	0.0296
455.6851	0.029
455.8872	0.0146
456.0893	0.0329
456.2915	0.0208
456.4935	0.0322
456.6956	0.0287
456.8977	0.0223
457.0997	0.0279
457.3018	0.0168
457.5038	0.0282
457.7058	0.0307
457.9078	0.0255
458.1098	0.0262
458.3117	0.0316
458.5137	0.0188
458.7156	0.0236
458.9175	0.0268
459.1194	0.0165
459.3213	0.0206
459.5232	0.0299
459.725	0.0198
459.9269	0.0197
460.1287	0.0227
460.3305	0.0269
460.5323	0.0159
460.7341	0.0186
460.9359	0.0072
461.1376	0.0224
461.3394	0.0205
461.5411	0.0251
461.7428	0.0137
461.9445	0.0133
462.1462	0.0178
462.3479	0.0083
462.5495	0.0226
462.7512	0.0235
462.9528	0.0138
463.1544	0.0142
463.356	0.008
463.5576	0.0188
463.7592	0.0089
463.9607	0.0079
464.1623	0.0165
464.3638	0.0108
464.5653	0.0133
464.7668	0.015
464.9683	0.0195
465.1697	0.009
465.3712	0.0107
465.5726	0.0081
465.7741	0.0148
465.9755	0.0058
466.1769	0.0109
466.3782	0.0076
466.5796	0.0198
466.7809	0.0136
466.9823	0.0167
467.1836	0.0135
467.3849	0.0199
467.5862	0.0026
467.7875	0.0083
467.9887	0.0163
468.19	0.0149
468.3912	0.0152
468.5924	0.013
468.7936	0.0091
468.9948	0.0051
469.196	0.014
469.3972	0.0073
469.5983	0.0052
469.7994	-0.002
470.0006	0.0089
470.2017	0.013
470.4027	0.0129
470.6038	0.0077
470.8049	0.0075
471.0059	0.0212
471.2069	0.0088
471.408	0.009
471.6089	0.0097
471.8099	0.0075
472.0109	0.0102
472.2119	0.0216
472.4128	0.0053
472.6137	0.0021
472.8146	0.0037
473.0155	0.0186
473.2164	-0.0014
473.4173	0.0051
473.6181	-0.0002
473.819	0.0034
474.0198	0.0056
474.2206	-0.0064
474.4214	0.0037
474.6222	-0.0099
474.8229	0.0065
475.0237	0.0091
475.2244	0.0151
475.4251	0.0097
475.6258	-0.0017
475.8265	0.0062
476.0272	0.001
476.2278	0.0035
476.4285	0.009
476.6291	0.0052
476.8297	0.0063
477.0303	-0.0036
477.2309	0.0051
477.4315	0.0069
477.632	0.0022
477.8326	0.0071
478.0331	0.0137
478.2336	0.0068
478.4341	0.0078
478.6346	0.001
478.8351	0.0044
479.0355	0.0124
479.236	0.0134
479.4364	0.0077
479.6368	-0.0013
479.8372	0.0096
480.0376	-0.0023
480.2379	0.0014
480.4383	0.0093
480.6386	0.001
480.8389	0.0183
481.0392	0.009
481.2395	0.0074
481.4398	0.0056
481.6401	0.0102
481.8403	0.0034
482.0405	0.0118
482.2408	0.0083
482.441	0.0027
482.6411	0.0056
482.8413	0.0014
483.0415	0.0075
483.2416	0.0032
483.4417	-0.0003
483.6419	-0.0007
483.8419	0.0062
484.042	0.0069
484.2421	-0.0053
484.4422	-0.0063
484.6422	0.0104
484.8422	0.0043
485.0422	0.0048
485.2422	0.0026
485.4422	0.0022
485.6422	0.0013
485.8421	0.0039
486.042	0.0124
486.242	0.0027
486.4419	0.0108
486.6417	0.0017
486.8416	0.003
487.0415	0.0005
487.2413	-0.0029
487.4411	0.0045
487.641	-0.0006
487.8408	0.0094
488.0405	0.0051
488.2403	-0.0011
488.4401	0.0039
488.6398	0.0101
488.8395	-0.0036
489.0392	0.0055
489.2389	0.0042
489.4386	-0.0113
489.6383	0.0049
489.8379	-0.0008
490.0376	0.0092
490.2372	0.002
490.4368	0.0023
490.6364	-0.0004
490.836	0.0025
491.0355	-0.0015
491.2351	0.0037
491.4346	0.0001
491.6341	-0.0008
491.8336	0.0093
492.0331	0.0071
492.2326	0.0035
492.432	0.0008
492.6315	0.0104
492.8309	0.0068
493.0303	0.003
493.2297	0.0009
493.4291	-0.0046
493.6284	0.0092
493.8278	-0.0047
494.0271	-0.0002
494.2264	-0.0003
494.4257	0.0075
494.625	0.0042
494.8243	0.0016
495.0236	0.0059
495.2228	0.008
495.422	0.0069
495.6213	0.0044
495.8205	0.0079
496.0196	0.008
496.2188	0.0007
496.418	0.0011
496.6171	-0.0006
496.8162	0.0023
497.0153	0.0011
497.2144	-0.0039
497.4135	0.001
497.6126	0.0002
497.8116	-0.0016
498.0107	0.0004
498.2097	0.0041
498.4087	0.0049
498.6077	-0.0051
498.8067	0.0062
499.0056	0.0008
499.2046	0.0132
499.4035	0.0083
499.6024	-0.0043
499.8013	0.0072
500.0002	0.0014
500.199	0.0097
500.3979	0.0017
500.5967	0.004
500.7956	0.0057
500.9944	-0.0008
501.1932	0.0092
501.3919	0.0065
501.5907	0.0114
501.7895	0.0003
501.9882	-0.002
502.1869	0.0054
502.3856	0.0013
502.5843	-0.004
502.783	-0.0014
502.9816	0.0041
503.1803	0.0082
503.3789	0.0075
503.5775	-0.0062
503.7761	0.0012
503.9747	0.0069
504.1732	-0.0044
504.3718	0.0131
504.5703	-0.0015
504.7689	-0.0021
504.9674	-0.0078
505.1658	-0.0037
505.3643	0.0065
505.5628	0.0024
505.7612	0.0124
505.9597	-0.0041
506.1581	-0.0047
506.3565	0.0065
506.5549	-0.0048
506.7532	-0.0074
506.9516	-0.0003
507.1499	-0.0019
507.3482	-0.0059
507.5465	-0.0017
507.7448	0.0008
507.9431	-0.0031
508.1414	-0.0064
508.3396	0.0006
508.5379	0.0046
508.7361	0.0067
508.9343	0.0051
509.1325	0.0131
509.3306	-0.0042
509.5288	-0.0092
509.7269	-0.0025
509.9251	0.0043
510.1232	0.0061
510.3213	0.0065
510.5193	-0.0092
510.7174	0.0006
510.9154	0.0059
511.1135	-0.002
511.3115	-0.0071
511.5095	-0.0022
511.7075	0.0049
511.9055	-0.0012
512.1034	-0.0047
512.3014	0.005
512.4993	0.0088
512.6972	0.0033
512.8951	0.0038
513.093	-0.006
513.2908	0.0103
513.4887	-0.0001
513.6865	0.0045
513.8844	-0.0001
514.0822	-0.0018
514.2799	-0.0027
514.4777	-0.003
514.6755	-0.0048
514.8732	-0.0005
515.0709	0.0103
515.2687	0.0033
515.4664	0.0149
515.664	0.0014
515.8617	0.0014
516.0594	0.0008
516.257	0.0007
516.4546	0.0074
516.6522	0.0032
516.8498	-0.0009
517.0474	0.0006
517.2449	-0.0018
517.4425	-0.0027
517.64	-0.0073
517.8375	0.0075
518.035	-0.0032
518.2325	-0.0098
518.43	-0.0013
518.6274	0.0026
518.8249	-0.0063
519.0223	0.0075
519.2197	-0.0048
519.4171	-0.0043
519.6145	-0.0001
519.8118	-0.015
520.0092	-0.0021
520.2065	0.0098
520.4038	0.0025
520.6011	0.006
520.7984	0.0042
520.9956	-0.0016
521.1929	0.0121
521.3901	0.0078
521.5874	0.0039
521.7846	-0.0093
521.9818	0.0056
522.1789	-0.0045
522.3761	0.0056
522.5732	0.0096
522.7704	0.0021
522.9675	-0.0085
523.1646	0.0023
523.3617	0.0056
523.5587	0.0051
523.7558	0.0048
523.9528	0.0071
524.1498	-0.0079
524.3468	0.005
524.5438	0.0038
524.7408	-0.0106
524.9378	0.0099
525.1347	0.003
525.3316	0.0003
525.5285	-0.0032
525.7254	-0.0003
525.9223	0.0055
526.1192	0.0029
526.316	0.0069
526.5129	0.0074
526.7097	-0.0024
526.9065	0.0083
527.1033	-0.0067
527.3	0.0067
527.4968	0.0066
527.6935	-0.0038
527.8903	-0.0005
528.087	0.0018
528.2837	-0.0004
528.4804	-0.0057
528.677	0.0024
528.8737	0.0023
529.0703	-0.0019
529.2669	0.0068
529.4635	0.0047
529.6601	-0.0038
529.8567	-0.0076
530.0532	-0.001
530.2498	-0.0013
530.4463	-0.0126
530.6428	0.0046
530.8393	0.0071
531.0358	-0.0037
531.2322	-0.0082
531.4287	-0.0022
531.6251	-0.0029
531.8215	-0.0003
532.0179	-0.0051
532.2143	0.0026
532.4107	0.0052
532.607	0.0025
532.8034	-0.0015
532.9997	-0.0031
533.196	-0.0015
533.3923	0.0092
533.5886	0.0068
533.7848	0.0012
533.9811	0.0031
534.1773	0.0032
534.3735	0.001
534.5697	-0.0025
534.7659	0.0089
534.9621	0.0081
535.1582	-0.0071
535.3544	0.0017
535.5505	0.0006
535.7466	-0.0017
535.9427	0.0018
536.1387	-0.0034
536.3348	0.0039
536.5308	-0.0004
536.7269	-0.009
536.9229	-0.0059
537.1189	0.0019
537.3148	0.0059
537.5108	0.0099
537.7068	0.0058
537.9027	-0.0025
538.0986	0.0021
538.2945	-0.0067
538.4904	-0.0098
538.6863	0.0011
538.8821	0.0136
539.078	0.0013
539.2738	-0.0001
539.4696	-0.0035
539.6654	0.0045
539.8611	0.0015
540.0569	0.0021
540.2526	-0.0003
540.4484	-0.005
540.6441	0.0018
540.8398	0.0081
541.0355	-0.0048
541.2311	0.0047
541.4268	0.0092
541.6224	0.0129
541.818	0.0083
542.0136	0.0012
542.2092	0.0131
542.4048	0.0018
542.6003	-0.0037
542.7959	0.0003
542.9914	0.0028
543.1869	-0.0038
543.3824	-0.0076
543.5779	0.0102
543.7734	0.0099
543.9688	-0.0012
544.1642	0.0096
544.3596	0.0109
544.555	-0.0083
544.7504	0.0074
544.9458	0.0029
545.1411	0
545.3365	-0.0051
545.5318	0.007
545.7271	0.0094
545.9224	-0.0021
546.1177	0.0006
546.3129	0.0029
546.5081	-0.0007
546.7034	0.0008
546.8986	0.0077
547.0938	0.0074
547.289	-0.0004
547.4841	0.0099
547.6793	-0.0031
547.8744	0.0016
548.0695	-0.0148
548.2646	0.0009
548.4597	0.0005
548.6548	0.0125
548.8498	0.0025
549.0448	0.0046
549.2399	0.0135
549.4349	0.0077
549.6298	0.0092
549.8248	-0.0028
550.0198	0.0079
550.2147	0.0007
550.4096	-0.0055
550.6045	-0.0042
550.7994	-0.0026
550.9943	0.0131
551.1892	-0.0181
551.384	0.0045
551.5788	0.0012
551.7737	-0.0005
551.9685	0.0025
552.1632	-0.0011
552.358	-0.0007
552.5528	0.0052
552.7475	0.0052
552.9422	-0.0046
553.1369	0.0054
553.3316	0.0094
553.5263	0.0135
553.7209	-0.0056
553.9156	-0.0004
554.1102	0.0075
554.3048	-0.0027
554.4994	0.0016
554.694	0.0054
554.8885	0.0076
555.0831	0.0042
555.2776	0.0063
555.4721	0.0086
555.6666	-0.0057
555.8611	0.0034
556.0555	-0.0014
556.25	0.0204
556.4444	0.002
556.6388	-0.0043
556.8332	0.0048
557.0276	0.0017
557.222	0.0048
557.4163	0.0167
557.6107	0.0038
557.805	0.0039
557.9993	0.0024
558.1936	-0.0102
558.3879	0.0013
558.5821	0.0043
558.7764	-0.0026
558.9706	0.0083
559.1648	0.0005
559.359	0.0008
559.5532	0.0043
559.7473	-0.0094
559.9415	0.0022
560.1356	0.013
560.3297	-0.0039
560.5238	0.01
560.7179	-0.003
560.9119	0.0042
561.106	0.0019
561.3	0.0027
561.494	-0.0047
561.688	-0.0018
561.882	0.0024
562.076	0.0064
562.2699	0.0056
562.4639	0.0051
562.6578	0.0041
562.8517	-0.0001
563.0456	0.0067
563.2395	0.0062
563.4333	0.0069
563.6272	-0.0025
563.821	0.0104
564.0148	0.0009
564.2086	0.0009
564.4024	0.0116
564.5961	0.0022
564.7899	0.0105
564.9836	0.0059
565.1773	0.0089
565.371	0.0159
565.5647	0.0013
565.7584	0.0129
565.952	0.0024
566.1456	0.0102
566.3393	0.009
566.5329	0.0013
566.7264	0.0061
566.92	0.0015
567.1136	0.0001
567.3071	-0.0074
567.5006	0.01
567.6941	-0.0017
567.8876	0.0094
568.0811	0.0179
568.2745	-0.0055
568.468	0.0049
568.6614	0.0098
568.8548	0.0058
569.0482	0.0044
569.2416	0.0046
569.4349	0.0021
569.6283	0.0023
569.8216	0.0047
570.0149	0.0058
570.2082	0.011
570.4015	0.0048
570.5947	0.0042
570.788	0.0075
570.9812	0.0001
571.1744	0.0028
571.3676	0.0014
571.5608	0.003
571.754	0.01
571.9471	0.0089
572.1402	0.0037
572.3333	0.0105
572.5264	0.0073
572.7195	0.0052
572.9126	0.0071
573.1057	0.0058
573.2987	0.0034
573.4917	0.0024
573.6847	0.002
573.8777	0.0066
574.0707	0.0048
574.2636	0.0013
574.4566	0.0004
574.6495	0.0038
574.8424	0.0077
575.0353	0.0092
575.2281	0.0098
575.421	-0.0007
575.6138	0
575.8067	0.0041
575.9995	0.0042
576.1923	0.0046
576.385	0.0032
576.5778	0.0119
576.7706	0.0071
576.9633	0.0061
577.156	0.002
577.3487	0.003
577.5414	0.0006
577.734	0.0014
577.9267	0.0083
578.1193	0.0056
578.3119	-0.0003
578.5045	0.0025
578.6971	0.004
578.8897	0.0019
579.0822	0.0107
579.2747	0.0016
579.4673	0.007
579.6598	0.0017
579.8522	0.0028
580.0447	0.0066
580.2372	0.0074
580.4296	0.0082
580.622	0.003
580.8144	0.0051
581.0068	0.0031
581.1992	0.0055
581.3915	0.0002
581.5839	0.0041
581.7762	0.0051
581.9685	0.0044
582.1608	0.0037
582.353	0.0042
582.5453	0.0045
582.7375	0.0074
582.9298	0.0008
583.122	0.0018
583.3142	0.0053
583.5063	0.0072
583.6985	0.0003
583.8906	0.0021
584.0827	0.0076
584.2749	0.0044
584.4669	0.0016
584.659	0.0079
584.8511	0.0103
585.0431	0.0075
585.2352	0.0003
585.4272	0.006
585.6192	0.0069
585.8111	0.0034
586.0031	0.0038
586.195	0.0024
586.387	0.0059
586.5789	0.0093
586.7708	0.008
586.9627	0.0076
587.1545	0.0016
587.3464	0.004
587.5382	0.0084
587.73	0.0075
587.9218	0.0024
588.1136	0.003
588.3053	0.0001
588.4971	0.0076
588.6888	-0.0029
588.8805	0.004
589.0722	0.0073
589.2639	0.0024
589.4556	0.0044
589.6472	0.0073
589.8389	0.0039
590.0305	0.001
590.2221	0.0104
590.4137	-0.0001
590.6052	0.0033
590.7968	0.0061
590.9883	0.0006
591.1798	0.0013
591.3713	0.0023
591.5628	0.0107
591.7543	0.0004
591.9458	-0.0012
592.1372	0.0073
592.3286	-0.0004
592.52	0.0039
592.7114	0.0059
592.9028	0.0078
593.0941	0.0029
593.2855	0.0026
593.4768	0.0085
593.6681	0.0063
593.8594	0.0087
594.0506	0.0011
594.2419	0.0066
594.4331	0.0053
594.6244	-0.0028
594.8156	0.0063
595.0067	0.0004
595.1979	-0.0036
595.3891	0.0089
595.5802	0.0077
595.7713	0.002
595.9624	0.0078
596.1535	0.0026
596.3446	-0.0044
596.5357	0.007
596.7267	0.0062
596.9177	0.0047
597.1087	0.0045
597.2997	0.0079
597.4907	-0.0022
597.6817	0.0094
597.8726	0.0084
598.0635	0.0026
598.2544	0.0102
598.4453	0.0002
598.6362	0.0018
598.827	0.0043
599.0179	0.0074
599.2087	0.0083
599.3995	0.0104
599.5903	0.0104
599.7811	0.0127
599.9718	-0.0036
600.1626	0.0019
600.3533	0.0026
600.544	0.0046
600.7347	0.0074
600.9254	0.0088
601.116	0.0063
601.3067	0.0038
601.4973	0.0071
601.6879	0.0086
601.8785	-0.0001
602.0691	0.0028
602.2596	0.0066
602.4502	0.0077
602.6407	0.0061
602.8312	0.0059
603.0217	0.0022
603.2122	0.003
603.4027	0.0077
603.5931	0.0012
603.7835	0.0121
603.9739	0.0017
604.1643	0.0144
604.3547	0.0067
604.5451	0.0096
604.7354	0.0009
604.9257	-0.0031
605.116	0.0028
605.3063	0.0091
605.4966	0.0063
605.6869	0.0094
605.8771	0.006
606.0673	0.007
606.2575	0.0024
606.4477	0.0089
606.6379	-0.0007
606.8281	0.0043
607.0182	0.0063
607.2083	0.0071
607.3985	0.0052
607.5885	0.0033
607.7786	0.0073
607.9687	0.013
608.1587	0.005
608.3488	0.0058
608.5388	-0.0014
608.7288	0.0028
608.9187	0.0029
609.1087	0.0095
609.2986	0.0038
609.4886	-0.002
609.6785	0.0053
609.8684	0.0066
610.0582	0.0057
610.2481	-0.0029
610.4379	0.0088
610.6278	0.008
610.8176	0.0098
611.0074	0.0062
611.1971	0.0026
611.3869	0.007
611.5766	-0.0049
611.7664	0.005
611.9561	0.004
612.1458	0.0057
612.3354	0.0103
612.5251	0.0072
612.7147	0.0055
612.9044	0.0045
613.094	0.0077
613.2836	0.0018
613.4731	0.0082
613.6627	0.009
613.8522	0.0092
614.0417	0.0105
614.2313	-0.0016
614.4207	-0.0014
614.6102	0.0084
614.7997	0.0096
614.9891	0.0097
615.1785	-0.0034
615.3679	0.006
615.5573	0.0035
615.7467	0.0003
615.9361	0.0054
616.1254	0.0078
616.3147	0.0116
616.504	0.0059
616.6933	-0.0005
616.8826	-0.0009
617.0718	0.0074
617.2611	0.0032
617.4503	0.009
617.6395	0.0084
617.8287	0.0085
618.0179	0.0039
618.207	0.0173
618.3961	-0.001
618.5853	-0.0001
618.7744	-0.0004
618.9634	0.0117
619.1525	0.022
619.3416	-0.0108
619.5306	0.0052
619.7196	0.0048
619.9086	-0.0041
620.0976	-0.0096
620.2866	0.006
620.4755	-0.0079
620.6645	0.0126
620.8534	0.0103
621.0423	-0.0023
621.2312	0
621.42	0.0033
621.6089	0.0034
621.7977	0.0016
621.9865	0.002
622.1753	-0.0031
622.3641	-0.0033
622.5529	-0.0009
622.7416	0.0018
622.9303	0.0052
623.1191	0.0132
623.3078	0.0062
623.4964	-0.0026
623.6851	-0.0024
623.8737	0.0089
624.0624	-0.0025
624.251	-0.0001
624.4396	0.0045
624.6282	0.0228
624.8167	0.0017
625.0053	0.0072
625.1938	0.0065
625.3823	0.0055
625.5708	-0.0042
625.7593	0.0028
625.9477	0.0173
626.1362	0.0091
626.3246	0.0103
626.513	0.0182
626.7014	0.0036
626.8898	0.0184
627.0781	0.0113
627.2665	0.0055
627.4548	-0.0007
627.6431	0.011
627.8314	0.0104
628.0197	0.0001
628.2079	0.0049
628.3962	0.014
628.5844	0.0112
628.7726	0.0024
628.9608	0.0055
629.1489	0.0061
629.3371	-0.0037
629.5252	0.0213
629.7134	-0.0114
629.9015	-0.0009
630.0895	0.0077
630.2776	0.0187
630.4657	0.0065
630.6537	0.0111
630.8417	0.002
631.0297	0.0023
631.2177	-0.0025
631.4057	0.0145
631.5936	0.0008
631.7815	0.0091
631.9695	0.021
632.1574	0.0194
632.3452	0.0086
632.5331	-0.0029
632.7209	0.008
632.9088	0.0128
633.0966	0.0123
633.2844	0.0084
633.4722	0.0046
633.6599	0.0189
633.8477	0.0052
634.0354	0.0103
634.2231	-0.0112
634.4108	-0.0031
634.5985	0.0119
634.7861	0.0007
634.9738	-0.0078
635.1614	-0.0045
635.349	-0.008
635.5366	0.0084
635.7242	0.0061
635.9117	0.0098
636.0993	0.0214
636.2868	0.0017
636.4743	-0.0047
636.6618	-0.0029
636.8492	0.019
637.0367	-0.0044
637.2241	0.009
637.4115	0.0326
637.5989	0.0162
637.7863	0.0225
637.9737	0.0098
638.161	0.0217
638.3484	-0.006
638.5357	0.0042
638.723	0.0122
638.9103	0.0043
639.0975	0.0043
639.2848	0.0173
639.472	0.0015
639.6592	-0.016
639.8464	0.0017
640.0336	0.0133
640.2208	0.0095
640.4079	0.0042
640.595	0.0044
640.7821	0.0221
640.9692	0.0019
641.1563	0.0043
641.3434	0.0062
641.5304	0.0149
641.7174	0.0121
641.9044	-0.0008
642.0914	0.0183
642.2784	-0.0037
642.4653	0.0048
642.6523	0.021
642.8392	0.017
643.0261	0.0229
643.213	0.006
643.3999	0.0231
643.5867	-0.0023
643.7735	0.0012
643.9604	0.0268
644.1472	0.0118
644.3339	-0.0057
644.5207	-0.0032
644.7075	-0.0038
644.8942	-0.0102
645.0809	0.0178
645.2676	-0.012
645.4543	-0.0004
645.6409	0.015
645.8276	0.0242
646.0142	0.0033
646.2008	0.0167
646.3874	-0.0022
646.574	-0.0036
646.7605	0.0167
646.9471	-0.0041
647.1336	-0.0014
647.3201	0.0067
647.5066	0.0139
647.6931	0.012
647.8795	0.0098
648.0659	0.0218
648.2524	0.011
648.4388	0.0079
648.6252	0.0096
648.8115	-0.0061
648.9979	0.0156
649.1842	-0.0139
649.3705	0.0089
649.5568	-0.0088
649.7431	-0.004
649.9294	-0.0096
650.1156	0.003
650.3018	-0.0055
650.488	0.0028
650.6742	0.0097
650.8604	0.0182
651.0466	-0.007
651.2327	-0.0046
651.4188	0.0043
651.6049	0.0177
651.791	0.0002
651.9771	0.0069
652.1632	0.0083
652.3492	0.0034
652.5352	0.014
652.7212	0.0014
652.9072	-0.0096
653.0932	0.0105
653.2791	0.0029
653.465	0.0265
653.651	-0.0039
653.8369	0.0069
654.0227	0.0088
654.2086	0.0312
654.3944	0.0114
654.5803	0
654.7661	0.0093
654.9519	0.0011
655.1377	0.0002
655.3234	0.0002
655.5092	0.0002
655.6949	0.0002
655.8806	0.0002
656.0663	0.0002
656.2519	0.0002
656.4376	0.0002
656.6232	0.0002
656.8088	0.0002
656.9945	0.0002
657.18	0.0002
657.3656	0.0002
657.5511	0.0002
657.7367	0.0002
657.9222	0.0002
658.1077	0.0002
658.2932	0.0002
658.4786	0.0002
658.6641	0.0002
658.8495	0.0002
659.0349	0.0002
659.2203	0.0002
659.4057	0.0002
659.591	0.14
659.7764	0.0209
659.9617	0.0062
660.147	0.0196
660.3323	0.0052
660.5176	0.0038
660.7028	-0.0204
660.888	0.0243
661.0733	0.0189
661.2585	-0.0029
661.4436	0.0076
661.6288	0.0191
661.8139	-0.0155
661.9991	-0.0146
662.1842	-0.0018
662.3693	0.0115
662.5544	0.0203
662.7394	0.0207
662.9245	-0.0102
663.1095	-0.0028
663.2945	-0.003
663.4795	-0.0024
663.6644	0.0094
663.8494	0.0175
664.0343	0.0204
664.2193	-0.0106
664.4042	0.0084
664.589	0.0178
664.7739	0.0242
664.9587	-0.0068
665.1436	-0.0134
665.3284	-0.0002
665.5132	-0.0061
665.698	0.0119
665.8827	0.0246
666.0675	0.0004
666.2522	0.0072
666.4369	-0.0096
666.6216	0.0055
666.8063	0.0069
666.9909	0.0004
667.1756	-0.0142
667.3602	-0.0135
667.5448	0.0089
667.7294	0.0062
667.9139	0.0046
668.0985	0.0205
668.283	0.0001
668.4675	0.0217
668.652	0.0168
668.8365	0.0194
669.0209	0.037
669.2054	0.0219
669.3898	-0.0109
669.5742	0.0148
669.7586	0.0321
669.943	0.0074
670.1273	-0.0099
670.3117	0.0271
670.496	0.0188
670.6803	0.0099
670.8646	-0.0175
671.0488	0.011
671.2331	-0.0064
671.4173	0.0046
671.6015	-0.0061
671.7857	0.0076
671.9699	0.0202
672.1541	0.0045
672.3382	0.0027
672.5223	-0.0036
672.7064	-0.0026
672.8905	-0.0106
673.0746	0.0123
673.2587	0.0343
673.4427	0.0164
673.6267	0.0134
673.8107	0.0287
673.9947	0.0149
674.1787	0.0215
674.3626	0.0073
674.5465	0.0152
674.7304	0.0109
674.9143	-0.0003
675.0982	-0.0012
675.2821	0.0103
675.4659	0.0047
675.6497	0.014
675.8335	0.007
676.0173	-0.0141
676.2011	0.0246
676.3849	0.0135
676.5686	0.0254
676.7523	0.0067
676.936	0.0078
677.1197	0.0059
677.3034	0.0436
677.487	0.0021
677.6706	0.0138
677.8542	-0.0067
678.0378	0.0103
678.2214	-0.0027
678.405	0.012
678.5885	-0.0013
678.772	0.0159
678.9555	0.0013
679.139	0.0132
679.3225	0.0031
679.5059	-0.0015
679.6894	-0.0009
679.8728	0.0154
680.0562	0.017
680.2395	0.0117
680.4229	-0.0144
680.6062	0.0087
680.7896	-0.0082
680.9729	0.0247
681.1562	0.0096
681.3394	-0.0009
681.5227	0.016
681.7059	0
681.8891	-0.0037
682.0723	0.012
682.2555	0.0029
682.4387	0.0128
682.6218	0.0126
682.805	0.0327
682.9881	0.024
683.1712	0.0371
683.3542	0.0184
683.5373	0.0057
683.7203	0.0144
683.9034	-0.007
684.0864	0.0109
684.2694	-0.0012
684.4523	0.0213
684.6353	-0.0016
684.8182	0.0006
685.0011	0.0135
685.184	0.0115
685.3669	0.0245
685.5498	0.0013
685.7326	0.0124
685.9154	0.0016
686.0982	0.0222
686.281	0.0117
686.4638	0.0117
686.6465	-0.0071
686.8293	-0.008
687.012	0.0204
687.1947	0.0055
687.3774	0.0057
687.56	-0.0145
687.7427	0.0051
687.9253	-0.0227
688.1079	0.0078
688.2905	-0.0119
688.4731	0.0208
688.6556	-0.014
688.8382	-0.0209
689.0207	0.0117
689.2032	0.0231
689.3857	-0.0049
689.5681	0.0112
689.7506	0.0228
689.933	0.0119
690.1154	0.0269
690.2978	0.0229
690.4802	0.0223
690.6626	0.012
690.8449	0.0188
691.0272	0.0015
691.2095	-0.0041
691.3918	0.0068
691.5741	0.0125
691.7563	0.0233
691.9386	0.0101
692.1208	0.0032
692.303	0.0074
692.4852	0.0182
692.6673	0.0169
692.8495	0.0137
693.0316	-0.0002
693.2137	0.0333
693.3958	0.0098
693.5778	0.0156
693.7599	-0.0045
693.9419	0.0167
694.1239	0.009
694.3059	0.016
694.4879	0.0054
694.6699	-0.0016
694.8518	0.0148
695.0337	0.0155
695.2157	0.0358
695.3975	-0.0028
695.5794	-0.0146
695.7613	0.0154
695.9431	-0.0166
696.1249	0.0095
696.3067	0.0182
696.4885	0.0219
696.6703	0.0065
696.852	0.0081
697.0337	0.0241
697.2154	0.0019
697.3971	0.013
697.5788	0.0347
697.7605	-0.0062
697.9421	0.0107
698.1237	0.0276
698.3053	0.0019
698.4869	-0.001
698.6685	0.0115
698.85	0.0219
699.0315	0.0004
699.213	0.0275
699.3945	-0.0097
699.576	0.0274
699.7575	0.0041
699.9389	-0.0145
700.1203	-0.0015
700.3017	0.0096
700.4831	0.0232
700.6645	0.0296
700.8458	-0.0062
701.0271	0.0542
701.2084	0.0172
701.3897	0.0049
701.571	0.0004
701.7523	0.0018
701.9335	0.0249
702.1147	0.0177
702.2959	-0.0063
702.4771	0.01
702.6583	0.0064
702.8394	-0.0152
703.0205	0.0199
703.2016	0.0181
703.3827	-0.0195
703.5638	0.0004
703.7449	0.029
703.9259	0.0121
704.1069	0.0001
704.2879	0.0288
704.4689	0.0254
704.6499	0.0254
704.8308	0.0259
705.0117	0.0026
705.1927	0.0075
705.3735	0.0243
705.5544	0.0147
705.7353	-0.026
705.9161	-0.0084
706.0969	0.0243
706.2777	0.0118
706.4585	0.0089
706.6393	0.0145
706.82	0.0138
707.0007	0.0151
707.1815	-0.005
707.3621	0.0289
707.5428	0.0082
707.7235	0.0063
707.9041	0.0177
708.0847	-0.0013
708.2653	0.0357
708.4459	0.0057
708.6265	-0.0026
708.807	-0.0125
708.9875	0.0026
709.168	-0.0024
709.3485	0.0115
709.529	0.0104
709.7095	-0.0105
709.8899	0.0229
710.0703	0.0403
710.2507	-0.003
710.4311	-0.0218
710.6115	0.0272
710.7918	0.0226
710.9721	0.0196
711.1524	-0.0073
711.3327	-0.024
711.513	0.0009
711.6932	-0.0033
711.8735	0.0242
712.0537	-0.0076
712.2339	0.0017
712.4141	0.0239
712.5942	-0.0003
712.7744	0.0183
712.9545	0.0091
713.1346	0.0178
713.3147	0.022
713.4947	-0.0124
713.6748	0.0108
713.8548	0.0187
714.0348	0.0261
714.2148	0.0071
714.3948	0.0181
714.5748	0.0187
714.7547	0.0203
714.9346	0.0237
715.1145	-0.0042
715.2944	0.0008
715.4743	0.0294
715.6541	-0.0076
715.834	0.0223
716.0138	-0.0013
716.1936	0.0054
716.3733	0.0036
716.5531	0.0055
716.7328	0.0459
716.9126	0.0102
717.0923	-0.0021
717.2719	0.0037
717.4516	0.0145
717.6312	-0.012
717.8109	0.0262
717.9905	0.0398
718.1701	0.0262
718.3496	-0.0011
718.5292	0.0069
718.7087	0.0137
718.8882	0.0247
719.0677	0.0127
719.2472	0.0181
719.4267	-0.0188
719.6061	0.0039
719.7856	0.0203
719.965	0.0261
720.1443	-0.0007
720.3237	0.002
720.5031	0.0168
720.6824	0.0283
720.8617	0.0275
721.041	0.0158
721.2203	-0.0181
721.3995	-0.0037
721.5788	-0.0003
721.758	0.0157
721.9372	0.0144
722.1164	0.0079
722.2956	0.0089
722.4747	-0.0012
722.6538	-0.0074
722.8329	0.0434
723.012	-0.0075
723.1911	0.0065
723.3702	0.0191
723.5492	-0.0046
723.7282	0.0345
723.9072	0.0201
724.0862	0.0023
724.2652	-0.0012
724.4441	-0.006
724.623	0.0169
724.8019	0.0015
724.9808	0.0094
725.1597	0.0281
725.3385	0.0155
725.5174	-0.0043
725.6962	0.0073
725.875	0.0125
726.0538	0.0081
726.2325	0.0299
726.4112	-0.0161
726.59	-0.0214
726.7687	-0.0121
726.9474	-0.0091
727.126	0.01
727.3047	0.002
727.4833	0.0111
727.6619	0.0073
727.8405	-0.0104
728.0191	0.0323
728.1976	0.0093
728.3762	0.0084
728.5547	-0.0111
728.7332	0.0194
728.9116	-0.002
729.0901	0.0187
729.2686	0.0048
729.447	0.0026
729.6254	0.0042
729.8038	0.0128
729.9821	-0.016
730.1605	0.0249
730.3388	-0.0044
730.5171	0.0075
730.6954	-0.0081
730.8737	-0.0068
731.0519	-0.0012
731.2302	0.0129
731.4084	-0.0049
731.5866	0.0012
731.7648	0.0085
731.9429	0.023
732.1211	0.0084
732.2992	0.0006
732.4773	-0.0053
732.6554	0.0066
732.8335	0.0153
733.0115	0.0035
733.1896	-0.001
733.3676	0.0086
733.5456	0.0076
733.7235	-0.0002
733.9015	0.004
734.0794	-0.0066
734.2574	-0.014
734.4353	0.0204
734.6131	0.0037
734.791	0.0126
734.9689	-0.0014
735.1467	-0.0178
735.3245	0.0139
735.5023	0.0036
735.68	0.0125
735.8578	0.0167
736.0355	0.0081
736.2132	0.014
736.3909	0.0331
736.5686	-0.0094
736.7463	-0.0145
736.9239	0.0304
737.1015	0.0252
737.2791	0.0165
737.4567	0.0268
737.6343	0.0186
737.8118	0.0352
737.9894	0.0071
738.1669	-0.0013
738.3444	0.026
738.5218	-0.0286
738.6993	-0.0021
738.8767	0.0028
739.0541	-0.0032
739.2315	0.004
739.4089	0.0459
739.5863	0.0245
739.7636	0.0001
739.9409	-0.0039
740.1182	-0.0034
740.2955	0.0179
740.4728	-0.003
740.65	-0.0105
740.8272	0.0001
741.0044	0.0229
741.1816	0.028
741.3588	-0.0074
741.5359	-0.0049
741.7131	0.0131
741.8902	-0.0065
742.0673	-0.0133
742.2444	0.0547
742.4214	0.0218
742.5985	-0.002
742.7755	-0.0222
742.9525	0.0064
743.1295	-0.0244
743.3064	0.0104
743.4834	0.0132
743.6603	0.019
743.8372	-0.0285
744.0141	0.0456
744.191	0.0148
744.3678	-0.0218
744.5446	0.0138
744.7215	0.0224
744.8982	0.0052
745.075	0.0507
745.2518	0.0186
745.4285	0.0131
745.6052	-0.028
745.7819	0.0038
745.9586	0.0087
746.1353	-0.0203
746.3119	0.0086
746.4885	0.0297
746.6651	0.0022
746.8417	0.009
747.0183	0.0255
747.1948	-0.0042
747.3714	0.0139
747.5479	0.0498
747.7244	0.0081
747.9008	0.0183
748.0773	0.0471
748.2537	0.0152
748.4301	0.0199
748.6065	-0.0421
748.7829	-0.0309
748.9593	-0.0138
749.1356	0.0004
749.3119	-0.0034
749.4882	0.0407
749.6645	0.0031
749.8408	0.0301
750.017	0.029
750.1933	-0.008
750.3695	0.0157
750.5457	-0.0217
750.7218	0.0193
750.898	-0.0083
751.0741	0.0166
751.2502	0.028
751.4263	0.0109
751.6024	0.002
751.7784	0.0103
751.9545	0.0041
752.1305	0.04
752.3065	0.0365
752.4825	0.0049
752.6584	0.0275
752.8344	-0.001
753.0103	-0.0103
753.1862	0.0268
753.3621	0.0063
753.5379	-0.0043
753.7138	-0.0026
753.8896	0.0122
754.0654	0.0165
754.2412	0.0098
754.417	0.0178
754.5927	0.0307
754.7685	0.0168
754.9442	0.0152
755.1199	0.0139
755.2956	0.0124
755.4712	0.0009
755.6469	0.0144
755.8225	0.0059
755.9981	0.0107
756.1736	0.0117
756.3492	0.0116
756.5248	0.0159
756.7003	-0.0011
756.8758	-0.0019
757.0513	0.0065
757.2267	0.0146
757.4022	-0.0019
757.5776	0.0065
757.753	0.0168
757.9284	0.0012
758.1038	0.0247
758.2791	0.0147
758.4545	0.005
758.6298	0.0202
758.8051	0.0229
758.9803	0.0024
759.1556	0.0039
759.3308	-0.0093
759.506	-0.0125
759.6812	0.0082
759.8564	0.0107
760.0316	-0.0081
760.2067	0.0229
760.3819	0.0065
760.557	-0.0079
760.732	0.0027
760.9071	-0.0011
761.0821	-0.0132
761.2572	0.0076
761.4322	0.0163
761.6072	0.022
761.7821	-0.0208
761.9571	0.0343
762.132	0.0027
762.3069	0.0341
762.4818	0.0132
762.6567	-0.0018
762.8316	0.032
763.0064	0.0024
763.1812	0.0111
763.356	-0.0062
763.5308	0.02
763.7055	-0.003
763.8803	-0.0055
764.055	-0.0294
764.2297	0.0115
764.4044	0.0009
764.579	0.0107
764.7537	0.0007
764.9283	0.0146
765.1029	0.0059
765.2775	0.0092
765.4521	0.0202
765.6266	0.0032
765.8011	0.0041
765.9756	0.0044
766.1501	-0.0062
766.3246	0.0092
766.4991	0.0147
766.6735	0.0045
766.8479	-0.0151
767.0223	0.0436
767.1967	0.0348
767.371	0.031
767.5454	0.0053
767.7197	0.0204
767.894	0.0228
768.0683	0.0252
768.2425	0.0121
768.4168	0.0136
768.591	0.0103
768.7652	0.0073
768.9394	-0.0203
769.1135	-0.0068
769.2877	0.0308
769.4618	0.045
769.6359	-0.0215
769.81	0.0237
769.984	-0.0122
770.1581	0.0161
770.3321	0.0056
770.5061	0.0131
770.6801	-0.0223
770.8541	0.0169
771.028	0.0379
771.202	0.0401
771.3759	0.0235
771.5498	0.0282
771.7236	0.0226
771.8975	0.0611
772.0713	0.0001
772.2451	0.0075
772.4189	0.0236
772.5927	-0.0312
772.7665	0.0107
772.9402	0.0288
773.1139	-0.0086
773.2876	-0.0097
773.4613	0.0227
773.635	0.007
773.8086	0.015
773.9822	0.037
774.1558	0.0423
774.3294	0.0049
774.503	0.028
774.6765	0.0415
774.8501	0.0154
775.0236	0.0476
775.1971	0.0055
775.3705	0.0217
775.544	-0.0185
775.7174	0.0503
775.8908	-0.0025
776.0642	0.0753
776.2376	0.0532
776.4109	0.0406
776.5843	-0.0034
776.7576	0.0018
776.9309	0.0111
777.1041	-0.013
777.2774	-0.0225
777.4506	0.0185
777.6238	0.031
777.797	0.0144
777.9702	0.0236
778.1434	0.0342
778.3165	-0.0215
778.4896	-0.0512
778.6627	0.0113
778.8358	0.0007
779.0089	-0.0261
779.1819	0.0507
779.3549	0.0059
779.5279	-0.0342
779.7009	0.047
779.8739	0.0263
780.0468	0.0385
780.2197	0.029
780.3926	-0.0166
780.5655	0.0285
780.7384	0.0137
780.9112	0.0492
781.0841	0.0308
781.2569	-0.0008
781.4297	-0.0094
781.6024	0.0254
781.7752	0.0437
781.9479	0.0827
782.1206	-0.0093
782.2933	0.0145
782.466	0.0321
782.6386	-0.0039
782.8113	0.0197
782.9839	0.0025
783.1565	0.0017
783.329	-0.0214
783.5016	-0.0027
783.6741	0.0505
783.8466	0.0322
784.0191	0.0098
784.1916	0.0146
784.3641	-0.0211
784.5365	0.0236
784.7089	0.0128
784.8813	0.1267
785.0537	0.0269
785.2261	0.0372
785.3984	0.017
785.5707	-0.0028
785.743	0.0865
785.9153	-0.0299
786.0876	-0.03
786.2598	-0.0153
786.432	0.0317
786.6042	0.0669
786.7764	-0.0155
786.9486	-0.0026
787.1207	0.0355
787.2928	0.0458
787.4649	0.0206
787.637	0.0139
787.8091	-0.0063
787.9811	0.0192
788.1532	0.039
788.3252	0.0252
788.4972	0.0095
788.6691	0.0229
788.8411	0.0236
789.013	0.007
789.1849	-0.0027
789.3568	0.0228
789.5287	0.0884
789.7005	-0.0498
789.8723	-0.0486
790.0442	-0.0202
790.2159	0.0246
790.3877	0.0324
790.5595	0.0473
790.7312	0.0072
790.9029	0.0033
791.0746	0.057
791.2463	-0.0258
791.4179	0.0263
791.5896	0.0371
791.7612	0.0302
791.9328	-0.0402
792.1044	0.0224
792.2759	-0.0566
792.4474	0.0404
792.619	-0.0326
792.7905	0.0586
792.9619	0.053
793.1334	0.0639
793.3048	0.0838
793.4762	0.0121
793.6476	-0.0341
793.819	-0.0238
793.9904	-0.0029
794.1617	0.014
794.333	0.0118
794.5043	0.0212
794.6756	0.0202
794.8469	-0.0035
795.0181	0.0207
795.1893	-0.0055
795.3605	0.0007
795.5317	0.0366
795.7029	0.0279
795.874	0.0163
796.0452	0.0496
796.2163	0.0849
796.3873	0.0439
796.5584	0.0642
796.7294	0.036
796.9005	0.0369
797.0715	0.0213
797.2425	0.0743
797.4134	0.0495
797.5844	0.0027
797.7553	-0.0599
797.9262	0.0589
798.0971	0.0033
798.2679	0.0726
798.4388	0.0403
798.6096	0.0169
798.7804	0.0492
798.9512	0.0642
799.122	0.0622
799.2927	0.0993
799.4635	-0.01
799.6342	0.0033
799.8049	0.0153
799.9755	-0.0645
800.1462	0.0284
800.3168	0.0608
800.4874	-0.027
800.658	0.0732
800.8286	0.0635
800.9991	0.0663
801.1696	-0.0374
801.3402	-0.0056
801.5106	-0.0455
801.6811	0.0075
801.8516	0.1497
802.022	0.0157
802.1924	-0.0562
802.3628	-0.0245
802.5332	0.0024
802.7035	0.078
802.8739	0.0884
803.0442	-0.018
803.2145	0.095
803.3847	0.0546
803.555	0.0861
803.7252	0.0222
803.8954	0.0003
804.0656	-0.0043
804.2358	0.0095
804.4059	0.0989
804.5761	0.0138
804.7462	-0.0409
804.9163	-0.0242
805.0864	0.002
805.2564	-0.0395
805.4264	-0.0175
805.5965	0.0907
805.7665	0.011
805.9364	0.0177
806.1064	0.0292
806.2763	0.125
806.4462	0.0095
806.6161	0.0425
806.786	0.0175
806.9559	0.011
807.1257	0.0209
807.2955	-0.0043
807.4653	0.0074
807.6351	0.0479
807.8048	0.0417
807.9746	0.0378
808.1443	-0.0091
808.314	0.0657
808.4837	0.042
808.6533	0.0018
808.8229	0.0259
808.9926	0.0537
809.1622	0.084
809.3317	0.0732
809.5013	-0.0194
809.6708	0.0242
809.8403	0.0134
810.0098	0.0184
810.1793	0.0109
810.3488	-0.0505
810.5182	0.0621
810.6876	0.0262
810.857	0.0776
811.0264	-0.054
811.1958	0.1057
811.3651	-0.0158
811.5344	0.0455
811.7037	0.0683
811.873	0.1905
812.0422	-0.0466
812.2115	0.0368
812.3807	-0.0186
812.5499	0.0799
812.7191	-0.0034
812.8882	0.0987
813.0574	0.0246
813.2265	-0.0156
813.3956	0.0328
813.5646	-0.0064
813.7337	-0.019
813.9027	0.015
814.0718	-0.0297
814.2407	0.0133
814.4097	0.0317
814.5787	0.1103
814.7476	0.0414
814.9165	0.022
815.0854	-0.0307
815.2543	-0.0312
815.4232	0.1476
815.592	0.1053
815.7608	0.0088
815.9296	0.0733
816.0984	0.2145
816.2671	-0.2621
816.4359	0.1093
816.6046	0.0387
816.7733	-0.0481
816.942	0.0309
817.1106	0.0566
817.2793	-0.0833
817.4479	0.0123
817.6165	0.0646
817.785	0.0506
817.9536	-0.0498
818.1221	0.0696
818.2906	-0.1215
818.4591	0.0915
818.6276	0.0361
818.7961	-0.0272
818.9645	0.0634
819.1329	0.0737
819.3013	0.0476
819.4697	-0.1053
819.638	0.2184
819.8064	0.125
819.9747	0.0311
820.143	-0.0445
820.3113	0.2153
820.4795	0.156
820.6477	0.125
820.816	0.0356
820.9842	0.1038
821.1523	0.0599
821.3205	0.1401
821.4886	-0.037
821.6567	0.0303
821.8248	0.1513
821.9929	-0.0937
822.1609	0.1064
822.329	-0.0254
822.497	0.0611
822.665	0.2346
822.833	0.0318
823.0009	0.1759
823.1688	0.1453
823.3367	-0.1925
823.5046	-0.0023
823.6725	-0.1265
823.8404	-0.07
824.0082	0.0185
824.176	-0.1095
824.3438	0.2621
824.5116	-0.073
824.6793	0.2372
824.847	-0.0162
825.0147	0.3278
825.1824	0.0997
825.3501	-0.0977
825.5177	0.0524
825.6854	-0.0729
825.853	0.0524
826.0206	-0.0902
826.1881	-0.0207
826.3557	0.0533
826.5232	0.2658
826.6907	-0.0043
826.8582	0.0506
827.0257	0.3272
827.1931	0.0992
827.3605	-0.007
827.528	0.0807
827.6953	-0.1447
827.8627	-0.0827
828.03	0.0452
828.1974	0.0735
828.3647	0.0772
828.532	0.0931
828.6992	0.1129
828.8665	0.1228
829.0337	0.0359
829.2009	0.0972
829.3681	-0.0361
829.5352	-0.0758
829.7024	0.2243
829.8695	0.0006
830.0366	0.2176
830.2037	0.1135
830.3707	0.1209
830.5378	0.0415
830.7048	0.0552
830.8718	0.2214
831.0388	0.2641
831.2057	1.266
831.3727	0.2301
831.5396	0.2246
831.7065	-0.8715
831.8734	0.2253
832.0402	0.2051
832.2071	-0
832.3739	-0.11
832.5407	-1.8513
832.7075	-0.1956
832.8742	0.299
833.041	0.8197
833.2077	0.4132
833.3744	0.292
833.541	0.169
833.7077	0.0137
833.8743	-0.1383
834.0409	0.1642
834.2075	0.1877
834.3741	-0.2496
834.5407	0.6418
834.7072	0.0254
834.8737	0.4094
835.0402	-0
835.2067	0.0215
835.3731	-0.0999
835.5395	0.0558
835.706	-0.1798
835.8723	0.2291
836.0387	0.1575
836.2051	0.7113
836.3714	0.9331
836.5377	1.3538
836.704	0.4832
836.8703	-0.0419
837.0365	-0.5078
837.2027	1.0033
837.3689	0.6224
837.5351	0.2234
837.7013	1.1057
837.8674	0.2458
838.0335	0.2371
838.1997	0.5175
838.3657	-0
838.5318	-0.5379
838.6978	-0
838.8639	-0.136
839.0299	-0.0505
839.1958	0.1947
839.3618	0.1435
839.5277	-0.0745
839.6937	-0.0286
839.8596	-0.2916
840.0254	0.343
840.1913	-0.078
840.3571	-0.1121
840.523	-1.7709
840.6888	-0.1399
840.8545	-0.53
841.0203	0.209
841.186	-0.0134
841.3517	-0.2206
841.5174	0.1079
841.6831	0.0144
841.8488	0.0014
842.0144	-0.0534
842.18	0.4834
842.3456	-0.3538
842.5112	-0
842.6767	0.3443
842.8422	-0.2606
843.0077	0.1862
843.1732	0.0726
843.3387	0.325
843.5042	-0.1547
843.6696	-0.0679
843.835	-0.1278
844.0004	-0.2652
844.1657	-0
844.3311	-0
844.4964	-0.2252
844.6617	0.7574
844.827	-0
844.9923	0.0106
845.1575	0.2952
845.3227	0.2766
845.4879	-0.1333
845.6531	0.1535
845.8183	0.2723
845.9834	-0.3467
846.1485	0.0934
846.3136	0.5573
846.4787	0.858
846.6438	0.203
846.8088	-0
846.9738	-0.209
847.1388	0.2613
847.3038	0.9193
847.4687	0.4016
847.6337	-0.6421
847.7986	0.2445
847.9635	-0.1582
848.1284	-0
848.2932	0.1836
848.458	-0
848.6228	-0
848.7876	-0
848.9524	-0.0259
849.1172	-1.9931
849.2819	-0
849.4466	0.3308
849.6113	0.2459
849.7759	-0
849.9406	-0.0082
850.1052	-1.3961
850.2698	-0
850.4344	-0.279
850.599	-0.1481
850.7635	0.2821
850.928	-0
851.0925	0.3095
851.257	1.8932
851.4215	-0
851.5859	-0.0323
851.7503	-0
851.9147	0.7806
852.0791	0.2354
852.2434	0.8056
852.4078	-0
852.5721	0.1282
852.7364	-0.1622
852.9007	-0.1645
853.0649	-0
853.2291	1.0231
853.3934	-0
853.5575	0.1531
853.7217	0.3285
853.8859	-0.3973
854.05	-0
854.2141	0.6163
854.3782	0.0028
854.5423	-0
854.7063	0.6943
854.8703	0.4721
855.0343	0.0281
855.1983	0.1537
855.3623	-0
855.5262	0.661
855.6901	0.2817
855.854	0.3428
856.0179	0.2818
856.1818	0.5215
856.3456	0.6085
856.5094	-0
856.6732	-0
856.837	-1.3469
857.0008	-0
857.1645	0.0509
857.3282	-0.4533
857.4919	0.2342
857.6556	-0.4024
857.8192	-0.0197
857.9828	0.4924
858.1465	0.0154
858.31	-0.1829
858.4736	-0.7193
858.6372	0.1751
858.8007	-0
858.9642	0.2408
859.1277	0.089
859.2911	-0.4139
859.4546	-0
859.618	0.3595
859.7814	-0.0253
859.9448	-0
860.1081	-0.092
860.2715	0.1461
860.4348	0.5522
860.5981	-0
860.7614	-0.2014
860.9246	-0.0696
861.0879	-0
861.2511	0.4455
861.4143	-0
861.5774	-0.205
861.7406	0.2766
861.9037	-0.7657
862.0668	-0
862.2299	-0
862.393	-0
862.556	-0
862.7191	-0
862.8821	0.5378
863.0451	-0
863.208	-0.411
863.371	0.0085
863.5339	0.3981
863.6968	-0
863.8597	-0
864.0225	-0.1836
864.1854	-0.1497
864.3482	-1.2638
864.511	0.1699
864.6737	-0.4588
864.8365	-0.0323
864.9992	-0
865.1619	-0.1381
865.3246	-2.039
865.4873	-0
865.65	0.9524
865.8126	-0
865.9752	-0.3119
866.1378	1.0758
866.3004	-0.1396
866.4629	-1.758
866.6254	-0
866.7879	-0.453
866.9504	-0
867.1129	0.19
867.2753	1.9777
867.4377	-0.2198
867.6001	-0.9111
867.7625	-0.0401
867.9249	-0
868.0872	0.3285
868.2495	0.4699
868.4118	-0
868.5741	-0
868.7363	-0.857
868.8986	-0.9646
869.0608	-0
869.223	-0.0259
869.3851	-0.6559
869.5473	0.1309
869.7094	0.0842
869.8715	-0
870.0336	-0.0045
870.1957	0.334
870.3577	2.1252
870.5197	0.3212
870.6817	-0.7987
870.8437	0.2027
871.0057	0.9413
871.1676	0.3743
871.3295	-0
871.4914	-1.5132
871.6533	-0.4112
871.8151	0.5193
871.977	0.2675
872.1388	0.2343
872.3006	-0.5174
872.4623	-0.7881
872.6241	0.2098
872.7858	0.1755
872.9475	-0.0169
873.1092	-0
873.2709	-0
873.4325	-0
873.5941	-0
873.7557	-0
873.9173	-0
874.0789	0.1106
874.2404	-0
874.4019	0.1682
874.5634	-0
874.7249	-0
874.8863	-0.4881
875.0478	0.325
875.2092	-0
875.3706	-0.1273
875.5319	-0.2235
875.6933	0.1547
875.8546	-0
876.0159	0.6951
876.1772	-0
876.3385	-0
876.4997	-0
876.6609	-0
876.8221	-0
876.9833	-0.2887
877.1445	0.7555
877.3056	-0
877.4667	-1.1704
877.6278	-0
877.7889	-0.2988
877.9499	0.4555
878.111	-0.4318
878.272	-0.2609
878.433	-0
878.5939	0.1497
878.7549	0.2343
878.9158	-0.2081
879.0767	0.0157
879.2376	-0.0278
879.3984	0.231
879.5593	1.685
879.7201	-1.7172
879.8809	-0
880.0417	-0.1728
880.2024	-0
880.3632	-0.3897
880.5239	-0
880.6846	0.4001
880.8452	-0.0149
881.0059	-0
881.1665	-0.1969
881.3271	0.6741
881.4877	-0.0637
881.6483	-0.8302
881.8088	-0
881.9693	-0
882.1298	-0
882.2903	-0
