Data from D4ACN5uM440nmA_Absorbance_13-50-24-937.txt Node
Date: Fri Feb 21 13:50:24 GMT 2025
User: LASERRRRR
Spectrometer: FLMT03099
Trigger mode: 0
Integration Time (sec): 1.500000E-2
Scans to average: 1
Electric dark correction enabled: true
Nonlinearity correction enabled: false
Boxcar width: 0
XAxis mode: Wavelengths
Number of Pixels in Spectrum: 3648
>>>>>Begin Spectral Data<<<<<
179.3399	-0
179.5586	-0
179.7771	-0
179.9957	-0.2729
180.2143	-0
180.4329	-0
180.6514	-0
180.8699	-0
181.0885	-0
181.307	-0.0283
181.5255	-0.1044
181.744	-0
181.9625	0.2164
182.181	-0
182.3994	-0.5917
182.6179	-0
182.8363	-0
183.0547	-0.2187
183.2732	0.001
183.4916	0.3072
183.71	0.2124
183.9284	-0.0226
184.1467	0.2416
184.3651	0.0368
184.5835	0.322
184.8018	-0.0028
185.0201	-0.0183
185.2385	0.5938
185.4568	0.2155
185.6751	0.1414
185.8934	0.0308
186.1117	-0.1947
186.3299	0.2073
186.5482	0.102
186.7664	0.3049
186.9847	-0.043
187.2029	0.1116
187.4211	0.0592
187.6393	0.1383
187.8575	0.3007
188.0757	0.5174
188.2939	0.2568
188.512	0.3187
188.7302	0.2677
188.9483	0.3775
189.1665	0.5453
189.3846	0.2495
189.6027	0.0675
189.8208	0.6353
190.0389	0.2536
190.257	0.1138
190.475	0.1307
190.6931	0.0079
190.9111	0.1213
191.1292	0.0434
191.3472	0.1008
191.5652	0.2077
191.7832	0.2936
192.0012	0.0868
192.2192	0.2442
192.4371	0.205
192.6551	0.2378
192.873	0.1463
193.091	0.1092
193.3089	0.1918
193.5268	0.3412
193.7447	0.2423
193.9626	0.2686
194.1805	0.2882
194.3984	0.2499
194.6162	0.1654
194.8341	0.3487
195.0519	0.2766
195.2697	0.2826
195.4875	0.3771
195.7054	0.2733
195.9231	0.2641
196.1409	0.3191
196.3587	0.283
196.5765	0.419
196.7942	0.3101
197.012	0.3282
197.2297	0.3544
197.4474	0.4111
197.6651	0.299
197.8828	0.4012
198.1005	0.4083
198.3182	0.4019
198.5358	0.3395
198.7535	0.3449
198.9711	0.4015
199.1888	0.3392
199.4064	0.4516
199.624	0.3857
199.8416	0.3987
200.0592	0.3909
200.2767	0.4271
200.4943	0.4334
200.7119	0.4029
200.9294	0.4099
201.1469	0.4168
201.3645	0.4821
201.582	0.3837
201.7995	0.4377
202.017	0.4526
202.2344	0.409
202.4519	0.4456
202.6694	0.3728
202.8868	0.378
203.1042	0.41
203.3217	0.3783
203.5391	0.3923
203.7565	0.3542
203.9739	0.3495
204.1913	0.3486
204.4086	0.3723
204.626	0.365
204.8433	0.3712
205.0607	0.3425
205.278	0.3602
205.4953	0.3449
205.7126	0.3212
205.9299	0.3104
206.1472	0.3195
206.3644	0.3311
206.5817	0.3055
206.7989	0.324
207.0162	0.3219
207.2334	0.3225
207.4506	0.3124
207.6678	0.3337
207.885	0.3027
208.1022	0.3346
208.3194	0.2817
208.5365	0.314
208.7537	0.2963
208.9708	0.298
209.1879	0.3083
209.405	0.2781
209.6222	0.2728
209.8392	0.2972
210.0563	0.2948
210.2734	0.2745
210.4905	0.2823
210.7075	0.2603
210.9245	0.2505
211.1416	0.2653
211.3586	0.2788
211.5756	0.2447
211.7926	0.2644
212.0096	0.2695
212.2265	0.2586
212.4435	0.2656
212.6604	0.2566
212.8774	0.2369
213.0943	0.2578
213.3112	0.255
213.5281	0.2613
213.745	0.2539
213.9619	0.2319
214.1788	0.2531
214.3956	0.2419
214.6125	0.2594
214.8293	0.2596
215.0461	0.2595
215.2629	0.2372
215.4798	0.2343
215.6965	0.2431
215.9133	0.2386
216.1301	0.2528
216.3469	0.2558
216.5636	0.2433
216.7803	0.2336
216.9971	0.2625
217.2138	0.261
217.4305	0.2722
217.6472	0.2479
217.8639	0.2559
218.0805	0.2624
218.2972	0.251
218.5138	0.2624
218.7305	0.2483
218.9471	0.2454
219.1637	0.2689
219.3803	0.2621
219.5969	0.2576
219.8135	0.26
220.0301	0.2718
220.2466	0.2592
220.4632	0.2617
220.6797	0.2681
220.8962	0.2633
221.1127	0.25
221.3292	0.2617
221.5457	0.2652
221.7622	0.2683
221.9787	0.2915
222.1951	0.2712
222.4116	0.2674
222.628	0.2939
222.8444	0.2674
223.0608	0.2738
223.2772	0.284
223.4936	0.2843
223.71	0.285
223.9264	0.2937
224.1427	0.2961
224.3591	0.281
224.5754	0.3041
224.7917	0.2989
225.008	0.2969
225.2243	0.2935
225.4406	0.2947
225.6569	0.3082
225.8732	0.3095
226.0894	0.3114
226.3057	0.3202
226.5219	0.3166
226.7381	0.3156
226.9543	0.3154
227.1705	0.3122
227.3867	0.3236
227.6029	0.3243
227.8191	0.3256
228.0352	0.3418
228.2513	0.3493
228.4675	0.3355
228.6836	0.3436
228.8997	0.3467
229.1158	0.3607
229.3319	0.3611
229.548	0.3537
229.764	0.3575
229.9801	0.3623
230.1961	0.3629
230.4121	0.3621
230.6282	0.3811
230.8442	0.3871
231.0602	0.3926
231.2761	0.383
231.4921	0.3851
231.7081	0.3857
231.924	0.4027
232.14	0.4026
232.3559	0.4081
232.5718	0.4099
232.7877	0.4094
233.0036	0.4105
233.2195	0.4113
233.4353	0.4102
233.6512	0.4184
233.867	0.4152
234.0829	0.4215
234.2987	0.4232
234.5145	0.4305
234.7303	0.4286
234.9461	0.4356
235.1619	0.4291
235.3776	0.4459
235.5934	0.4277
235.8091	0.446
236.0249	0.4447
236.2406	0.4293
236.4563	0.444
236.672	0.4409
236.8877	0.4482
237.1034	0.455
237.319	0.442
237.5347	0.4455
237.7503	0.4503
237.966	0.4604
238.1816	0.458
238.3972	0.4544
238.6128	0.4654
238.8284	0.4608
239.0439	0.456
239.2595	0.4716
239.475	0.4669
239.6906	0.4592
239.9061	0.4605
240.1216	0.4651
240.3371	0.4492
240.5526	0.4622
240.7681	0.4613
240.9836	0.4615
241.199	0.4441
241.4145	0.4506
241.6299	0.4511
241.8453	0.4419
242.0607	0.4279
242.2761	0.4313
242.4915	0.4248
242.7069	0.4136
242.9223	0.422
243.1376	0.4102
243.353	0.3987
243.5683	0.3902
243.7836	0.3894
243.9989	0.3772
244.2142	0.3765
244.4295	0.3621
244.6448	0.3646
244.86	0.3538
245.0753	0.3421
245.2905	0.3434
245.5057	0.3382
245.721	0.336
245.9362	0.3265
246.1514	0.3169
246.3665	0.3085
246.5817	0.297
246.7969	0.2949
247.012	0.295
247.2271	0.2852
247.4423	0.2823
247.6574	0.277
247.8725	0.2706
248.0876	0.2726
248.3026	0.2661
248.5177	0.2549
248.7328	0.2483
248.9478	0.2558
249.1628	0.2487
249.3779	0.2391
249.5929	0.2372
249.8079	0.2331
250.0228	0.2343
250.2378	0.2317
250.4528	0.2267
250.6677	0.2242
250.8827	0.212
251.0976	0.2179
251.3125	0.2166
251.5274	0.209
251.7423	0.208
251.9572	0.2066
252.172	0.2082
252.3869	0.2103
252.6017	0.1972
252.8166	0.2025
253.0314	0.1948
253.2462	0.1931
253.461	0.1995
253.6758	0.2003
253.8906	0.196
254.1053	0.1943
254.3201	0.1941
254.5348	0.1896
254.7496	0.1862
254.9643	0.1898
255.179	0.1862
255.3937	0.1848
255.6083	0.1928
255.823	0.1875
256.0377	0.1812
256.2523	0.1852
256.467	0.1858
256.6816	0.1786
256.8962	0.1858
257.1108	0.184
257.3254	0.1786
257.54	0.1765
257.7545	0.1808
257.9691	0.1808
258.1836	0.1747
258.3981	0.1781
258.6127	0.1723
258.8272	0.1823
259.0417	0.1766
259.2561	0.1752
259.4706	0.1729
259.6851	0.1743
259.8995	0.1782
260.114	0.1812
260.3284	0.1698
260.5428	0.1757
260.7572	0.1743
260.9716	0.1841
261.186	0.173
261.4003	0.1733
261.6147	0.1764
261.829	0.1784
262.0433	0.1775
262.2577	0.1746
262.472	0.1755
262.6863	0.1812
262.9005	0.1734
263.1148	0.1752
263.3291	0.1747
263.5433	0.1756
263.7576	0.1802
263.9718	0.1761
264.186	0.1832
264.4002	0.1795
264.6144	0.1849
264.8286	0.1809
265.0427	0.1804
265.2569	0.1814
265.471	0.1787
265.6851	0.1809
265.8993	0.1765
266.1134	0.1791
266.3275	0.1778
266.5415	0.184
266.7556	0.1813
266.9697	0.1823
267.1837	0.1828
267.3978	0.181
267.6118	0.1779
267.8258	0.1807
268.0398	0.1822
268.2538	0.181
268.4677	0.1766
268.6817	0.1764
268.8957	0.1738
269.1096	0.1724
269.3235	0.1717
269.5374	0.178
269.7514	0.1747
269.9652	0.1742
270.1791	0.1684
270.393	0.1708
270.6068	0.1698
270.8207	0.1669
271.0345	0.1731
271.2483	0.1697
271.4622	0.1695
271.676	0.1731
271.8897	0.1686
272.1035	0.1739
272.3173	0.1677
272.531	0.1729
272.7448	0.1716
272.9585	0.1674
273.1722	0.1676
273.3859	0.1694
273.5996	0.1725
273.8133	0.169
274.0269	0.1735
274.2406	0.1712
274.4542	0.1676
274.6679	0.1676
274.8815	0.1774
275.0951	0.1785
275.3087	0.1776
275.5223	0.1782
275.7358	0.1787
275.9494	0.1783
276.1629	0.1724
276.3765	0.1743
276.59	0.1687
276.8035	0.1767
277.017	0.1775
277.2305	0.1753
277.444	0.1714
277.6574	0.18
277.8709	0.181
278.0843	0.1824
278.2978	0.1776
278.5112	0.1789
278.7246	0.1746
278.938	0.1787
279.1513	0.1808
279.3647	0.1697
279.5781	0.1735
279.7914	0.1783
280.0047	0.178
280.2181	0.1804
280.4314	0.172
280.6447	0.1813
280.8579	0.1786
281.0712	0.1814
281.2845	0.182
281.4977	0.1771
281.711	0.1809
281.9242	0.1798
282.1374	0.1815
282.3506	0.1781
282.5638	0.18
282.7769	0.1747
282.9901	0.1783
283.2033	0.1795
283.4164	0.181
283.6295	0.1776
283.8426	0.1765
284.0557	0.1862
284.2688	0.181
284.4819	0.178
284.695	0.184
284.908	0.1822
285.1211	0.1854
285.3341	0.1785
285.5471	0.1883
285.7601	0.1897
285.9731	0.1838
286.1861	0.1885
286.3991	0.1901
286.612	0.1877
286.825	0.1848
287.0379	0.1891
287.2508	0.1891
287.4637	0.1862
287.6766	0.1881
287.8895	0.1825
288.1024	0.1954
288.3152	0.1902
288.5281	0.1914
288.7409	0.189
288.9538	0.1933
289.1666	0.1889
289.3794	0.19
289.5922	0.1878
289.8049	0.1883
290.0177	0.1905
290.2304	0.1918
290.4432	0.1916
290.6559	0.1923
290.8686	0.1924
291.0813	0.1936
291.294	0.1922
291.5067	0.1884
291.7194	0.1909
291.932	0.1911
292.1447	0.1971
292.3573	0.1979
292.5699	0.1946
292.7825	0.1849
292.9951	0.1916
293.2077	0.1864
293.4203	0.1915
293.6328	0.1884
293.8454	0.1896
294.0579	0.1897
294.2704	0.1976
294.4829	0.195
294.6954	0.1876
294.9079	0.193
295.1204	0.19
295.3328	0.2001
295.5453	0.1904
295.7577	0.1891
295.9701	0.1955
296.1825	0.1943
296.3949	0.1927
296.6073	0.1856
296.8197	0.1941
297.0321	0.193
297.2444	0.1922
297.4567	0.188
297.6691	0.1893
297.8814	0.1963
298.0937	0.1929
298.306	0.1874
298.5182	0.1974
298.7305	0.1932
298.9428	0.1902
299.155	0.1886
299.3672	0.1888
299.5794	0.1906
299.7916	0.1943
300.0038	0.1949
300.216	0.1953
300.4282	0.1925
300.6403	0.2009
300.8525	0.1879
301.0646	0.1919
301.2767	0.2026
301.4888	0.1923
301.7009	0.1925
301.913	0.1973
302.125	0.191
302.3371	0.1958
302.5491	0.196
302.7612	0.2
302.9732	0.1938
303.1852	0.191
303.3972	0.1932
303.6092	0.188
303.8211	0.1915
304.0331	0.194
304.245	0.1899
304.457	0.1854
304.6689	0.1915
304.8808	0.1856
305.0927	0.1896
305.3046	0.1877
305.5164	0.1841
305.7283	0.1872
305.9401	0.1752
306.152	0.18
306.3638	0.1795
306.5756	0.1825
306.7874	0.1772
306.9992	0.1721
307.2109	0.1742
307.4227	0.1713
307.6344	0.1739
307.8462	0.1778
308.0579	0.1726
308.2696	0.1671
308.4813	0.1627
308.693	0.1626
308.9046	0.1638
309.1163	0.1613
309.328	0.1613
309.5396	0.1505
309.7512	0.1536
309.9628	0.1554
310.1744	0.1495
310.386	0.1427
310.5976	0.1497
310.8091	0.1505
311.0207	0.1496
311.2322	0.1466
311.4437	0.1426
311.6552	0.1414
311.8667	0.1451
312.0782	0.1383
312.2897	0.1443
312.5012	0.1417
312.7126	0.1336
312.924	0.1389
313.1355	0.1355
313.3469	0.1338
313.5583	0.1351
313.7696	0.1323
313.981	0.1362
314.1924	0.1294
314.4037	0.1292
314.6151	0.126
314.8264	0.1345
315.0377	0.129
315.249	0.1284
315.4603	0.121
315.6716	0.1312
315.8828	0.1266
316.0941	0.1311
316.3053	0.1243
316.5165	0.1294
316.7277	0.1248
316.9389	0.1278
317.1501	0.1291
317.3613	0.1192
317.5724	0.1234
317.7836	0.1186
317.9947	0.124
318.2058	0.1236
318.417	0.1182
318.6281	0.1212
318.8391	0.1237
319.0502	0.1231
319.2613	0.1209
319.4723	0.1223
319.6834	0.1261
319.8944	0.1252
320.1054	0.1234
320.3164	0.1168
320.5274	0.1226
320.7383	0.1219
320.9493	0.1248
321.1602	0.1238
321.3712	0.1188
321.5821	0.1238
321.793	0.1298
322.0039	0.1209
322.2148	0.1248
322.4257	0.123
322.6365	0.1158
322.8474	0.1275
323.0582	0.127
323.269	0.1291
323.4798	0.1214
323.6906	0.1241
323.9014	0.1207
324.1122	0.1223
324.3229	0.1282
324.5337	0.1213
324.7444	0.1265
324.9551	0.1275
325.1658	0.126
325.3765	0.1279
325.5872	0.1255
325.7979	0.1248
326.0085	0.1238
326.2192	0.1267
326.4298	0.1295
326.6404	0.1316
326.851	0.1236
327.0616	0.1293
327.2722	0.1338
327.4828	0.1254
327.6933	0.1331
327.9039	0.1237
328.1144	0.1298
328.3249	0.1294
328.5354	0.1287
328.7459	0.1298
328.9564	0.129
329.1669	0.1337
329.3773	0.1319
329.5878	0.1304
329.7982	0.1324
330.0086	0.1315
330.219	0.1317
330.4294	0.1362
330.6398	0.1342
330.8502	0.1325
331.0605	0.1292
331.2708	0.1287
331.4812	0.1277
331.6915	0.1312
331.9018	0.1343
332.1121	0.132
332.3224	0.1323
332.5326	0.127
332.7429	0.1295
332.9531	0.1397
333.1633	0.1344
333.3735	0.1352
333.5837	0.1339
333.7939	0.1344
334.0041	0.1343
334.2143	0.1326
334.4244	0.1388
334.6346	0.1313
334.8447	0.1354
335.0548	0.1425
335.2649	0.1393
335.475	0.1383
335.685	0.1344
335.8951	0.1339
336.1051	0.1396
336.3152	0.1377
336.5252	0.134
336.7352	0.1343
336.9452	0.1315
337.1552	0.1385
337.3652	0.1398
337.5751	0.1353
337.7851	0.1364
337.995	0.1429
338.2049	0.1389
338.4148	0.1412
338.6247	0.1441
338.8346	0.1393
339.0445	0.1387
339.2543	0.1397
339.4642	0.1367
339.674	0.1407
339.8838	0.1397
340.0936	0.1445
340.3034	0.144
340.5132	0.1411
340.7229	0.1429
340.9327	0.1532
341.1424	0.145
341.3522	0.1407
341.5619	0.1536
341.7716	0.1525
341.9813	0.1447
342.1909	0.153
342.4006	0.1459
342.6102	0.1466
342.8199	0.1504
343.0295	0.1447
343.2391	0.1498
343.4487	0.1529
343.6583	0.158
343.8679	0.1527
344.0774	0.1482
344.287	0.1534
344.4965	0.1506
344.706	0.1533
344.9155	0.1506
345.125	0.1559
345.3345	0.1632
345.544	0.1529
345.7534	0.1577
345.9629	0.1637
346.1723	0.1529
346.3817	0.1585
346.5911	0.1596
346.8005	0.1667
347.0099	0.1631
347.2193	0.1715
347.4286	0.1698
347.638	0.1702
347.8473	0.1644
348.0566	0.1614
348.2659	0.1652
348.4752	0.1635
348.6845	0.1621
348.8937	0.161
349.103	0.165
349.3122	0.1708
349.5214	0.1672
349.7306	0.1771
349.9398	0.1716
350.149	0.17
350.3582	0.1678
350.5674	0.1734
350.7765	0.1712
350.9856	0.1687
351.1948	0.1784
351.4039	0.1791
351.613	0.1774
351.822	0.1848
352.0311	0.1756
352.2402	0.1827
352.4492	0.1789
352.6582	0.1805
352.8672	0.1773
353.0762	0.1804
353.2852	0.1779
353.4942	0.1857
353.7032	0.1836
353.9121	0.1866
354.1211	0.1833
354.33	0.1842
354.5389	0.1826
354.7478	0.1826
354.9567	0.1908
355.1655	0.1812
355.3744	0.1839
355.5833	0.1892
355.7921	0.1874
356.0009	0.1836
356.2097	0.181
356.4185	0.1902
356.6273	0.1904
356.8361	0.1913
357.0448	0.1858
357.2536	0.1931
357.4623	0.1857
357.671	0.1926
357.8797	0.1901
358.0884	0.1882
358.2971	0.1953
358.5057	0.1975
358.7144	0.1925
358.923	0.2018
359.1316	0.2047
359.3402	0.1957
359.5488	0.1948
359.7574	0.2018
359.966	0.2041
360.1746	0.2005
360.3831	0.2021
360.5916	0.2055
360.8002	0.2108
361.0087	0.2058
361.2172	0.2074
361.4256	0.2097
361.6341	0.2122
361.8426	0.2101
362.051	0.2114
362.2594	0.2084
362.4678	0.2147
362.6762	0.2125
362.8846	0.2176
363.093	0.219
363.3014	0.2203
363.5097	0.2212
363.718	0.214
363.9264	0.2253
364.1347	0.2212
364.343	0.2225
364.5513	0.2193
364.7595	0.2314
364.9678	0.2164
365.176	0.2297
365.3842	0.2349
365.5925	0.2255
365.8007	0.2314
366.0089	0.2358
366.217	0.2261
366.4252	0.2381
366.6333	0.2284
366.8415	0.2415
367.0496	0.2311
367.2577	0.2323
367.4658	0.2292
367.6739	0.238
367.882	0.2447
368.09	0.2362
368.2981	0.254
368.5061	0.2447
368.7141	0.2415
368.9221	0.2472
369.1301	0.2431
369.3381	0.2494
369.5461	0.2515
369.754	0.2473
369.962	0.2436
370.1699	0.26
370.3778	0.2557
370.5857	0.2552
370.7936	0.2543
371.0015	0.2545
371.2093	0.2534
371.4172	0.253
371.625	0.257
371.8328	0.2557
372.0406	0.2591
372.2484	0.2625
372.4562	0.2561
372.664	0.2582
372.8717	0.2662
373.0795	0.2725
373.2872	0.2658
373.4949	0.2626
373.7026	0.2625
373.9103	0.2555
374.118	0.2713
374.3256	0.2678
374.5333	0.265
374.7409	0.2651
374.9485	0.2697
375.1561	0.276
375.3637	0.2684
375.5713	0.2778
375.7789	0.2671
375.9864	0.2674
376.194	0.2805
376.4015	0.2703
376.609	0.2781
376.8165	0.2797
377.024	0.2795
377.2315	0.2733
377.4389	0.2791
377.6464	0.2822
377.8538	0.276
378.0612	0.2845
378.2686	0.2764
378.476	0.2868
378.6834	0.2847
378.8908	0.2886
379.0981	0.2965
379.3055	0.2945
379.5128	0.2796
379.7201	0.2887
379.9274	0.2818
380.1347	0.2861
380.342	0.2964
380.5492	0.2912
380.7565	0.2926
380.9637	0.2987
381.1709	0.2976
381.3781	0.2909
381.5853	0.2904
381.7925	0.2955
381.9997	0.2983
382.2068	0.2947
382.4139	0.2938
382.6211	0.3039
382.8282	0.3007
383.0353	0.3051
383.2424	0.2982
383.4494	0.2874
383.6565	0.3108
383.8635	0.2992
384.0706	0.3121
384.2776	0.3002
384.4846	0.3053
384.6916	0.3098
384.8986	0.3016
385.1055	0.3111
385.3125	0.304
385.5194	0.3047
385.7263	0.3009
385.9333	0.3001
386.1402	0.3047
386.347	0.3096
386.5539	0.3026
386.7608	0.305
386.9676	0.3042
387.1744	0.2992
387.3813	0.3014
387.5881	0.2915
387.7948	0.309
388.0016	0.3082
388.2084	0.3075
388.4151	0.2978
388.6219	0.3011
388.8286	0.2913
389.0353	0.3061
389.242	0.298
389.4487	0.3023
389.6553	0.2825
389.862	0.2933
390.0686	0.3053
390.2753	0.2934
390.4819	0.2904
390.6885	0.3003
390.8951	0.3044
391.1016	0.2895
391.3082	0.294
391.5147	0.2834
391.7213	0.2866
391.9278	0.2879
392.1343	0.2961
392.3408	0.2886
392.5473	0.2807
392.7537	0.2829
392.9602	0.2796
393.1666	0.2825
393.373	0.2799
393.5794	0.2786
393.7858	0.2812
393.9922	0.2697
394.1986	0.2692
394.4049	0.2759
394.6113	0.2843
394.8176	0.2709
395.0239	0.2762
395.2302	0.2777
395.4365	0.2848
395.6428	0.273
395.8491	0.2722
396.0553	0.2691
396.2615	0.2682
396.4678	0.273
396.674	0.2644
396.8802	0.2697
397.0863	0.2708
397.2925	0.2611
397.4987	0.2582
397.7048	0.2679
397.9109	0.2542
398.117	0.2563
398.3231	0.2535
398.5292	0.2539
398.7353	0.2567
398.9413	0.2631
399.1474	0.2692
399.3534	0.26
399.5594	0.2621
399.7654	0.2616
399.9714	0.2675
400.1774	0.2523
400.3833	0.2746
400.5893	0.2623
400.7952	0.2685
401.0011	0.2575
401.207	0.2676
401.4129	0.2629
401.6188	0.2603
401.8247	0.2612
402.0305	0.2552
402.2364	0.2578
402.4422	0.2521
402.648	0.2456
402.8538	0.2559
403.0596	0.2535
403.2654	0.2594
403.4711	0.2563
403.6768	0.2549
403.8826	0.2658
404.0883	0.2599
404.294	0.2626
404.4997	0.2613
404.7054	0.2587
404.911	0.2521
405.1167	0.2517
405.3223	0.2546
405.5279	0.2505
405.7335	0.2585
405.9391	0.2501
406.1447	0.2544
406.3502	0.256
406.5558	0.2483
406.7613	0.2539
406.9668	0.2635
407.1724	0.2501
407.3778	0.2585
407.5833	0.2478
407.7888	0.2566
407.9942	0.258
408.1997	0.2649
408.4051	0.2545
408.6105	0.2676
408.8159	0.2652
409.0213	0.2585
409.2267	0.256
409.432	0.2498
409.6374	0.2567
409.8427	0.2538
410.048	0.2582
410.2533	0.2556
410.4586	0.2507
410.6639	0.2534
410.8691	0.2486
411.0744	0.2637
411.2796	0.2514
411.4848	0.2568
411.69	0.2494
411.8952	0.2503
412.1004	0.2609
412.3056	0.2482
412.5107	0.2515
412.7158	0.2623
412.921	0.2592
413.1261	0.2508
413.3312	0.2586
413.5362	0.258
413.7413	0.2598
413.9464	0.2498
414.1514	0.2503
414.3564	0.253
414.5614	0.2467
414.7664	0.2443
414.9714	0.2499
415.1764	0.2604
415.3813	0.2532
415.5863	0.2556
415.7912	0.2525
415.9961	0.2512
416.201	0.259
416.4059	0.2548
416.6108	0.2585
416.8156	0.2512
417.0205	0.2543
417.2253	0.2407
417.4301	0.2494
417.6349	0.2506
417.8397	0.2426
418.0445	0.252
418.2492	0.2456
418.454	0.2389
418.6587	0.2513
418.8634	0.249
419.0681	0.2609
419.2728	0.2617
419.4775	0.265
419.6822	0.2508
419.8868	0.2325
420.0915	0.2507
420.2961	0.2257
420.5007	0.2378
420.7053	0.2382
420.9099	0.2385
421.1144	0.2429
421.319	0.2352
421.5235	0.2282
421.728	0.2448
421.9325	0.2378
422.137	0.2395
422.3415	0.233
422.546	0.2264
422.7504	0.2294
422.9549	0.2393
423.1593	0.2326
423.3637	0.232
423.5681	0.2316
423.7725	0.2236
423.9769	0.2331
424.1812	0.2153
424.3856	0.2151
424.5899	0.2263
424.7942	0.2275
424.9985	0.2236
425.2028	0.2237
425.4071	0.2357
425.6113	0.2225
425.8156	0.2183
426.0198	0.2132
426.224	0.2147
426.4282	0.2083
426.6324	0.2044
426.8366	0.2049
427.0407	0.2071
427.2449	0.2054
427.449	0.211
427.6531	0.217
427.8572	0.207
428.0613	0.2085
428.2654	0.2133
428.4694	0.1898
428.6735	0.2005
428.8775	0.1953
429.0815	0.2047
429.2855	0.1979
429.4895	0.1955
429.6935	0.1927
429.8975	0.1876
430.1014	0.1952
430.3053	0.1908
430.5093	0.1899
430.7132	0.1877
430.9171	0.1798
431.1209	0.192
431.3248	0.1764
431.5286	0.1784
431.7325	0.1937
431.9363	0.1727
432.1401	0.1755
432.3439	0.1796
432.5477	0.162
432.7514	0.1686
432.9552	0.1683
433.1589	0.1632
433.3627	0.1662
433.5664	0.1677
433.7701	0.1611
433.9737	0.1668
434.1774	0.1567
434.3811	0.1532
434.5847	0.1549
434.7883	0.1576
434.9919	0.1501
435.1955	0.1558
435.3991	0.1557
435.6027	0.1441
435.8062	0.154
436.0098	0.1475
436.2133	0.133
436.4168	0.1463
436.6203	0.1348
436.8238	0.1368
437.0272	0.1418
437.2307	0.1381
437.4341	0.1344
437.6375	0.1453
437.841	0.114
438.0443	0.1287
438.2477	0.1172
438.4511	0.1265
438.6545	0.1313
438.8578	0.1263
439.0611	0.1229
439.2644	0.1199
439.4677	0.1215
439.671	0.1134
439.8743	0.115
440.0775	0.1152
440.2808	0.1196
440.484	0.1129
440.6872	0.1085
440.8904	0.0986
441.0936	0.1041
441.2967	0.0989
441.4999	0.1023
441.703	0.0993
441.9062	0.1032
442.1093	0.11
442.3124	0.0987
442.5155	0.1019
442.7185	0.0882
442.9216	0.0878
443.1246	0.0968
443.3276	0.0854
443.5307	0.0842
443.7337	0.0877
443.9366	0.0789
444.1396	0.0742
444.3426	0.0785
444.5455	0.0828
444.7484	0.0806
444.9513	0.0793
445.1542	0.0771
445.3571	0.0796
445.56	0.0717
445.7628	0.0776
445.9657	0.0747
446.1685	0.0775
446.3713	0.0755
446.5741	0.0757
446.7769	0.0739
446.9797	0.0661
447.1824	0.0689
447.3852	0.0527
447.5879	0.058
447.7906	0.052
447.9933	0.0631
448.196	0.0518
448.3986	0.0594
448.6013	0.0555
448.8039	0.0571
449.0066	0.069
449.2092	0.0557
449.4118	0.0509
449.6143	0.0574
449.8169	0.05
450.0195	0.0472
450.222	0.0496
450.4245	0.0503
450.627	0.0547
450.8295	0.0477
451.032	0.0421
451.2345	0.0418
451.4369	0.039
451.6394	0.0383
451.8418	0.0383
452.0442	0.0466
452.2466	0.0344
452.449	0.0469
452.6513	0.0427
452.8537	0.0267
453.056	0.03
453.2583	0.036
453.4607	0.0279
453.663	0.0377
453.8652	0.0352
454.0675	0.0311
454.2697	0.0261
454.472	0.0193
454.6742	0.0349
454.8764	0.0339
455.0786	0.0331
455.2808	0.0313
455.4829	0.0375
455.6851	0.0242
455.8872	0.0207
456.0893	0.0316
456.2915	0.0207
456.4935	0.0394
456.6956	0.0186
456.8977	0.0253
457.0997	0.0404
457.3018	0.0194
457.5038	0.0246
457.7058	0.0303
457.9078	0.0354
458.1098	0.0267
458.3117	0.0261
458.5137	0.0115
458.7156	0.0225
458.9175	0.0221
459.1194	0.0219
459.3213	0.0151
459.5232	0.0219
459.725	0.0233
459.9269	0.0193
460.1287	0.0102
460.3305	0.0255
460.5323	0.0205
460.7341	0.0206
460.9359	0.0173
461.1376	0.0153
461.3394	0.018
461.5411	0.018
461.7428	0.0183
461.9445	0.0131
462.1462	0.0153
462.3479	0.0114
462.5495	0.0155
462.7512	0.0224
462.9528	0.0152
463.1544	0.0147
463.356	0.0034
463.5576	0.0215
463.7592	0.0152
463.9607	0.0196
464.1623	0.0142
464.3638	0.0075
464.5653	0.0218
464.7668	0.0231
464.9683	0.0141
465.1697	0.0163
465.3712	0.0079
465.5726	0.0143
465.7741	0.0188
465.9755	0.0094
466.1769	0.0072
466.3782	0.0104
466.5796	0.0213
466.7809	0.0149
466.9823	0.0111
467.1836	0.0091
467.3849	0.0123
467.5862	0.0055
467.7875	0.0106
467.9887	0.0126
468.19	0.0099
468.3912	0.0187
468.5924	-0.0005
468.7936	0.0169
468.9948	0.0018
469.196	0.0146
469.3972	0.0119
469.5983	0.011
469.7994	0.0054
470.0006	0.0122
470.2017	0.0158
470.4027	0.0126
470.6038	0.0094
470.8049	0.0077
471.0059	0.0185
471.2069	0.0199
471.408	0.0164
471.6089	0.0087
471.8099	0.0075
472.0109	0.0089
472.2119	0.0054
472.4128	0.0088
472.6137	0.0039
472.8146	0.0074
473.0155	0.0211
473.2164	0.008
473.4173	-0.0041
473.6181	0.0044
473.819	0.0082
474.0198	0.0073
474.2206	-0.001
474.4214	0.0076
474.6222	0.0008
474.8229	0.0032
475.0237	0.0128
475.2244	0.0155
475.4251	0.0071
475.6258	0.0015
475.8265	0.0127
476.0272	-0.004
476.2278	0.0061
476.4285	0.0057
476.6291	0.0055
476.8297	0.0115
477.0303	-0.0005
477.2309	0.0093
477.4315	0.0089
477.632	0.0051
477.8326	0.0068
478.0331	0.0155
478.2336	0.0058
478.4341	0.0044
478.6346	0.007
478.8351	0.0074
479.0355	0.0156
479.236	0.0154
479.4364	0.002
479.6368	0.0066
479.8372	0.0087
480.0376	0.0109
480.2379	0.013
480.4383	0.0096
480.6386	0.0035
480.8389	0.0035
481.0392	0.006
481.2395	0.0124
481.4398	0.0071
481.6401	0.0138
481.8403	0.0051
482.0405	0.0068
482.2408	0.0063
482.441	0.0087
482.6411	0.0054
482.8413	0.0042
483.0415	0.0089
483.2416	0.0134
483.4417	0.0042
483.6419	-0.0045
483.8419	0.0186
484.042	0.0095
484.2421	-0.0017
484.4422	0.0074
484.6422	0.0101
484.8422	0.0125
485.0422	0.0105
485.2422	0.0031
485.4422	0.0045
485.6422	0.0026
485.8421	0.0023
486.042	0.0118
486.242	0.0045
486.4419	0.0041
486.6417	0.0014
486.8416	0.0096
487.0415	0.0028
487.2413	-0.004
487.4411	0.0036
487.641	0.0004
487.8408	0.0065
488.0405	0.0099
488.2403	0.0067
488.4401	0.0076
488.6398	0.0055
488.8395	0.0068
489.0392	0.0069
489.2389	0.0149
489.4386	-0.002
489.6383	0.0079
489.8379	0.0012
490.0376	0.0023
490.2372	-0.0058
490.4368	-0.0003
490.6364	-0.0025
490.836	0.0044
491.0355	0.0024
491.2351	0.0054
491.4346	0.0083
491.6341	0.0006
491.8336	0.0053
492.0331	0.0005
492.2326	0.0068
492.432	0.002
492.6315	0.0085
492.8309	0.0109
493.0303	0.0063
493.2297	0.0054
493.4291	0.0062
493.6284	0.0138
493.8278	-0.002
494.0271	0.0114
494.2264	0.0023
494.4257	0.0153
494.625	0.0079
494.8243	-0.0017
495.0236	0.0132
495.2228	0.0058
495.422	0.0054
495.6213	0.0104
495.8205	0.0095
496.0196	0.0049
496.2188	0.0011
496.418	0.0065
496.6171	0.0018
496.8162	0.005
497.0153	0.0076
497.2144	0.0005
497.4135	0.0033
497.6126	-0.0004
497.8116	0.0006
498.0107	0.0049
498.2097	0.0096
498.4087	0.0024
498.6077	0.0017
498.8067	0.0107
499.0056	0.0035
499.2046	0.0065
499.4035	0.0077
499.6024	-0.005
499.8013	0.0071
500.0002	0.0111
500.199	0.0112
500.3979	0.0058
500.5967	0.0009
500.7956	0.0087
500.9944	0.01
501.1932	0.0062
501.3919	0.0075
501.5907	0.0134
501.7895	-0.0029
501.9882	0.0026
502.1869	0.0126
502.3856	0.0058
502.5843	0.0063
502.783	0.0094
502.9816	0.0095
503.1803	0.0005
503.3789	0.0111
503.5775	0.0072
503.7761	0.0066
503.9747	0.0175
504.1732	-0.001
504.3718	0.0159
504.5703	0.01
504.7689	0.0001
504.9674	0.006
505.1658	-0.0007
505.3643	0.0073
505.5628	0.0157
505.7612	0.0106
505.9597	0.0007
506.1581	0.005
506.3565	0.0049
506.5549	0.0049
506.7532	0.0003
506.9516	0.0051
507.1499	0.0055
507.3482	0.0066
507.5465	0.0058
507.7448	0.0038
507.9431	0.0062
508.1414	-0.0003
508.3396	0.0076
508.5379	0.0076
508.7361	0.0105
508.9343	0.0162
509.1325	0.0147
509.3306	0.0048
509.5288	0.0007
509.7269	0.0069
509.9251	0.0051
510.1232	0.0063
510.3213	0.0035
510.5193	-0.001
510.7174	-0.0007
510.9154	0.0149
511.1135	0.0087
511.3115	-0.0001
511.5095	0.0119
511.7075	-0.0008
511.9055	0.0051
512.1034	0.0046
512.3014	0.0007
512.4993	0.0063
512.6972	0.0031
512.8951	0.0119
513.093	0.0008
513.2908	0.0131
513.4887	0.0084
513.6865	0.0057
513.8844	0.0128
514.0822	0.0105
514.2799	-0.0014
514.4777	0.0077
514.6755	0.0048
514.8732	0.0037
515.0709	0.0096
515.2687	0.0062
515.4664	0.0181
515.664	0.0094
515.8617	0.0077
516.0594	-0.0009
516.257	0.0074
516.4546	0.0144
516.6522	0.0069
516.8498	0.0052
517.0474	0.004
517.2449	0.0054
517.4425	0.0017
517.64	0.0072
517.8375	0.0141
518.035	0.0006
518.2325	0.0021
518.43	0.0025
518.6274	0.0132
518.8249	-0.0007
519.0223	0.0133
519.2197	0.0045
519.4171	0.0011
519.6145	0.0069
519.8118	-0.009
520.0092	-0.0024
520.2065	0.0069
520.4038	0.0031
520.6011	-0.0008
520.7984	0.0106
520.9956	0.0081
521.1929	0.0107
521.3901	0.0127
521.5874	0.0142
521.7846	-0.0099
521.9818	0.0047
522.1789	0.0069
522.3761	0.0244
522.5732	0.0075
522.7704	-0.0092
522.9675	-0.001
523.1646	0.0006
523.3617	0.0146
523.5587	-0.0034
523.7558	0.0021
523.9528	0.0016
524.1498	0.0013
524.3468	0.0006
524.5438	0.0065
524.7408	-0.0016
524.9378	0.0051
525.1347	0.0144
525.3316	0.0093
525.5285	0.0074
525.7254	0.0132
525.9223	0.0175
526.1192	0.0051
526.316	0.0104
526.5129	0.0167
526.7097	-0.007
526.9065	0.0122
527.1033	0.014
527.3	0.0014
527.4968	0.0231
527.6935	-0.0069
527.8903	0.0038
528.087	0.008
528.2837	0.0102
528.4804	0.0066
528.677	0.0057
528.8737	0.0079
529.0703	0.0052
529.2669	0.0145
529.4635	0.0034
529.6601	-0.0004
529.8567	0.0042
530.0532	-0.0006
530.2498	-0.0012
530.4463	-0.0024
530.6428	0.0028
530.8393	0.0146
531.0358	0.0079
531.2322	0.0003
531.4287	0.0106
531.6251	-0.0012
531.8215	-0.0006
532.0179	0.0053
532.2143	0.006
532.4107	0.0021
532.607	0.0033
532.8034	-0.0001
532.9997	-0.0012
533.196	-0.006
533.3923	0.0088
533.5886	0.0037
533.7848	0.0085
533.9811	0.0076
534.1773	0.0078
534.3735	0.005
534.5697	0.0006
534.7659	0.0156
534.9621	0.0094
535.1582	0.0004
535.3544	0.0078
535.5505	0.007
535.7466	0.0147
535.9427	0.0109
536.1387	-0.0007
536.3348	0.0109
536.5308	0.0066
536.7269	0.003
536.9229	-0.0008
537.1189	0.0163
537.3148	0.0056
537.5108	0.0111
537.7068	0.0096
537.9027	-0.0055
538.0986	0.0162
538.2945	-0.0008
538.4904	0
538.6863	0.0039
538.8821	0.0064
539.078	0.0116
539.2738	0.0074
539.4696	-0.0003
539.6654	0.0025
539.8611	0.0096
540.0569	0.0013
540.2526	0.006
540.4484	0.0039
540.6441	0.0101
540.8398	0.008
541.0355	-0.002
541.2311	0.0064
541.4268	0.0081
541.6224	0.0157
541.818	0.0104
542.0136	0.0032
542.2092	0.0041
542.4048	0.0021
542.6003	0.008
542.7959	0.0093
542.9914	0.0037
543.1869	0.0001
543.3824	0.0045
543.5779	0.0044
543.7734	0.0109
543.9688	0.0049
544.1642	0.0004
544.3596	0.0103
544.555	0.002
544.7504	0.0111
544.9458	0.009
545.1411	-0.003
545.3365	0.0047
545.5318	-0.0002
545.7271	0.0081
545.9224	-0.0004
546.1177	0.0122
546.3129	0.0063
546.5081	0.0106
546.7034	0.0019
546.8986	-0.0034
547.0938	0.0024
547.289	0.0087
547.4841	0.0121
547.6793	0.0038
547.8744	0.014
548.0695	0.004
548.2646	0.0097
548.4597	0.0027
548.6548	0.0152
548.8498	0.0083
549.0448	0.0047
549.2399	0.0098
549.4349	-0.0041
549.6298	-0.0006
549.8248	-0.005
550.0198	0.0202
550.2147	0.0061
550.4096	-0.0023
550.6045	0.006
550.7994	0.0121
550.9943	0.0062
551.1892	-0.0048
551.384	0.0176
551.5788	0.0077
551.7737	0.009
551.9685	-0.0015
552.1632	0.0014
552.358	0.0082
552.5528	0.0056
552.7475	0.0033
552.9422	0.0004
553.1369	0.0152
553.3316	0.0094
553.5263	0.0085
553.7209	0.0057
553.9156	0.0072
554.1102	-0.0007
554.3048	0.0015
554.4994	0.0073
554.694	0.0113
554.8885	0.0046
555.0831	0.0026
555.2776	0.0105
555.4721	0.0084
555.6666	0.0029
555.8611	0.0088
556.0555	0.0062
556.25	0.0135
556.4444	0
556.6388	0.0019
556.8332	0.0042
557.0276	0.0068
557.222	-0.0019
557.4163	0.0061
557.6107	0.0129
557.805	-0.0033
557.9993	0.0019
558.1936	-0.0023
558.3879	0.0113
558.5821	-0.0068
558.7764	-0.0013
558.9706	0.0009
559.1648	0.0111
559.359	-0.0037
559.5532	0.0043
559.7473	-0.0019
559.9415	0.0024
560.1356	0.0176
560.3297	-0.0003
560.5238	0.006
560.7179	0.0038
560.9119	-0.0031
561.106	-0.0016
561.3	0.013
561.494	-0.0016
561.688	0.0001
561.882	0.0036
562.076	0.0034
562.2699	0.007
562.4639	0.0159
562.6578	0.012
562.8517	0.008
563.0456	0.0013
563.2395	0.012
563.4333	0.0091
563.6272	-0.0003
563.821	0.0101
564.0148	0.0056
564.2086	0.0082
564.4024	0.0085
564.5961	0.0068
564.7899	0.0131
564.9836	0.0071
565.1773	0.0094
565.371	0.0058
565.5647	0.0047
565.7584	0.014
565.952	0.0033
566.1456	-0.0035
566.3393	-0.0003
566.5329	0.0056
566.7264	0.0102
566.92	0.0003
567.1136	-0.0022
567.3071	-0.0088
567.5006	0.0117
567.6941	0.0109
567.8876	0.0002
568.0811	0.0193
568.2745	-0.0016
568.468	0.0025
568.6614	0.0086
568.8548	0.0056
569.0482	0.0062
569.2416	0.0066
569.4349	0.0045
569.6283	0.0019
569.8216	0.0127
570.0149	0
570.2082	0.0094
570.4015	0.0036
570.5947	0.0043
570.788	0.0042
570.9812	0.0018
571.1744	0.0057
571.3676	0.0034
571.5608	0.0051
571.754	0.0094
571.9471	0.0112
572.1402	0.0034
572.3333	0.0089
572.5264	0.0064
572.7195	0.0004
572.9126	0.0029
573.1057	0.0054
573.2987	0.0036
573.4917	0.0004
573.6847	-0.0008
573.8777	0.0067
574.0707	0.0091
574.2636	0.0048
574.4566	0.0041
574.6495	0.006
574.8424	0.0068
575.0353	0.0056
575.2281	0.0066
575.421	0.0009
575.6138	0.0008
575.8067	0.0032
575.9995	0.0037
576.1923	0.0043
576.385	0.0066
576.5778	0.006
576.7706	0.0018
576.9633	0.0065
577.156	-0.0005
577.3487	0.0057
577.5414	0.0025
577.734	0.0032
577.9267	0.006
578.1193	0.0096
578.3119	0.0029
578.5045	0.0023
578.6971	0.0011
578.8897	-0.001
579.0822	0.0081
579.2747	0.0011
579.4673	0.0053
579.6598	0.0047
579.8522	0.0045
580.0447	0.0065
580.2372	0.0076
580.4296	0.01
580.622	0.0048
580.8144	0.0053
581.0068	0.0042
581.1992	0.007
581.3915	0.0001
581.5839	0.0029
581.7762	0.0032
581.9685	0.005
582.1608	0.0027
582.353	0.0057
582.5453	0.003
582.7375	0.0069
582.9298	0.0059
583.122	0.0032
583.3142	0.0101
583.5063	0.0041
583.6985	0.0024
583.8906	0.0023
584.0827	0.0089
584.2749	0.002
584.4669	0.0074
584.659	0.0054
584.8511	0.0098
585.0431	0.0085
585.2352	0.0031
585.4272	0.003
585.6192	0.0085
585.8111	0.0045
586.0031	0.0036
586.195	0.0044
586.387	0.0039
586.5789	0.0067
586.7708	0.0074
586.9627	0.0017
587.1545	0.0027
587.3464	0.0073
587.5382	0.0046
587.73	0.0112
587.9218	0.0063
588.1136	-0.0005
588.3053	0.0069
588.4971	0.0032
588.6888	0.0032
588.8805	0.0044
589.0722	0.0081
589.2639	0.0078
589.4556	0.0066
589.6472	0.0078
589.8389	0.0058
590.0305	0.0011
590.2221	0.0098
590.4137	0.0046
590.6052	0.0048
590.7968	0.0065
590.9883	0.0025
591.1798	0.0048
591.3713	0.0137
591.5628	0.0027
591.7543	0.0069
591.9458	0.0092
592.1372	0.0041
592.3286	0.0043
592.52	0.005
592.7114	0.0025
592.9028	0.0091
593.0941	0.0045
593.2855	-0.0005
593.4768	0.0064
593.6681	0.0048
593.8594	0.011
594.0506	0.0059
594.2419	0.0022
594.4331	0.0068
594.6244	-0.0051
594.8156	0.0029
595.0067	-0.0004
595.1979	0.0012
595.3891	0.0051
595.5802	0.0073
595.7713	0.0067
595.9624	0.0102
596.1535	0.0067
596.3446	0.0016
596.5357	0.0087
596.7267	0.0023
596.9177	0.0016
597.1087	-0.0053
597.2997	0.0073
597.4907	0.0006
597.6817	0.0079
597.8726	0.0078
598.0635	0.0048
598.2544	0.0059
598.4453	0.0052
598.6362	0.0065
598.827	0.0039
599.0179	0.0061
599.2087	0.0107
599.3995	0.0077
599.5903	0.0088
599.7811	0.0115
599.9718	0.0021
600.1626	0.0018
600.3533	0.0006
600.544	0.0049
600.7347	0.0089
600.9254	0.0088
601.116	0.0013
601.3067	0.0022
601.4973	0.0113
601.6879	0.0083
601.8785	0.0056
602.0691	0.0023
602.2596	0.0041
602.4502	0.0065
602.6407	0.0057
602.8312	0.0045
603.0217	0.0022
603.2122	0.0021
603.4027	0.0029
603.5931	0.0045
603.7835	0.0116
603.9739	0.0021
604.1643	0.0091
604.3547	0.0065
604.5451	0.0092
604.7354	-0.0005
604.9257	0.0016
605.116	-0.0006
605.3063	0.005
605.4966	0.0023
605.6869	0.011
605.8771	0.0083
606.0673	0.0036
606.2575	0.0052
606.4477	0.0093
606.6379	0.0055
606.8281	0.0069
607.0182	0.0045
607.2083	0.0098
607.3985	0.0054
607.5885	-0.0001
607.7786	0.0019
607.9687	0.0048
608.1587	0.0043
608.3488	0.0029
608.5388	-0.0037
608.7288	-0.0038
608.9187	0.0039
609.1087	0.0069
609.2986	0.015
609.4886	0.0013
609.6785	0.0052
609.8684	0.0024
610.0582	-0.0001
610.2481	-0.001
610.4379	0.0088
610.6278	0.0027
610.8176	0.0089
611.0074	-0.0009
611.1971	0.0038
611.3869	0.0079
611.5766	-0.0035
611.7664	0.0031
611.9561	0.0118
612.1458	0.0058
612.3354	0.0082
612.5251	0.0095
612.7147	0.0118
612.9044	-0.0016
613.094	0.0074
613.2836	0.0057
613.4731	0.0044
613.6627	0.0044
613.8522	0.0041
614.0417	0.0069
614.2313	0.0026
614.4207	0.0064
614.6102	0.0132
614.7997	0.0122
614.9891	0.009
615.1785	0.0006
615.3679	0.0003
615.5573	0.0082
615.7467	-0.0014
615.9361	0.0085
616.1254	0.0086
616.3147	-0.002
616.504	0.0078
616.6933	0.0076
616.8826	0.0023
617.0718	0.0092
617.2611	0.0051
617.4503	0.0092
617.6395	0.0071
617.8287	-0.0027
618.0179	0.0052
618.207	0.0014
618.3961	0.0078
618.5853	0.0078
618.7744	0.0114
618.9634	0.0138
619.1525	0.0089
619.3416	0.0028
619.5306	0.0091
619.7196	0.0078
619.9086	0.0042
620.0976	0
620.2866	0.0109
620.4755	0.0055
620.6645	0.0032
620.8534	0.0093
621.0423	0.002
621.2312	0.0046
621.42	0.008
621.6089	0.0021
621.7977	0.0086
621.9865	0.0073
622.1753	0.0057
622.3641	-0.0024
622.5529	0.0024
622.7416	0.0013
622.9303	0.002
623.1191	0.0101
623.3078	0.0009
623.4964	0.0126
623.6851	0.0147
623.8737	-0.0001
624.0624	-0.0065
624.251	0.0095
624.4396	0.0075
624.6282	0.0094
624.8167	0.0023
625.0053	0.0099
625.1938	0.0084
625.3823	0.0053
625.5708	-0.0123
625.7593	0
625.9477	0.0178
626.1362	-0.0049
626.3246	0.0072
626.513	0.0019
626.7014	0.0103
626.8898	0.0135
627.0781	0.0018
627.2665	0.0129
627.4548	-0.0045
627.6431	0.0028
627.8314	0.021
628.0197	0.0189
628.2079	0.0087
628.3962	0.0052
628.5844	0.0075
628.7726	0.0019
628.9608	0.0003
629.1489	0.0098
629.3371	-0.0013
629.5252	0.0129
629.7134	0.004
629.9015	0.0163
630.0895	-0.0055
630.2776	0.0164
630.4657	0.0062
630.6537	0.0157
630.8417	-0.0047
631.0297	0.0033
631.2177	-0.0001
631.4057	0.0072
631.5936	0.0014
631.7815	0.0077
631.9695	0.0063
632.1574	0.0278
632.3452	0.01
632.5331	0.0133
632.7209	0.0034
632.9088	-0.0047
633.0966	0.0135
633.2844	0.0105
633.4722	0.0113
633.6599	0.0234
633.8477	0.0126
634.0354	0.0138
634.2231	-0.0008
634.4108	-0.0045
634.5985	0.013
634.7861	-0.0031
634.9738	0.0026
635.1614	0.0015
635.349	-0.003
635.5366	0.018
635.7242	0.007
635.9117	0.0112
636.0993	0.0007
636.2868	-0.0025
636.4743	0.0112
636.6618	-0.0181
636.8492	0.0213
637.0367	-0.0175
637.2241	0.0108
637.4115	0.0253
637.5989	-0.0088
637.7863	0.015
637.9737	0.0086
638.161	0.0061
638.3484	-0.0157
638.5357	-0.0076
638.723	0.0159
638.9103	-0.0095
639.0975	0.0161
639.2848	0.0072
639.472	0.0122
639.6592	-0.0024
639.8464	-0.0045
640.0336	-0.0003
640.2208	-0.0003
640.4079	0.0006
640.595	-0.002
640.7821	0.0103
640.9692	-0.0148
641.1563	0.008
641.3434	0.0005
641.5304	0.0118
641.7174	0.0071
641.9044	0.0088
642.0914	0.0247
642.2784	-0.0049
642.4653	-0.0101
642.6523	0.0245
642.8392	0.0086
643.0261	0.0204
643.213	0.0056
643.3999	-0.0023
643.5867	0.0071
643.7735	0.0096
643.9604	0.0028
644.1472	-0.0033
644.3339	-0.0029
644.5207	-0.0016
644.7075	0.0146
644.8942	-0.006
645.0809	0.001
645.2676	-0.0146
645.4543	-0.0137
645.6409	0.0274
645.8276	0.0242
646.0142	0.0126
646.2008	0.0109
646.3874	-0.0084
646.574	0.0196
646.7605	0.0135
646.9471	0.0031
647.1336	-0.0084
647.3201	0.0155
647.5066	0.0092
647.6931	-0.0062
647.8795	-0.0026
648.0659	-0.003
648.2524	0.0117
648.4388	0.0087
648.6252	0.0172
648.8115	-0.0068
648.9979	0.017
649.1842	0.0002
649.3705	0.0189
649.5568	-0.0056
649.7431	-0.0131
649.9294	-0.0009
650.1156	0.0059
650.3018	0.0131
650.488	0.0035
650.6742	0.0047
650.8604	0.0035
651.0466	-0.0086
651.2327	0.016
651.4188	0.0089
651.6049	0.0175
651.791	-0.0054
651.9771	0.0067
652.1632	0.0225
652.3492	0.004
652.5352	0.0039
652.7212	-0.0035
652.9072	-0.0012
653.0932	0.0085
653.2791	-0.004
653.465	0.0081
653.651	-0.0002
653.8369	-0.0059
654.0227	-0.0019
654.2086	0.0065
654.3944	0.0069
654.5803	-0.0019
654.7661	-0.0011
654.9519	-0.0012
655.1377	0.0001
655.3234	0.0001
655.5092	0.0001
655.6949	0.0001
655.8806	0.0001
656.0663	0.0001
656.2519	0.0001
656.4376	0.0001
656.6232	0.0001
656.8088	0.0001
656.9945	0.0001
657.18	0.0001
657.3656	0.0001
657.5511	0.0001
657.7367	0.0001
657.9222	0.0001
658.1077	0.0001
658.2932	0.0001
658.4786	0.0001
658.6641	0.0001
658.8495	0.0001
659.0349	0.0001
659.2203	0.0001
659.4057	0.0001
659.591	0.1571
659.7764	0.0419
659.9617	0.0092
660.147	0.0123
660.3323	0.0076
660.5176	0.0064
660.7028	-0.0042
660.888	0.0069
661.0733	0.004
661.2585	-0.0036
661.4436	0.0174
661.6288	0.0073
661.8139	-0.0086
661.9991	-0.0123
662.1842	-0.0012
662.3693	-0.0091
662.5544	0.0056
662.7394	0.015
662.9245	0.0078
663.1095	-0.0117
663.2945	-0.0064
663.4795	-0.0053
663.6644	-0.0005
663.8494	0.033
664.0343	0.0086
664.2193	-0.0083
664.4042	0.0094
664.589	0.0127
664.7739	0.0137
664.9587	-0.0078
665.1436	-0.0004
665.3284	0.0036
665.5132	-0.0106
665.698	0.0193
665.8827	0.019
666.0675	0.0023
666.2522	0.0359
666.4369	0.0221
666.6216	-0.0119
666.8063	0.0107
666.9909	0.0162
667.1756	-0.0029
667.3602	-0.01
667.5448	0.0106
667.7294	0.0001
667.9139	-0.0139
668.0985	0.0142
668.283	0.0049
668.4675	0.0323
668.652	0.0171
668.8365	0.0024
669.0209	-0.0114
669.2054	0.01
669.3898	0.0036
669.5742	0.0307
669.7586	0.0101
669.943	0.0149
670.1273	0.0224
670.3117	0.0207
670.496	0.0184
670.6803	0.0075
670.8646	-0.0145
671.0488	0.0138
671.2331	-0.0109
671.4173	0.0038
671.6015	0.011
671.7857	0.0096
671.9699	0.0116
672.1541	-0.0039
672.3382	-0.0003
672.5223	0.0029
672.7064	-0.0002
672.8905	0.0018
673.0746	0.0139
673.2587	0.0225
673.4427	-0.0058
673.6267	0.0143
673.8107	0.0182
673.9947	0.0055
674.1787	0.0028
674.3626	0.0164
674.5465	0.0143
674.7304	0.0133
674.9143	-0.0063
675.0982	0.0148
675.2821	0.0024
675.4659	0.0171
675.6497	-0.0017
675.8335	0.0073
676.0173	-0.0005
676.2011	0.0367
676.3849	0.0113
676.5686	0.0176
676.7523	0.0121
676.936	-0.0043
677.1197	-0.0002
677.3034	0.0235
677.487	0.0092
677.6706	0.0032
677.8542	0.0062
678.0378	0.0123
678.2214	0.0087
678.405	-0.0079
678.5885	0.0102
678.772	-0.0066
678.9555	0.007
679.139	0.0104
679.3225	0.0069
679.5059	-0.0079
679.6894	0.0002
679.8728	-0.0072
680.0562	0.0139
680.2395	0.0048
680.4229	0.0048
680.6062	0.0116
680.7896	-0.0053
680.9729	0.0209
681.1562	0.0085
681.3394	0.0051
681.5227	-0.0018
681.7059	0.0008
681.8891	0.0079
682.0723	0.0024
682.2555	-0.0058
682.4387	-0.0057
682.6218	0.0149
682.805	0.0047
682.9881	0.0198
683.1712	0.0062
683.3542	0.0091
683.5373	0.0212
683.7203	0.0059
683.9034	-0.007
684.0864	-0.002
684.2694	-0.0161
684.4523	0.0201
684.6353	0.0021
684.8182	0.0011
685.0011	0.0061
685.184	-0.0028
685.3669	0.0211
685.5498	-0.0144
685.7326	0.0002
685.9154	-0.0084
686.0982	0.0187
686.281	0.0001
686.4638	0.0066
686.6465	0.0113
686.8293	-0.0064
687.012	0.0128
687.1947	-0.0037
687.3774	0.002
687.56	-0.0112
687.7427	-0.0077
687.9253	-0.0408
688.1079	0.0178
688.2905	0.0016
688.4731	0.0185
688.6556	0.0037
688.8382	-0.0098
689.0207	0.0297
689.2032	0.0141
689.3857	-0.0057
689.5681	-0.0116
689.7506	0.0426
689.933	0.0066
690.1154	0.0252
690.2978	0.0203
690.4802	0.002
690.6626	0.0005
690.8449	0.023
691.0272	-0.0096
691.2095	-0.0129
691.3918	-0.0038
691.5741	0.0238
691.7563	0.0047
691.9386	0.0213
692.1208	0.0105
692.303	0.0064
692.4852	0.0121
692.6673	0.0148
692.8495	-0.0086
693.0316	-0.0073
693.2137	0.0189
693.3958	0.0036
693.5778	-0.006
693.7599	0.0148
693.9419	-0.0051
694.1239	0.0222
694.3059	0.0147
694.4879	0.0112
694.6699	0.0058
694.8518	0.0098
695.0337	0.0232
695.2157	0.0276
695.3975	-0.0028
695.5794	0.0016
695.7613	0.0033
695.9431	-0.0161
696.1249	0.0183
696.3067	0.0051
696.4885	0.0278
696.6703	0.0025
696.852	-0.0028
697.0337	0.0125
697.2154	0.0251
697.3971	0.0037
697.5788	0.0174
697.7605	-0.0069
697.9421	0.0217
698.1237	0.0172
698.3053	-0.0168
698.4869	0.0027
698.6685	-0.0079
698.85	0.0231
699.0315	-0.0236
699.213	0.0259
699.3945	0.0093
699.576	0.0227
699.7575	0.0082
699.9389	0.0204
700.1203	0.0143
700.3017	0.0036
700.4831	0.0016
700.6645	0.0348
700.8458	-0.0093
701.0271	0.0225
701.2084	0.0188
701.3897	0.0107
701.571	-0.0188
701.7523	0.0148
701.9335	0.013
702.1147	0.042
702.2959	-0.015
702.4771	0.0146
702.6583	0.0345
702.8394	-0.021
703.0205	0.0259
703.2016	-0.0031
703.3827	-0.0068
703.5638	0.0112
703.7449	0.0203
703.9259	0.02
704.1069	-0.0199
704.2879	0.0173
704.4689	-0.0012
704.6499	0.0303
704.8308	-0.0131
705.0117	-0.0104
705.1927	0.0172
705.3735	0.0279
705.5544	0.027
705.7353	-0.0003
705.9161	-0.0354
706.0969	0.0103
706.2777	0.0118
706.4585	-0.0002
706.6393	0.0136
706.82	0.0245
707.0007	-0.0137
707.1815	-0.0021
707.3621	0.0303
707.5428	0.0192
707.7235	-0.0051
707.9041	-0.003
708.0847	-0.0023
708.2653	0.0265
708.4459	-0.0044
708.6265	0.0144
708.807	0.0368
708.9875	0.0233
709.168	-0.0006
709.3485	0.0301
709.529	-0.01
709.7095	-0.021
709.8899	0.0103
710.0703	0.0214
710.2507	-0.0027
710.4311	-0.0052
710.6115	0.012
710.7918	0.0278
710.9721	-0.0166
711.1524	0.0005
711.3327	0.008
711.513	0.0061
711.6932	0.0091
711.8735	0.0238
712.0537	0.0042
712.2339	0.005
712.4141	0.0243
712.5942	-0.0032
712.7744	0.0064
712.9545	0.0233
713.1346	0.0291
713.3147	0.0141
713.4947	0.0037
713.6748	-0.0007
713.8548	0.0168
714.0348	0.0103
714.2148	0.0177
714.3948	0.012
714.5748	0.0163
714.7547	0.0029
714.9346	0.0162
715.1145	0.0071
715.2944	-0.0109
715.4743	0.007
715.6541	-0.0059
715.834	0.0279
716.0138	-0.0023
716.1936	0.027
716.3733	0.0006
716.5531	0.0039
716.7328	-0.0065
716.9126	0.0031
717.0923	-0.0235
717.2719	0.0047
717.4516	0.0057
717.6312	-0.012
717.8109	0.0113
717.9905	0.0103
718.1701	-0.0075
718.3496	-0.005
718.5292	-0.0003
718.7087	-0.0003
718.8882	0.0337
719.0677	-0.005
719.2472	-0.0152
719.4267	0.0095
719.6061	-0.0261
719.7856	0.0195
719.965	-0.0003
720.1443	-0.0134
720.3237	-0.0073
720.5031	0.0204
720.6824	0.0062
720.8617	0.008
721.041	0.0314
721.2203	-0.0122
721.3995	0.0016
721.5788	-0.0108
721.758	0.0072
721.9372	-0.0019
722.1164	-0.0042
722.2956	0.0108
722.4747	0.0045
722.6538	-0.0008
722.8329	0.0014
723.012	-0.0079
723.1911	0.0209
723.3702	0.037
723.5492	0.0031
723.7282	-0.008
723.9072	0.0449
724.0862	0.0037
724.2652	0.0253
724.4441	-0.0163
724.623	0.0196
724.8019	0.0087
724.9808	0.0118
725.1597	0.0025
725.3385	0.0177
725.5174	0.023
725.6962	0.0182
725.875	0.0166
726.0538	0.012
726.2325	0.0349
726.4112	-0.0214
726.59	0.0047
726.7687	-0.0244
726.9474	0.0046
727.126	0.0132
727.3047	-0.0199
727.4833	-0.0212
727.6619	-0.0373
727.8405	0.0236
728.0191	0.0448
728.1976	-0.0125
728.3762	0.0077
728.5547	-0.0089
728.7332	0.0202
728.9116	0.0121
729.0901	0.0194
729.2686	-0.0015
729.447	0.0013
729.6254	0.0138
729.8038	0.0181
729.9821	-0.0196
730.1605	0.011
730.3388	0.0027
730.5171	0.0045
730.6954	-0.0054
730.8737	0.0112
731.0519	0.0067
731.2302	0.0303
731.4084	-0.0106
731.5866	0.0062
731.7648	-0.0161
731.9429	0.0242
732.1211	-0.0038
732.2992	0.0094
732.4773	-0.0005
732.6554	-0.0108
732.8335	0.0256
733.0115	0.0019
733.1896	0.0033
733.3676	0.0156
733.5456	0.0128
733.7235	0.0056
733.9015	0.0142
734.0794	-0.0135
734.2574	-0.0103
734.4353	-0.0083
734.6131	-0.0166
734.791	0.0012
734.9689	-0.0033
735.1467	-0.009
735.3245	0.0263
735.5023	0.0069
735.68	0.0056
735.8578	0.0335
736.0355	0.0103
736.2132	-0.0002
736.3909	0.0068
736.5686	-0.0021
736.7463	-0.0049
736.9239	0.0284
737.1015	0.0081
737.2791	0.0246
737.4567	0.0318
737.6343	0.0217
737.8118	0.009
737.9894	-0.0024
738.1669	-0.0042
738.3444	0.0505
738.5218	-0.0234
738.6993	0.0025
738.8767	-0.0034
739.0541	0.0086
739.2315	-0.0112
739.4089	0.0157
739.5863	0.0259
739.7636	-0.0192
739.9409	0.0056
740.1182	0.0028
740.2955	0.0228
740.4728	-0.0008
740.65	-0.0059
740.8272	0.0306
741.0044	0.0049
741.1816	0.0166
741.3588	-0.0396
741.5359	0.0227
741.7131	-0.0025
741.8902	0.0279
742.0673	-0.0201
742.2444	0.0346
742.4214	0.0009
742.5985	-0.0053
742.7755	-0.0168
742.9525	-0.0274
743.1295	-0.0379
743.3064	0.0085
743.4834	0.0178
743.6603	0.0398
743.8372	-0.0386
744.0141	0.0328
744.191	-0.0036
744.3678	-0.0138
744.5446	0.0157
744.7215	-0.0261
744.8982	0.0311
745.075	0.0465
745.2518	0.0079
745.4285	0.0325
745.6052	-0.075
745.7819	0.0067
745.9586	0.0214
746.1353	-0.0004
746.3119	0.0006
746.4885	0.033
746.6651	0.0208
746.8417	0.0125
747.0183	0.0488
747.1948	-0.0072
747.3714	0.0183
747.5479	0.0245
747.7244	-0.0362
747.9008	-0.0048
748.0773	0.0286
748.2537	0.0176
748.4301	0.0241
748.6065	0.0042
748.7829	-0.0041
748.9593	0.007
749.1356	-0.0013
749.3119	0.015
749.4882	0.0184
749.6645	-0.0109
749.8408	0.0076
750.017	0.0068
750.1933	-0.011
750.3695	0.0076
750.5457	-0.0019
750.7218	-0.0149
750.898	-0.0062
751.0741	0.0098
751.2502	0.0186
751.4263	0.0158
751.6024	0.0233
751.7784	-0.0307
751.9545	-0.0047
752.1305	-0.014
752.3065	0.0075
752.4825	-0.0074
752.6584	0.0164
752.8344	-0.0079
753.0103	-0.0268
753.1862	0.0208
753.3621	0.0164
753.5379	0.0045
753.7138	0.0227
753.8896	-0.0072
754.0654	-0.0255
754.2412	0.0221
754.417	-0.0118
754.5927	0.0052
754.7685	-0.0075
754.9442	0.02
755.1199	0.0127
755.2956	-0.0011
755.4712	0.0121
755.6469	-0.0005
755.8225	0.0154
755.9981	0.0178
756.1736	-0.0004
756.3492	-0.0062
756.5248	0.0136
756.7003	0.0034
756.8758	-0.0067
757.0513	0.0023
757.2267	0.0057
757.4022	-0.0159
757.5776	0.0031
757.753	0.0283
757.9284	0.0052
758.1038	0.0101
758.2791	0.0037
758.4545	-0.0227
758.6298	0.0114
758.8051	0.0174
758.9803	0.0001
759.1556	-0.0072
759.3308	-0.0035
759.506	0.011
759.6812	-0.0072
759.8564	0.006
760.0316	-0.004
760.2067	0.0213
760.3819	0.0072
760.557	-0.0039
760.732	-0.0022
760.9071	0.0306
761.0821	-0.001
761.2572	-0.0038
761.4322	0.017
761.6072	-0.0016
761.7821	-0.0228
761.9571	0.0139
762.132	-0.0093
762.3069	0.0146
762.4818	0.0074
762.6567	0.0161
762.8316	0.0067
763.0064	0.0102
763.1812	0.0202
763.356	0.0004
763.5308	0.0204
763.7055	-0.0146
763.8803	0.0071
764.055	0.0047
764.2297	-0.0163
764.4044	0.0003
764.579	-0.004
764.7537	-0.0067
764.9283	0.021
765.1029	-0.001
765.2775	0.0187
765.4521	0.0072
765.6266	0.001
765.8011	0.0035
765.9756	-0.0021
766.1501	-0.0209
766.3246	-0.0128
766.4991	0.0197
766.6735	0.0247
766.8479	-0.0119
767.0223	-0.0112
767.1967	0.0198
767.371	0.0022
767.5454	0.002
767.7197	0.0085
767.894	0.005
768.0683	0.0077
768.2425	-0.0158
768.4168	0.0219
768.591	0.0136
768.7652	-0.0074
768.9394	-0.0152
769.1135	-0.0072
769.2877	0.006
769.4618	0.0514
769.6359	0.0085
769.81	0.0055
769.984	0.01
770.1581	-0.0018
770.3321	0.0307
770.5061	-0.0035
770.6801	-0.0065
770.8541	0.0095
771.028	0.021
771.202	0.0363
771.3759	0.0268
771.5498	-0.0024
771.7236	-0.0052
771.8975	0.0269
772.0713	0.0314
772.2451	-0.0318
772.4189	-0.0231
772.5927	-0.0691
772.7665	0.0113
772.9402	0.0356
773.1139	0.0406
773.2876	0.0153
773.4613	-0.0093
773.635	0.0509
773.8086	0.0433
773.9822	0.045
774.1558	0.0651
774.3294	0.0168
774.503	0.015
774.6765	0.0133
774.8501	-0.0139
775.0236	0.0579
775.1971	0.0286
775.3705	0.0401
775.544	-0.023
775.7174	-0.0127
775.8908	-0.0101
776.0642	0.0136
776.2376	0.0667
776.4109	0.0177
776.5843	0.0091
776.7576	0.007
776.9309	0.0497
777.1041	0.0083
777.2774	0.012
777.4506	-0.0304
777.6238	-0.017
777.797	-0.0439
777.9702	-0.0228
778.1434	0.0172
778.3165	0.0026
778.4896	-0.0118
778.6627	0.0289
778.8358	-0.0102
779.0089	-0.0328
779.1819	0.0088
779.3549	0.0143
779.5279	-0.0396
779.7009	0.0311
779.8739	0.0357
780.0468	-0.0364
780.2197	-0.0078
780.3926	-0.0434
780.5655	-0.0056
780.7384	-0.016
780.9112	0.0227
781.0841	0.0161
781.2569	0.0382
781.4297	0.0259
781.6024	0.0019
781.7752	0.0548
781.9479	0.0164
782.1206	-0.0175
782.2933	0.0187
782.466	0.0186
782.6386	0.02
782.8113	-0.0016
782.9839	-0.0028
783.1565	-0.0075
783.329	0.0125
783.5016	-0.0322
783.6741	0.0182
783.8466	0.0642
784.0191	0.0078
784.1916	-0.0084
784.3641	-0.0757
784.5365	-0.0118
784.7089	-0.0373
784.8813	0.0566
785.0537	0.0471
785.2261	0.023
785.3984	0.0043
785.5707	-0.0057
785.743	0.0553
785.9153	-0.0158
786.0876	-0.0535
786.2598	-0.0094
786.432	0.0342
786.6042	0.0414
786.7764	-0.0022
786.9486	-0.0081
787.1207	0.0204
787.2928	0.0769
787.4649	-0.0082
787.637	0.0467
787.8091	0.0168
787.9811	0.0578
788.1532	0.0397
788.3252	0.0593
788.4972	0.0357
788.6691	0.0072
788.8411	-0.004
789.013	0.0161
789.1849	-0.0096
789.3568	0.0204
789.5287	0.0503
789.7005	-0.0564
789.8723	0.0088
790.0442	0.0093
790.2159	-0.018
790.3877	0.0354
790.5595	0.0555
790.7312	0.0292
790.9029	0.0096
791.0746	0.0176
791.2463	-0.0365
791.4179	0.0389
791.5896	0.0919
791.7612	0.0033
791.9328	0.0491
792.1044	-0.0165
792.2759	-0.0191
792.4474	-0.0066
792.619	-0.0219
792.7905	0.0249
792.9619	0.0948
793.1334	0.064
793.3048	0.0564
793.4762	0.0087
793.6476	-0.0303
793.819	-0.0187
793.9904	-0.0011
794.1617	-0.0139
794.333	0.0089
794.5043	0.0225
794.6756	-0.0039
794.8469	0.0082
795.0181	0.0097
795.1893	0.0659
795.3605	0.0431
795.5317	-0.0139
795.7029	-0.0081
795.874	0.0164
796.0452	0.0116
796.2163	0.0169
796.3873	0.0175
796.5584	0.0355
796.7294	0.0004
796.9005	0.0566
797.0715	-0.0027
797.2425	0.0798
797.4134	0.0722
797.5844	0.053
797.7553	-0.0653
797.9262	0.0725
798.0971	0.0237
798.2679	-0.0413
798.4388	0.0306
798.6096	-0.021
798.7804	0.0562
798.9512	0.0085
799.122	-0.0505
799.2927	0.0945
799.4635	-0.0707
799.6342	-0.065
799.8049	-0.0009
799.9755	-0.0233
800.1462	0.017
800.3168	0.0331
800.4874	-0.1283
800.658	0.0096
800.8286	0.0051
800.9991	0.0004
801.1696	-0.0111
801.3402	-0.0488
801.5106	-0.0397
801.6811	-0.0321
801.8516	-0.0153
802.022	0.0158
802.1924	-0.0297
802.3628	-0.0477
802.5332	0.1232
802.7035	0.0597
802.8739	0.0204
803.0442	-0.0214
803.2145	0.0257
803.3847	0.0066
803.555	0.0189
803.7252	-0.0514
803.8954	-0.0403
804.0656	0.0534
804.2358	0.0673
804.4059	0.119
804.5761	0.0679
804.7462	0.0163
804.9163	-0.0196
805.0864	0.0311
805.2564	0.0081
805.4264	-0.045
805.5965	0.0943
805.7665	0.0004
805.9364	-0.0325
806.1064	-0.0313
806.2763	0.0491
806.4462	0.0191
806.6161	0.0181
806.786	0.0093
806.9559	0.0305
807.1257	0.0274
807.2955	0.0659
807.4653	0.0003
807.6351	0.0077
807.8048	0.0479
807.9746	-0.0156
808.1443	-0.0518
808.314	0.0498
808.4837	0.03
808.6533	-0.0357
808.8229	0.0202
808.9926	0.027
809.1622	0.0269
809.3317	0.0419
809.5013	-0.0068
809.6708	-0.0207
809.8403	0.0135
810.0098	-0.0118
810.1793	0.0587
810.3488	0.0162
810.5182	0.0928
810.6876	0.0453
810.857	0.0423
811.0264	0.1056
811.1958	0.1388
811.3651	-0.0087
811.5344	0.0457
811.7037	0.0741
811.873	0.0712
812.0422	0.0156
812.2115	-0.0561
812.3807	-0.1445
812.5499	-0.0882
812.7191	-0.1338
812.8882	-0.074
813.0574	0.0193
813.2265	0.1015
813.3956	0.0905
813.5646	0.0263
813.7337	0.0206
813.9027	-0.066
814.0718	0.0874
814.2407	-0.0107
814.4097	0.0409
814.5787	0.0977
814.7476	0.0448
814.9165	-0.0116
815.0854	0.0278
815.2543	-0.0178
815.4232	0.1351
815.592	-0.0019
815.7608	-0.1424
815.9296	0.1338
816.0984	0.251
816.2671	-0.143
816.4359	0.1725
816.6046	0.0773
816.7733	-0.029
816.942	-0.0841
817.1106	0.0893
817.2793	0.0694
817.4479	0.0298
817.6165	0.0157
817.785	0.0358
817.9536	-0.0563
818.1221	-0.037
818.2906	-0.0898
818.4591	0.1172
818.6276	0.0105
818.7961	0.0008
818.9645	0.0136
819.1329	0.2069
819.3013	-0.1085
819.4697	0.2845
819.638	0.3007
819.8064	0.0385
819.9747	0.0759
820.143	-0.0406
820.3113	-0.0496
820.4795	0.0913
820.6477	0.0316
820.816	0.0097
820.9842	0.0556
821.1523	0.047
821.3205	0.0364
821.4886	-0.1096
821.6567	0.0739
821.8248	0.0972
821.9929	-0.1888
822.1609	-0.1005
822.329	-0.0081
822.497	0.0936
822.665	-0.1099
822.833	0.0445
823.0009	-0.0362
823.1688	-0.0115
823.3367	-0.159
823.5046	0.0007
823.6725	-0.0574
823.8404	0.1038
824.0082	0.0009
824.176	-0.1092
824.3438	0.16
824.5116	-0.015
824.6793	-0.0074
824.847	-0.0429
825.0147	-0.0738
825.1824	-0.0256
825.3501	-0.1092
825.5177	-0.0327
825.6854	-0.0726
825.853	0.1799
826.0206	-0.0271
826.1881	-0.1587
826.3557	-0.0026
826.5232	0.0674
826.6907	0.1159
826.8582	0.0558
827.0257	0.121
827.1931	0.0825
827.3605	-0.0214
827.528	0.0227
827.6953	-0.1793
827.8627	-0.0949
828.03	0.1968
828.1974	-0.0528
828.3647	-0.0455
828.532	0.0554
828.6992	0.0549
828.8665	0.1052
829.0337	-0.0522
829.2009	-0.1476
829.3681	-0.0803
829.5352	-0.1347
829.7024	0.1572
829.8695	0.1081
830.0366	0.0281
830.2037	0.0116
830.3707	0.1295
830.5378	-0.0255
830.7048	-0.1128
830.8718	0.2675
831.0388	-0.049
831.2057	0.263
831.3727	-0.2797
831.5396	0.3575
831.7065	-0.8861
831.8734	0.2822
832.0402	0.1233
832.2071	0.0496
832.3739	-0.1438
832.5407	-1.6378
832.7075	-0.2308
832.8742	-0
833.041	-0.1221
833.2077	0.3708
833.3744	0.1069
833.541	0.035
833.7077	-0.0459
833.8743	0.0643
834.0409	0.2346
834.2075	0.1118
834.3741	-0.2493
834.5407	0.3625
834.7072	0.0847
834.8737	0.461
835.0402	0.4053
835.2067	-0.189
835.3731	-0.1404
835.5395	-0.0799
835.706	-0.1925
835.8723	0.2505
836.0387	0.0409
836.2051	-0
836.3714	0.2552
836.5377	0.002
836.704	0.2534
836.8703	-0.0869
837.0365	-0.6683
837.2027	0.1104
837.3689	0.2572
837.5351	0.6108
837.7013	-0.1623
837.8674	0.2054
838.0335	-0.0289
838.1997	0.4839
838.3657	-0
838.5318	-0
838.6978	0.2466
838.8639	-0.4579
839.0299	-0.1894
839.1958	0.3194
839.3618	0.2999
839.5277	0.7819
839.6937	-0.1544
839.8596	-0.1021
840.0254	0.0757
840.1913	-0.0299
840.3571	-0.2434
840.523	-0
840.6888	0.054
840.8545	-0.5869
841.0203	0.3759
841.186	0.0094
841.3517	-0.0977
841.5174	0.0229
841.6831	0.2752
841.8488	0.0283
842.0144	0.0771
842.18	0.1448
842.3456	-0.7595
842.5112	-0
842.6767	0.0394
842.8422	0.5144
843.0077	0.3828
843.1732	-0
843.3387	-0
843.5042	-0
843.6696	0.2172
843.835	-0.2559
844.0004	-0.1513
844.1657	-1.2823
844.3311	-0
844.4964	-0.7933
844.6617	0.2522
844.827	0.0645
844.9923	0.3154
845.1575	-0.2538
845.3227	0.1485
845.4879	-0.3827
845.6531	0.1955
845.8183	0.0718
845.9834	0.6617
846.1485	0.3618
846.3136	0.0147
846.4787	-0.2783
846.6438	0.2267
846.8088	1.2713
846.9738	-0.2041
847.1388	0.6928
847.3038	0.1236
847.4687	1.1715
847.6337	-0.3434
847.7986	-0.3972
847.9635	0.0726
848.1284	0.4813
848.2932	0.396
848.458	-0
848.6228	0.1953
848.7876	-0
848.9524	0.0419
849.1172	-1.9925
849.2819	-0
849.4466	0.1889
849.6113	0.0726
849.7759	-0.5145
849.9406	-0.226
850.1052	-1.4663
850.2698	-0
850.4344	-0.359
850.599	0.3431
850.7635	-0.0544
850.928	0.6582
851.0925	0.866
851.257	0.1093
851.4215	-0.2249
851.5859	0.1213
851.7503	-0
851.9147	-0.2398
852.0791	-0.2566
852.2434	0.0286
852.4078	-0
852.5721	-0
852.7364	-0
852.9007	-0.2202
853.0649	-0
853.2291	-0
853.3934	-0
853.5575	0.3118
853.7217	2.3669
853.8859	-0.2836
854.05	0.1202
854.2141	0.1588
854.3782	-0.3271
854.5423	-0
854.7063	-0.0902
854.8703	-0
855.0343	-0.1369
855.1983	0.1336
855.3623	0.0858
855.5262	-0
855.6901	0.2385
855.854	0.0791
856.0179	-0.3399
856.1818	0.5242
856.3456	0.8756
856.5094	-0.1207
856.6732	-0
856.837	-1.416
857.0008	0.0684
857.1645	-0.2684
857.3282	-0.3181
857.4919	-0.0702
857.6556	-0.2072
857.8192	-0.0082
857.9828	-0.0084
858.1465	0.2398
858.31	-0
858.4736	-0.6955
858.6372	-0
858.8007	-0.0668
858.9642	0.1942
859.1277	0.6163
859.2911	0.1016
859.4546	-0
859.618	-0.0217
859.7814	-0
859.9448	0.2054
860.1081	-0
860.2715	-0
860.4348	-0.1927
860.5981	1.0481
860.7614	-0
860.9246	-0.2398
861.0879	-0.0888
861.2511	-0
861.4143	-0
861.5774	-0.0461
861.7406	0.243
861.9037	-0
862.0668	-0.6021
862.2299	0.4861
862.393	-0
862.556	-0.3041
862.7191	-0.3794
862.8821	0.2488
863.0451	0.2459
863.208	0.7318
863.371	-0.5186
863.5339	0.0948
863.6968	-0
863.8597	-0.3302
864.0225	0.0272
864.1854	-0.0948
864.3482	-0
864.511	-0.2266
864.6737	-0
864.8365	0.6043
864.9992	-0.0727
865.1619	0.4657
865.3246	-0.9445
865.4873	-0.6804
865.65	-0
865.8126	-0
865.9752	0.5253
866.1378	-0.0142
866.3004	0.4861
866.4629	-2.0288
866.6254	-0.3041
866.7879	-0
866.9504	-0.0492
867.1129	-0
867.2753	0.177
867.4377	-0.2098
867.6001	-0.5008
867.7625	0.177
867.9249	0.2627
868.0872	-0.0112
868.2495	-0
868.4118	0.6192
868.5741	-0
868.7363	-0
868.8986	-0.6622
869.0608	-0
869.223	-0.4727
869.3851	-0
869.5473	0.3958
869.7094	0.41
869.8715	-0
870.0336	0.2741
870.1957	-0
870.3577	0.3244
870.5197	-0.0299
870.6817	-1.1326
870.8437	0.0616
871.0057	0.4615
871.1676	0.0062
871.3295	0.2677
871.4914	-0
871.6533	-0
871.8151	-0
871.977	-0.3909
872.1388	-0.3348
872.3006	-0.6353
872.4623	-0.6182
872.6241	-0
872.7858	0.1773
872.9475	0.7996
873.1092	0.5278
873.2709	0.739
873.4325	-1.716
873.5941	-0.7804
873.7557	-0
873.9173	-0
874.0789	-0.0916
874.2404	-0
874.4019	-0.2488
874.5634	-0
874.7249	0.6057
874.8863	-0.0743
875.0478	-0.4282
875.2092	-0
875.3706	0.0725
875.5319	0.6083
875.6933	0.2222
875.8546	0.7959
876.0159	0.3004
876.1772	-0
876.3385	-0
876.4997	0.2606
876.6609	0.187
876.8221	-0
876.9833	-0
877.1445	0.069
877.3056	-0
877.4667	-0
877.6278	-0
877.7889	-0.099
877.9499	-0
878.111	-0.2223
878.272	-0.2596
878.433	0.571
878.5939	-0
878.7549	1.1669
878.9158	-0.0614
879.0767	0.1745
879.2376	-0
879.3984	-0
879.5593	0.5072
879.7201	-1.8177
879.8809	-0
880.0417	0.0248
880.2024	0.7074
880.3632	-0.5525
880.5239	1.9766
880.6846	0.2968
880.8452	-0.0159
881.0059	-0
881.1665	-0.3264
881.3271	0.2096
881.4877	0.641
881.6483	-1.2408
881.8088	-0
881.9693	-0.7866
882.1298	-0.7866
882.2903	-0.7866
