Data from D4ACN5uM440nmA_Absorbance_13-50-24-883.txt Node
Date: Fri Feb 21 13:50:24 GMT 2025
User: LASERRRRR
Spectrometer: FLMT03099
Trigger mode: 0
Integration Time (sec): 1.500000E-2
Scans to average: 1
Electric dark correction enabled: true
Nonlinearity correction enabled: false
Boxcar width: 0
XAxis mode: Wavelengths
Number of Pixels in Spectrum: 3648
>>>>>Begin Spectral Data<<<<<
179.3399	0.1461
179.5586	0.1461
179.7771	0.1461
179.9957	0.0024
180.2143	-0
180.4329	-0
180.6514	-0
180.8699	-0
181.0885	-0.1769
181.307	-0.1443
181.5255	0.3163
181.744	-0
181.9625	0.1043
182.181	0.1747
182.3994	-0.0329
182.6179	-0
182.8363	-0
183.0547	-0
183.2732	0.196
183.4916	0.3542
183.71	0.5933
183.9284	0.1486
184.1467	0.1194
184.3651	0.0458
184.5835	0.2803
184.8018	0.1522
185.0201	0.0167
185.2385	0.1566
185.4568	0.0827
185.6751	0.2044
185.8934	0.5573
186.1117	-0.1685
186.3299	0.17
186.5482	0.2575
186.7664	0.0135
186.9847	0.0713
187.2029	0.2916
187.4211	-0.0241
187.6393	0.184
187.8575	0.087
188.0757	0.3927
188.2939	0.1302
188.512	0.487
188.7302	0.1811
188.9483	0.4325
189.1665	0.7501
189.3846	0.0814
189.6027	0.0458
189.8208	0.2891
190.0389	0.3533
190.257	0.1481
190.475	0.054
190.6931	0.1777
190.9111	0.3127
191.1292	0.0965
191.3472	0.0664
191.5652	0.166
191.7832	0.1341
192.0012	0.1771
192.2192	0.3072
192.4371	0.1527
192.6551	0.2623
192.873	0.1315
193.091	0.2478
193.3089	0.1811
193.5268	0.3445
193.7447	0.2421
193.9626	0.2102
194.1805	0.2208
194.3984	0.216
194.6162	0.258
194.8341	0.298
195.0519	0.2391
195.2697	0.2363
195.4875	0.2187
195.7054	0.3069
195.9231	0.29
196.1409	0.3467
196.3587	0.328
196.5765	0.3429
196.7942	0.3202
197.012	0.3564
197.2297	0.3226
197.4474	0.3224
197.6651	0.324
197.8828	0.3566
198.1005	0.3592
198.3182	0.3514
198.5358	0.3987
198.7535	0.3547
198.9711	0.3458
199.1888	0.422
199.4064	0.4057
199.624	0.3754
199.8416	0.4087
200.0592	0.399
200.2767	0.3813
200.4943	0.4749
200.7119	0.4128
200.9294	0.4039
201.1469	0.4091
201.3645	0.469
201.582	0.402
201.7995	0.4446
202.017	0.4126
202.2344	0.4089
202.4519	0.4165
202.6694	0.3957
202.8868	0.4013
203.1042	0.466
203.3217	0.3938
203.5391	0.4152
203.7565	0.3719
203.9739	0.397
204.1913	0.3429
204.4086	0.3423
204.626	0.3693
204.8433	0.3844
205.0607	0.3856
205.278	0.3675
205.4953	0.3459
205.7126	0.3553
205.9299	0.3371
206.1472	0.3475
206.3644	0.3516
206.5817	0.3166
206.7989	0.3358
207.0162	0.3228
207.2334	0.3102
207.4506	0.3218
207.6678	0.3114
207.885	0.3161
208.1022	0.3107
208.3194	0.2775
208.5365	0.332
208.7537	0.3058
208.9708	0.2847
209.1879	0.2842
209.405	0.301
209.6222	0.2767
209.8392	0.3015
210.0563	0.2731
210.2734	0.2798
210.4905	0.2706
210.7075	0.2915
210.9245	0.2631
211.1416	0.2758
211.3586	0.27
211.5756	0.2492
211.7926	0.288
212.0096	0.2641
212.2265	0.2679
212.4435	0.2621
212.6604	0.2687
212.8774	0.2643
213.0943	0.2472
213.3112	0.2514
213.5281	0.2623
213.745	0.2536
213.9619	0.2519
214.1788	0.2804
214.3956	0.2531
214.6125	0.2478
214.8293	0.2506
215.0461	0.2415
215.2629	0.2471
215.4798	0.2534
215.6965	0.2395
215.9133	0.2456
216.1301	0.2462
216.3469	0.2307
216.5636	0.2432
216.7803	0.254
216.9971	0.2591
217.2138	0.2657
217.4305	0.2476
217.6472	0.244
217.8639	0.2678
218.0805	0.2433
218.2972	0.2496
218.5138	0.2545
218.7305	0.2558
218.9471	0.2444
219.1637	0.2573
219.3803	0.2425
219.5969	0.2539
219.8135	0.2555
220.0301	0.2702
220.2466	0.2566
220.4632	0.2529
220.6797	0.2507
220.8962	0.2384
221.1127	0.263
221.3292	0.2588
221.5457	0.2621
221.7622	0.264
221.9787	0.2828
222.1951	0.2754
222.4116	0.2832
222.628	0.2831
222.8444	0.2714
223.0608	0.2713
223.2772	0.276
223.4936	0.2748
223.71	0.2868
223.9264	0.2899
224.1427	0.2943
224.3591	0.2887
224.5754	0.2966
224.7917	0.2928
225.008	0.2827
225.2243	0.2971
225.4406	0.2903
225.6569	0.3063
225.8732	0.311
226.0894	0.3236
226.3057	0.3184
226.5219	0.3061
226.7381	0.319
226.9543	0.3134
227.1705	0.3067
227.3867	0.3145
227.6029	0.3266
227.8191	0.3276
228.0352	0.3449
228.2513	0.3529
228.4675	0.3413
228.6836	0.3377
228.8997	0.3454
229.1158	0.3666
229.3319	0.3604
229.548	0.3398
229.764	0.3556
229.9801	0.3725
230.1961	0.3806
230.4121	0.3595
230.6282	0.3793
230.8442	0.3905
231.0602	0.3856
231.2761	0.3765
231.4921	0.3932
231.7081	0.3899
231.924	0.4042
232.14	0.3867
232.3559	0.4029
232.5718	0.4022
232.7877	0.4064
233.0036	0.4115
233.2195	0.4215
233.4353	0.4221
233.6512	0.415
233.867	0.4177
234.0829	0.4207
234.2987	0.4296
234.5145	0.4364
234.7303	0.4401
234.9461	0.4345
235.1619	0.4362
235.3776	0.4335
235.5934	0.4302
235.8091	0.4457
236.0249	0.4389
236.2406	0.4458
236.4563	0.44
236.672	0.4361
236.8877	0.4532
237.1034	0.447
237.319	0.4463
237.5347	0.4408
237.7503	0.456
237.966	0.456
238.1816	0.4582
238.3972	0.4569
238.6128	0.463
238.8284	0.4664
239.0439	0.4721
239.2595	0.4625
239.475	0.4519
239.6906	0.4542
239.9061	0.4653
240.1216	0.4594
240.3371	0.4603
240.5526	0.468
240.7681	0.4627
240.9836	0.4595
241.199	0.4554
241.4145	0.4532
241.6299	0.4524
241.8453	0.4387
242.0607	0.4382
242.2761	0.4317
242.4915	0.4244
242.7069	0.42
242.9223	0.4171
243.1376	0.4056
243.353	0.4012
243.5683	0.3988
243.7836	0.3856
243.9989	0.3754
244.2142	0.3702
244.4295	0.3723
244.6448	0.3645
244.86	0.3495
245.0753	0.3463
245.2905	0.3357
245.5057	0.3295
245.721	0.336
245.9362	0.3275
246.1514	0.3159
246.3665	0.3121
246.5817	0.3073
246.7969	0.2961
247.012	0.2939
247.2271	0.2891
247.4423	0.2776
247.6574	0.2795
247.8725	0.2652
248.0876	0.2674
248.3026	0.2639
248.5177	0.2514
248.7328	0.2552
248.9478	0.2468
249.1628	0.2432
249.3779	0.2398
249.5929	0.2386
249.8079	0.234
250.0228	0.229
250.2378	0.2258
250.4528	0.2259
250.6677	0.224
250.8827	0.2176
251.0976	0.2197
251.3125	0.2184
251.5274	0.2089
251.7423	0.2068
251.9572	0.211
252.172	0.2061
252.3869	0.2043
252.6017	0.2015
252.8166	0.2012
253.0314	0.2002
253.2462	0.1971
253.461	0.1932
253.6758	0.1934
253.8906	0.1936
254.1053	0.1969
254.3201	0.1907
254.5348	0.1849
254.7496	0.1856
254.9643	0.1902
255.179	0.1906
255.3937	0.1847
255.6083	0.1927
255.823	0.1884
256.0377	0.1848
256.2523	0.1819
256.467	0.1929
256.6816	0.1821
256.8962	0.1797
257.1108	0.1859
257.3254	0.1836
257.54	0.1815
257.7545	0.1851
257.9691	0.1785
258.1836	0.1805
258.3981	0.1778
258.6127	0.1702
258.8272	0.1804
259.0417	0.1721
259.2561	0.1811
259.4706	0.1697
259.6851	0.1766
259.8995	0.1751
260.114	0.1776
260.3284	0.1731
260.5428	0.1734
260.7572	0.1784
260.9716	0.1773
261.186	0.1745
261.4003	0.1743
261.6147	0.1738
261.829	0.177
262.0433	0.1798
262.2577	0.183
262.472	0.1773
262.6863	0.1783
262.9005	0.1814
263.1148	0.1771
263.3291	0.172
263.5433	0.1798
263.7576	0.174
263.9718	0.1756
264.186	0.1792
264.4002	0.1781
264.6144	0.1874
264.8286	0.1797
265.0427	0.1799
265.2569	0.1841
265.471	0.1799
265.6851	0.1808
265.8993	0.1801
266.1134	0.1793
266.3275	0.18
266.5415	0.1821
266.7556	0.1862
266.9697	0.1807
267.1837	0.1814
267.3978	0.1811
267.6118	0.1764
267.8258	0.1801
268.0398	0.184
268.2538	0.182
268.4677	0.177
268.6817	0.1764
268.8957	0.1702
269.1096	0.1686
269.3235	0.1723
269.5374	0.1739
269.7514	0.176
269.9652	0.1761
270.1791	0.1795
270.393	0.1738
270.6068	0.176
270.8207	0.1707
271.0345	0.1684
271.2483	0.1654
271.4622	0.1744
271.676	0.1697
271.8897	0.1721
272.1035	0.1726
272.3173	0.1705
272.531	0.1665
272.7448	0.1704
272.9585	0.1624
273.1722	0.1659
273.3859	0.1686
273.5996	0.1759
273.8133	0.1717
274.0269	0.1682
274.2406	0.1698
274.4542	0.1659
274.6679	0.1688
274.8815	0.1769
275.0951	0.1771
275.3087	0.1757
275.5223	0.1759
275.7358	0.1755
275.9494	0.1751
276.1629	0.1738
276.3765	0.1738
276.59	0.1699
276.8035	0.1706
277.017	0.1751
277.2305	0.1832
277.444	0.1771
277.6574	0.1795
277.8709	0.1801
278.0843	0.1782
278.2978	0.1812
278.5112	0.1779
278.7246	0.1767
278.938	0.1746
279.1513	0.1818
279.3647	0.1796
279.5781	0.1724
279.7914	0.1758
280.0047	0.1809
280.2181	0.1747
280.4314	0.1755
280.6447	0.1871
280.8579	0.1718
281.0712	0.1787
281.2845	0.1777
281.4977	0.1826
281.711	0.1778
281.9242	0.1774
282.1374	0.1804
282.3506	0.184
282.5638	0.1785
282.7769	0.1767
282.9901	0.1817
283.2033	0.1859
283.4164	0.1826
283.6295	0.1808
283.8426	0.1798
284.0557	0.1822
284.2688	0.1846
284.4819	0.1795
284.695	0.1862
284.908	0.1767
285.1211	0.1836
285.3341	0.1817
285.5471	0.1861
285.7601	0.1868
285.9731	0.1868
286.1861	0.1898
286.3991	0.1868
286.612	0.1847
286.825	0.1893
287.0379	0.1849
287.2508	0.1916
287.4637	0.19
287.6766	0.1875
287.8895	0.1867
288.1024	0.1895
288.3152	0.1894
288.5281	0.1881
288.7409	0.1924
288.9538	0.1935
289.1666	0.1909
289.3794	0.1864
289.5922	0.184
289.8049	0.1879
290.0177	0.1953
290.2304	0.1897
290.4432	0.194
290.6559	0.1921
290.8686	0.1935
291.0813	0.1947
291.294	0.191
291.5067	0.1907
291.7194	0.1932
291.932	0.1873
292.1447	0.1903
292.3573	0.1916
292.5699	0.1923
292.7825	0.1938
292.9951	0.1872
293.2077	0.1929
293.4203	0.1961
293.6328	0.1951
293.8454	0.1895
294.0579	0.1921
294.2704	0.1968
294.4829	0.1842
294.6954	0.1861
294.9079	0.1907
295.1204	0.1856
295.3328	0.1974
295.5453	0.1929
295.7577	0.1938
295.9701	0.1945
296.1825	0.1945
296.3949	0.19
296.6073	0.1912
296.8197	0.1937
297.0321	0.1986
297.2444	0.1958
297.4567	0.1953
297.6691	0.1898
297.8814	0.197
298.0937	0.1911
298.306	0.187
298.5182	0.1954
298.7305	0.1881
298.9428	0.1925
299.155	0.1894
299.3672	0.1921
299.5794	0.1955
299.7916	0.1905
300.0038	0.1915
300.216	0.1921
300.4282	0.1937
300.6403	0.1952
300.8525	0.193
301.0646	0.191
301.2767	0.1916
301.4888	0.1931
301.7009	0.1971
301.913	0.1933
302.125	0.1917
302.3371	0.1927
302.5491	0.1917
302.7612	0.1957
302.9732	0.198
303.1852	0.1965
303.3972	0.1925
303.6092	0.1854
303.8211	0.1947
304.0331	0.1858
304.245	0.19
304.457	0.189
304.6689	0.1921
304.8808	0.1867
305.0927	0.1852
305.3046	0.1852
305.5164	0.185
305.7283	0.1821
305.9401	0.1788
306.152	0.1809
306.3638	0.1779
306.5756	0.1792
306.7874	0.1777
306.9992	0.1691
307.2109	0.1758
307.4227	0.1729
307.6344	0.1726
307.8462	0.1662
308.0579	0.1724
308.2696	0.169
308.4813	0.1687
308.693	0.1626
308.9046	0.1644
309.1163	0.1614
309.328	0.1618
309.5396	0.1531
309.7512	0.1499
309.9628	0.1536
310.1744	0.1509
310.386	0.1454
310.5976	0.1468
310.8091	0.1488
311.0207	0.1422
311.2322	0.1446
311.4437	0.144
311.6552	0.1461
311.8667	0.1471
312.0782	0.1422
312.2897	0.1428
312.5012	0.1398
312.7126	0.1313
312.924	0.1361
313.1355	0.1419
313.3469	0.1307
313.5583	0.1369
313.7696	0.1255
313.981	0.1339
314.1924	0.1266
314.4037	0.1244
314.6151	0.1315
314.8264	0.1307
315.0377	0.1294
315.249	0.1344
315.4603	0.1207
315.6716	0.1274
315.8828	0.1254
316.0941	0.1294
316.3053	0.1268
316.5165	0.1305
316.7277	0.123
316.9389	0.1288
317.1501	0.1254
317.3613	0.1229
317.5724	0.1282
317.7836	0.1187
317.9947	0.1263
318.2058	0.1196
318.417	0.1224
318.6281	0.1165
318.8391	0.1243
319.0502	0.1265
319.2613	0.1258
319.4723	0.1236
319.6834	0.123
319.8944	0.1186
320.1054	0.1274
320.3164	0.1173
320.5274	0.1229
320.7383	0.1243
320.9493	0.1201
321.1602	0.1241
321.3712	0.1205
321.5821	0.1156
321.793	0.127
322.0039	0.1206
322.2148	0.1226
322.4257	0.1243
322.6365	0.1211
322.8474	0.1243
323.0582	0.1243
323.269	0.1254
323.4798	0.1286
323.6906	0.1237
323.9014	0.1189
324.1122	0.1181
324.3229	0.1278
324.5337	0.1237
324.7444	0.1245
324.9551	0.1247
325.1658	0.1215
325.3765	0.1274
325.5872	0.1276
325.7979	0.1264
326.0085	0.1235
326.2192	0.1206
326.4298	0.1268
326.6404	0.1269
326.851	0.126
327.0616	0.1315
327.2722	0.1296
327.4828	0.1281
327.6933	0.1299
327.9039	0.1251
328.1144	0.1293
328.3249	0.1282
328.5354	0.1258
328.7459	0.132
328.9564	0.128
329.1669	0.1347
329.3773	0.1334
329.5878	0.1341
329.7982	0.136
330.0086	0.1324
330.219	0.128
330.4294	0.1299
330.6398	0.133
330.8502	0.1367
331.0605	0.1332
331.2708	0.1289
331.4812	0.1366
331.6915	0.1336
331.9018	0.1303
332.1121	0.1326
332.3224	0.1334
332.5326	0.1288
332.7429	0.133
332.9531	0.1359
333.1633	0.1302
333.3735	0.1322
333.5837	0.1338
333.7939	0.1338
334.0041	0.1381
334.2143	0.1373
334.4244	0.1361
334.6346	0.1337
334.8447	0.1312
335.0548	0.1411
335.2649	0.1397
335.475	0.1386
335.685	0.1391
335.8951	0.1339
336.1051	0.1418
336.3152	0.1404
336.5252	0.1334
336.7352	0.1333
336.9452	0.1345
337.1552	0.1394
337.3652	0.1397
337.5751	0.1341
337.7851	0.1384
337.995	0.143
338.2049	0.1334
338.4148	0.1439
338.6247	0.1366
338.8346	0.1366
339.0445	0.1398
339.2543	0.1416
339.4642	0.1377
339.674	0.1319
339.8838	0.1386
340.0936	0.1377
340.3034	0.1395
340.5132	0.1329
340.7229	0.1383
340.9327	0.1469
341.1424	0.1459
341.3522	0.144
341.5619	0.1431
341.7716	0.1489
341.9813	0.1531
342.1909	0.1478
342.4006	0.1494
342.6102	0.145
342.8199	0.1464
343.0295	0.1459
343.2391	0.1496
343.4487	0.1568
343.6583	0.1595
343.8679	0.1523
344.0774	0.1446
344.287	0.1506
344.4965	0.1562
344.706	0.1574
344.9155	0.1484
345.125	0.155
345.3345	0.1647
345.544	0.1646
345.7534	0.1545
345.9629	0.1596
346.1723	0.166
346.3817	0.1584
346.5911	0.1542
346.8005	0.1632
347.0099	0.1641
347.2193	0.1628
347.4286	0.1691
347.638	0.1593
347.8473	0.164
348.0566	0.1623
348.2659	0.1568
348.4752	0.166
348.6845	0.1696
348.8937	0.1692
349.103	0.1682
349.3122	0.1661
349.5214	0.1664
349.7306	0.1713
349.9398	0.1595
350.149	0.1685
350.3582	0.1729
350.5674	0.1759
350.7765	0.1717
350.9856	0.1692
351.1948	0.1756
351.4039	0.1808
351.613	0.174
351.822	0.1712
352.0311	0.1796
352.2402	0.1742
352.4492	0.1766
352.6582	0.1789
352.8672	0.1778
353.0762	0.1792
353.2852	0.1849
353.4942	0.1811
353.7032	0.1801
353.9121	0.183
354.1211	0.1798
354.33	0.1827
354.5389	0.1857
354.7478	0.1758
354.9567	0.1876
355.1655	0.1822
355.3744	0.1897
355.5833	0.1889
355.7921	0.1861
356.0009	0.1852
356.2097	0.1809
356.4185	0.188
356.6273	0.1841
356.8361	0.1878
357.0448	0.1907
357.2536	0.185
357.4623	0.1902
357.671	0.1905
357.8797	0.191
358.0884	0.193
358.2971	0.1927
358.5057	0.1939
358.7144	0.1911
358.923	0.1962
359.1316	0.2092
359.3402	0.194
359.5488	0.1984
359.7574	0.1985
359.966	0.2062
360.1746	0.1982
360.3831	0.2059
360.5916	0.202
360.8002	0.2123
361.0087	0.2038
361.2172	0.2101
361.4256	0.2081
361.6341	0.2077
361.8426	0.2122
362.051	0.2113
362.2594	0.2116
362.4678	0.2169
362.6762	0.2165
362.8846	0.2187
363.093	0.2206
363.3014	0.2279
363.5097	0.2169
363.718	0.2205
363.9264	0.2235
364.1347	0.2188
364.343	0.2237
364.5513	0.2195
364.7595	0.2309
364.9678	0.222
365.176	0.2307
365.3842	0.2298
365.5925	0.2252
365.8007	0.2254
366.0089	0.2335
366.217	0.236
366.4252	0.2381
366.6333	0.2387
366.8415	0.2369
367.0496	0.2356
367.2577	0.2431
367.4658	0.2285
367.6739	0.2381
367.882	0.2398
368.09	0.2416
368.2981	0.2522
368.5061	0.2411
368.7141	0.2431
368.9221	0.255
369.1301	0.2518
369.3381	0.246
369.5461	0.2452
369.754	0.238
369.962	0.2508
370.1699	0.2564
370.3778	0.2577
370.5857	0.2502
370.7936	0.2517
371.0015	0.2556
371.2093	0.2483
371.4172	0.2552
371.625	0.2542
371.8328	0.2472
372.0406	0.2683
372.2484	0.2534
372.4562	0.2572
372.664	0.2612
372.8717	0.2604
373.0795	0.2636
373.2872	0.2673
373.4949	0.2739
373.7026	0.2613
373.9103	0.2702
374.118	0.2718
374.3256	0.2692
374.5333	0.2709
374.7409	0.2666
374.9485	0.2749
375.1561	0.277
375.3637	0.2735
375.5713	0.2814
375.7789	0.2738
375.9864	0.2679
376.194	0.2748
376.4015	0.273
376.609	0.2725
376.8165	0.2785
377.024	0.2699
377.2315	0.2815
377.4389	0.268
377.6464	0.2861
377.8538	0.2899
378.0612	0.278
378.2686	0.2851
378.476	0.2872
378.6834	0.2839
378.8908	0.2906
379.0981	0.2876
379.3055	0.2916
379.5128	0.2811
379.7201	0.2857
379.9274	0.2891
380.1347	0.2858
380.342	0.2964
380.5492	0.2943
380.7565	0.2993
380.9637	0.2902
381.1709	0.2925
381.3781	0.3068
381.5853	0.2992
381.7925	0.2911
381.9997	0.2956
382.2068	0.2886
382.4139	0.2999
382.6211	0.2995
382.8282	0.3015
383.0353	0.2903
383.2424	0.2904
383.4494	0.3019
383.6565	0.3079
383.8635	0.2966
384.0706	0.305
384.2776	0.302
384.4846	0.3074
384.6916	0.3075
384.8986	0.2989
385.1055	0.322
385.3125	0.302
385.5194	0.3134
385.7263	0.2973
385.9333	0.3087
386.1402	0.3068
386.347	0.3058
386.5539	0.298
386.7608	0.3037
386.9676	0.3012
387.1744	0.2966
387.3813	0.306
387.5881	0.2988
387.7948	0.3111
388.0016	0.3119
388.2084	0.3103
388.4151	0.3102
388.6219	0.3061
388.8286	0.3107
389.0353	0.2992
389.242	0.3044
389.4487	0.2973
389.6553	0.296
389.862	0.2947
390.0686	0.3136
390.2753	0.3034
390.4819	0.3047
390.6885	0.2917
390.8951	0.2981
391.1016	0.2941
391.3082	0.2959
391.5147	0.2872
391.7213	0.2825
391.9278	0.2896
392.1343	0.2957
392.3408	0.2976
392.5473	0.2843
392.7537	0.2875
392.9602	0.2836
393.1666	0.2742
393.373	0.2837
393.5794	0.2809
393.7858	0.2944
393.9922	0.2727
394.1986	0.2768
394.4049	0.2734
394.6113	0.2783
394.8176	0.2826
395.0239	0.2736
395.2302	0.2691
395.4365	0.2736
395.6428	0.2708
395.8491	0.2684
396.0553	0.2706
396.2615	0.2592
396.4678	0.2727
396.674	0.2469
396.8802	0.2517
397.0863	0.2561
397.2925	0.2582
397.4987	0.2646
397.7048	0.2733
397.9109	0.2642
398.117	0.257
398.3231	0.2466
398.5292	0.2493
398.7353	0.2589
398.9413	0.2565
399.1474	0.2561
399.3534	0.2512
399.5594	0.2618
399.7654	0.2637
399.9714	0.2593
400.1774	0.2504
400.3833	0.256
400.5893	0.2609
400.7952	0.2732
401.0011	0.2603
401.207	0.2609
401.4129	0.2673
401.6188	0.2547
401.8247	0.2697
402.0305	0.2619
402.2364	0.259
402.4422	0.2581
402.648	0.2594
402.8538	0.2554
403.0596	0.2626
403.2654	0.2575
403.4711	0.2593
403.6768	0.2525
403.8826	0.2534
404.0883	0.2571
404.294	0.2568
404.4997	0.2555
404.7054	0.2736
404.911	0.2619
405.1167	0.2555
405.3223	0.2515
405.5279	0.2516
405.7335	0.2594
405.9391	0.2496
406.1447	0.2483
406.3502	0.2576
406.5558	0.2586
406.7613	0.2623
406.9668	0.2597
407.1724	0.2512
407.3778	0.2491
407.5833	0.2548
407.7888	0.2678
407.9942	0.2585
408.1997	0.2494
408.4051	0.2607
408.6105	0.2584
408.8159	0.2667
409.0213	0.2635
409.2267	0.2555
409.432	0.255
409.6374	0.2607
409.8427	0.2637
410.048	0.2491
410.2533	0.2596
410.4586	0.2491
410.6639	0.2566
410.8691	0.2633
411.0744	0.2571
411.2796	0.258
411.4848	0.2656
411.69	0.2511
411.8952	0.2594
412.1004	0.2493
412.3056	0.2582
412.5107	0.2569
412.7158	0.2716
412.921	0.2614
413.1261	0.2651
413.3312	0.2538
413.5362	0.2662
413.7413	0.2476
413.9464	0.2429
414.1514	0.2485
414.3564	0.257
414.5614	0.2535
414.7664	0.2467
414.9714	0.2554
415.1764	0.2527
415.3813	0.2476
415.5863	0.2588
415.7912	0.251
415.9961	0.2601
416.201	0.2621
416.4059	0.252
416.6108	0.2473
416.8156	0.2427
417.0205	0.2494
417.2253	0.2483
417.4301	0.2534
417.6349	0.2504
417.8397	0.2463
418.0445	0.2378
418.2492	0.237
418.454	0.2496
418.6587	0.2468
418.8634	0.2547
419.0681	0.2398
419.2728	0.2391
419.4775	0.2465
419.6822	0.2513
419.8868	0.2405
420.0915	0.2396
420.2961	0.2354
420.5007	0.242
420.7053	0.2338
420.9099	0.2432
421.1144	0.2474
421.319	0.2323
421.5235	0.2335
421.728	0.2433
421.9325	0.2451
422.137	0.2364
422.3415	0.2284
422.546	0.2208
422.7504	0.2304
422.9549	0.2338
423.1593	0.2235
423.3637	0.2254
423.5681	0.2281
423.7725	0.2295
423.9769	0.2325
424.1812	0.223
424.3856	0.2214
424.5899	0.2235
424.7942	0.2205
424.9985	0.2157
425.2028	0.2287
425.4071	0.2188
425.6113	0.225
425.8156	0.2311
426.0198	0.2164
426.224	0.2176
426.4282	0.2152
426.6324	0.2129
426.8366	0.2093
427.0407	0.2168
427.2449	0.2051
427.449	0.2142
427.6531	0.2184
427.8572	0.2239
428.0613	0.2152
428.2654	0.2053
428.4694	0.197
428.6735	0.2051
428.8775	0.2019
429.0815	0.1987
429.2855	0.2006
429.4895	0.189
429.6935	0.1991
429.8975	0.1907
430.1014	0.1956
430.3053	0.1948
430.5093	0.1955
430.7132	0.1855
430.9171	0.1814
431.1209	0.19
431.3248	0.1776
431.5286	0.1777
431.7325	0.1887
431.9363	0.1739
432.1401	0.164
432.3439	0.1861
432.5477	0.1747
432.7514	0.1734
432.9552	0.1687
433.1589	0.1643
433.3627	0.1672
433.5664	0.1629
433.7701	0.1641
433.9737	0.1621
434.1774	0.1654
434.3811	0.1596
434.5847	0.1487
434.7883	0.1541
434.9919	0.1496
435.1955	0.1534
435.3991	0.1478
435.6027	0.1461
435.8062	0.1635
436.0098	0.1451
436.2133	0.1462
436.4168	0.1414
436.6203	0.1365
436.8238	0.1428
437.0272	0.1351
437.2307	0.1326
437.4341	0.1383
437.6375	0.1334
437.841	0.1289
438.0443	0.1373
438.2477	0.123
438.4511	0.1203
438.6545	0.1276
438.8578	0.1223
439.0611	0.1329
439.2644	0.121
439.4677	0.1193
439.671	0.1124
439.8743	0.125
440.0775	0.1148
440.2808	0.1073
440.484	0.1039
440.6872	0.1072
440.8904	0.0996
441.0936	0.1099
441.2967	0.0931
441.4999	0.0953
441.703	0.1025
441.9062	0.097
442.1093	0.11
442.3124	0.0997
442.5155	0.099
442.7185	0.0951
442.9216	0.0958
443.1246	0.0868
443.3276	0.0945
443.5307	0.083
443.7337	0.0909
443.9366	0.085
444.1396	0.081
444.3426	0.0727
444.5455	0.0757
444.7484	0.0744
444.9513	0.0804
445.1542	0.0908
445.3571	0.0775
445.56	0.0685
445.7628	0.0722
445.9657	0.0824
446.1685	0.0739
446.3713	0.0746
446.5741	0.0719
446.7769	0.0774
446.9797	0.0699
447.1824	0.067
447.3852	0.0521
447.5879	0.0597
447.7906	0.0599
447.9933	0.0622
448.196	0.0531
448.3986	0.0531
448.6013	0.0508
448.8039	0.0607
449.0066	0.0674
449.2092	0.0618
449.4118	0.0558
449.6143	0.0627
449.8169	0.0546
450.0195	0.0596
450.222	0.0595
450.4245	0.0517
450.627	0.0531
450.8295	0.0446
451.032	0.0505
451.2345	0.0385
451.4369	0.0452
451.6394	0.0326
451.8418	0.0495
452.0442	0.0458
452.2466	0.0336
452.449	0.0392
452.6513	0.0387
452.8537	0.0365
453.056	0.0327
453.2583	0.0408
453.4607	0.0351
453.663	0.0423
453.8652	0.026
454.0675	0.0406
454.2697	0.0402
454.472	0.0238
454.6742	0.0333
454.8764	0.0387
455.0786	0.0279
455.2808	0.037
455.4829	0.038
455.6851	0.0361
455.8872	0.0249
456.0893	0.0323
456.2915	0.0162
456.4935	0.037
456.6956	0.0223
456.8977	0.0184
457.0997	0.0266
457.3018	0.0292
457.5038	0.032
457.7058	0.0255
457.9078	0.0211
458.1098	0.0243
458.3117	0.0319
458.5137	0.015
458.7156	0.0193
458.9175	0.0241
459.1194	0.0159
459.3213	0.026
459.5232	0.0257
459.725	0.0228
459.9269	0.0241
460.1287	0.0115
460.3305	0.0255
460.5323	0.0193
460.7341	0.0256
460.9359	0.0089
461.1376	0.0228
461.3394	0.0252
461.5411	0.0211
461.7428	0.0165
461.9445	0.0162
462.1462	0.0065
462.3479	0.0142
462.5495	0.0152
462.7512	0.0276
462.9528	0.012
463.1544	0.0153
463.356	0.0069
463.5576	0.0276
463.7592	0.0187
463.9607	0.0182
464.1623	0.0049
464.3638	0.0072
464.5653	0.0217
464.7668	0.0133
464.9683	0.0129
465.1697	0.0134
465.3712	0.0064
465.5726	0.0169
465.7741	0.0166
465.9755	0.0091
466.1769	0.0171
466.3782	0.0062
466.5796	0.0144
466.7809	0.0164
466.9823	0.0103
467.1836	0.0096
467.3849	0.013
467.5862	0.0065
467.7875	0.0039
467.9887	0.012
468.19	0.0171
468.3912	0.0203
468.5924	0.0107
468.7936	0.007
468.9948	0.0101
469.196	0.0076
469.3972	0.0078
469.5983	0.0106
469.7994	0.0167
470.0006	0.0087
470.2017	0.0007
470.4027	0.0149
470.6038	0.006
470.8049	0.0118
471.0059	0.0194
471.2069	0.0084
471.408	0.0122
471.6089	0.0122
471.8099	0.0054
472.0109	0.0102
472.2119	0.0022
472.4128	0.0052
472.6137	0.0034
472.8146	0.0083
473.0155	0.015
473.2164	0.0082
473.4173	0.0023
473.6181	0.0025
473.819	0.013
474.0198	-0.0006
474.2206	0.0012
474.4214	0.0139
474.6222	0.0012
474.8229	0.0098
475.0237	0.0117
475.2244	0.0124
475.4251	0.0106
475.6258	0.0084
475.8265	0.0052
476.0272	0.0019
476.2278	0.0039
476.4285	0.0107
476.6291	0.0116
476.8297	0.007
477.0303	0.0001
477.2309	0.0167
477.4315	0.0112
477.632	0.0039
477.8326	0.0121
478.0331	0.0068
478.2336	0.0028
478.4341	0.0088
478.6346	-0.0004
478.8351	0.0021
479.0355	0.0188
479.236	0.0094
479.4364	0.0081
479.6368	0.0075
479.8372	0.0083
480.0376	0.0041
480.2379	0.0158
480.4383	0.0093
480.6386	0.0035
480.8389	0.0055
481.0392	0.0023
481.2395	0.0114
481.4398	0.0065
481.6401	0.0068
481.8403	0.0037
482.0405	0.0093
482.2408	0.0085
482.441	0.0068
482.6411	0.0068
482.8413	0.0043
483.0415	0.019
483.2416	0.0067
483.4417	0.0078
483.6419	-0.0021
483.8419	0.0103
484.042	0.0088
484.2421	-0.0018
484.4422	0.0112
484.6422	0.0063
484.8422	0.0044
485.0422	0.0045
485.2422	0.0014
485.4422	0.0021
485.6422	0.0032
485.8421	0.0028
486.042	0.0126
486.242	0.0041
486.4419	0.002
486.6417	0.0017
486.8416	0.0059
487.0415	-0.0037
487.2413	0.001
487.4411	0.0045
487.641	0.0009
487.8408	0.0139
488.0405	0.0041
488.2403	-0.0003
488.4401	0.005
488.6398	0.0043
488.8395	0.0043
489.0392	0.008
489.2389	0.0126
489.4386	0.0001
489.6383	0.0032
489.8379	0.0046
490.0376	0.0075
490.2372	0.0108
490.4368	-0.0042
490.6364	0.0062
490.836	-0.0021
491.0355	-0.0014
491.2351	0.0001
491.4346	0.0019
491.6341	-0.0079
491.8336	0.0079
492.0331	0.0058
492.2326	0.0127
492.432	0.0138
492.6315	0.0102
492.8309	0.0102
493.0303	0.0104
493.2297	0.0077
493.4291	0.0065
493.6284	0.01
493.8278	0.0025
494.0271	0.0128
494.2264	0.0052
494.4257	0.0072
494.625	0.0023
494.8243	0.0049
495.0236	0.005
495.2228	0.0119
495.422	0.0071
495.6213	0.0079
495.8205	0.0044
496.0196	0.005
496.2188	0.0102
496.418	0.0079
496.6171	0.0038
496.8162	0.01
497.0153	0.0104
497.2144	0.0101
497.4135	0.0054
497.6126	0.0021
497.8116	0.0038
498.0107	0.0107
498.2097	0.0128
498.4087	0.0024
498.6077	0.0019
498.8067	0.0098
499.0056	0.0136
499.2046	0.004
499.4035	0.0095
499.6024	0.0015
499.8013	0.0108
500.0002	0.0079
500.199	0.0167
500.3979	-0.0024
500.5967	0.0076
500.7956	0.0057
500.9944	0.0041
501.1932	0.0226
501.3919	0.0074
501.5907	0.0095
501.7895	0.005
501.9882	0.0062
502.1869	0.0174
502.3856	0.0102
502.5843	0.0007
502.783	0.0038
502.9816	0.0101
503.1803	0.0091
503.3789	0.0124
503.5775	0.0059
503.7761	0.0053
503.9747	0.0134
504.1732	-0.001
504.3718	0.0181
504.5703	0.0045
504.7689	-0.0021
504.9674	-0.0007
505.1658	-0.0019
505.3643	0.0059
505.5628	0.008
505.7612	0.023
505.9597	-0.0026
506.1581	0.0072
506.3565	0.0028
506.5549	-0.0001
506.7532	-0.0018
506.9516	0.0021
507.1499	0.0001
507.3482	0.0046
507.5465	0.0016
507.7448	0.0031
507.9431	0.0074
508.1414	0.0005
508.3396	0.0089
508.5379	0.0021
508.7361	0.0023
508.9343	0.0035
509.1325	0.0082
509.3306	0.0057
509.5288	-0.0016
509.7269	0.016
509.9251	0.0121
510.1232	0.0121
510.3213	0.0097
510.5193	-0.0025
510.7174	0.0006
510.9154	0.0094
511.1135	-0.0001
511.3115	-0.0044
511.5095	0.0009
511.7075	0.0046
511.9055	-0.0009
512.1034	0.0061
512.3014	0.0023
512.4993	0.0018
512.6972	0.0064
512.8951	0.0124
513.093	0.0043
513.2908	0.017
513.4887	-0.0024
513.6865	-0.0005
513.8844	0.0126
514.0822	0.005
514.2799	-0.0043
514.4777	-0.0006
514.6755	0.0072
514.8732	0.0118
515.0709	0.0074
515.2687	0.0079
515.4664	0.0133
515.664	0.0108
515.8617	0.0113
516.0594	0.0134
516.257	0.0087
516.4546	0.0134
516.6522	0.009
516.8498	0.0066
517.0474	0.0135
517.2449	-0.0053
517.4425	0.0115
517.64	0.0106
517.8375	0.0139
518.035	0.012
518.2325	0.0013
518.43	0.0052
518.6274	-0.005
518.8249	-0.0074
519.0223	0.0155
519.2197	0.0032
519.4171	0.0051
519.6145	0.0155
519.8118	-0.0081
520.0092	-0.0042
520.2065	0.0184
520.4038	0.015
520.6011	0.0079
520.7984	0.0118
520.9956	0.0009
521.1929	0.0096
521.3901	0.013
521.5874	0.0116
521.7846	-0.0057
521.9818	0.006
522.1789	0.001
522.3761	0.0231
522.5732	0.009
522.7704	0.0012
522.9675	-0.0045
523.1646	-0.0016
523.3617	0.0083
523.5587	0.0066
523.7558	0.0071
523.9528	0.0111
524.1498	-0.0027
524.3468	0.0011
524.5438	0.0095
524.7408	0.0096
524.9378	0.0077
525.1347	0.0102
525.3316	0.0026
525.5285	0.0062
525.7254	0.0095
525.9223	0.0264
526.1192	0.0041
526.316	0.0179
526.5129	0.0122
526.7097	0.0046
526.9065	0.0117
527.1033	0.0096
527.3	0.0006
527.4968	0.0088
527.6935	-0.0018
527.8903	-0.0042
528.087	0.0089
528.2837	0.0118
528.4804	0.0061
528.677	0.0044
528.8737	0.0032
529.0703	0.0005
529.2669	0.0152
529.4635	0.0026
529.6601	0.0051
529.8567	-0.0018
530.0532	0.0011
530.2498	-0.0013
530.4463	-0.0012
530.6428	0.0029
530.8393	0.0261
531.0358	0.0052
531.2322	-0.0037
531.4287	0.0081
531.6251	-0.0062
531.8215	0.0029
532.0179	0.012
532.2143	0.0091
532.4107	0.0066
532.607	-0.0025
532.8034	0.0011
532.9997	0.004
533.196	0.0003
533.3923	0.0074
533.5886	0.0084
533.7848	-0.0031
533.9811	0.0141
534.1773	0.0075
534.3735	0.0058
534.5697	0.0039
534.7659	0.0104
534.9621	0.0045
535.1582	0.0041
535.3544	0.0107
535.5505	0.0055
535.7466	0.0107
535.9427	0.0119
536.1387	-0.0016
536.3348	0.0081
536.5308	0.0011
536.7269	0.0027
536.9229	0.0059
537.1189	0.011
537.3148	0.0073
537.5108	0.0022
537.7068	0.0197
537.9027	-0.0041
538.0986	0.0124
538.2945	0.0149
538.4904	-0.002
538.6863	0.0023
538.8821	0.0087
539.078	0.0105
539.2738	0.0052
539.4696	0.0048
539.6654	0.0037
539.8611	0.0106
540.0569	-0.0011
540.2526	0.0022
540.4484	-0.0004
540.6441	0.0053
540.8398	0.0118
541.0355	0.0036
541.2311	0.0084
541.4268	0.0171
541.6224	0.0141
541.818	0.0061
542.0136	0.0136
542.2092	0.015
542.4048	0.0051
542.6003	-0.0031
542.7959	-0.0011
542.9914	0.0091
543.1869	0.0185
543.3824	0.0042
543.5779	0.0052
543.7734	0.0142
543.9688	0.0104
544.1642	0.0043
544.3596	0.0052
544.555	-0.0018
544.7504	0.0162
544.9458	0.0007
545.1411	0.0104
545.3365	0.0089
545.5318	0.0058
545.7271	0.0201
545.9224	0.0009
546.1177	0.0112
546.3129	0.0086
546.5081	0.0005
546.7034	0.0114
546.8986	0.0024
547.0938	0.009
547.289	0.0138
547.4841	0.0083
547.6793	0.0093
547.8744	0.0074
548.0695	0.0018
548.2646	0.0025
548.4597	0.0037
548.6548	0.0206
548.8498	0.019
549.0448	0.0099
549.2399	0.0145
549.4349	0.0078
549.6298	-0.0039
549.8248	0.0035
550.0198	0.0117
550.2147	0.011
550.4096	-0.0108
550.6045	0.0145
550.7994	0.0063
550.9943	0.0159
551.1892	-0.0126
551.384	-0.0013
551.5788	0.0016
551.7737	0.01
551.9685	0.0156
552.1632	-0.0001
552.358	0.0044
552.5528	0.0063
552.7475	0.0019
552.9422	0.0073
553.1369	0.0103
553.3316	0.0022
553.5263	0.0202
553.7209	0.0084
553.9156	0.0055
554.1102	0.009
554.3048	0.0038
554.4994	0.0071
554.694	0.0066
554.8885	0.013
555.0831	0.0137
555.2776	0.0066
555.4721	-0.0056
555.6666	0.0032
555.8611	0.0083
556.0555	0.0087
556.25	0.0051
556.4444	0
556.6388	0.0113
556.8332	0.003
557.0276	-0.0022
557.222	-0.0015
557.4163	0.012
557.6107	0.0039
557.805	0.0046
557.9993	0.003
558.1936	0.0011
558.3879	0.0121
558.5821	-0.0026
558.7764	-0.0002
558.9706	0.0063
559.1648	0.0087
559.359	0.0107
559.5532	-0.003
559.7473	0.0006
559.9415	0.0016
560.1356	0.0224
560.3297	0.0051
560.5238	0.0103
560.7179	0.0049
560.9119	0.0086
561.106	0.0059
561.3	0.0112
561.494	0.0027
561.688	0.0036
561.882	0.0015
562.076	0.0028
562.2699	0.0116
562.4639	0.0208
562.6578	0.0096
562.8517	0.0093
563.0456	0.0077
563.2395	0.0086
563.4333	0.0014
563.6272	0.0035
563.821	0.0128
564.0148	-0.0035
564.2086	0.0117
564.4024	-0.0014
564.5961	0.0117
564.7899	0.0126
564.9836	-0.0008
565.1773	0.0117
565.371	0.0016
565.5647	0.0017
565.7584	0.0109
565.952	0.0061
566.1456	0.001
566.3393	0.0052
566.5329	0.0083
566.7264	0.007
566.92	0.0056
567.1136	-0.0005
567.3071	-0.0031
567.5006	0.005
567.6941	0.0049
567.8876	0.0073
568.0811	0.0144
568.2745	0
568.468	0.0026
568.6614	0.0082
568.8548	0.0074
569.0482	0.0099
569.2416	0.0041
569.4349	0.0033
569.6283	0.0018
569.8216	0.0076
570.0149	0.0048
570.2082	0.0124
570.4015	0.0016
570.5947	0.0047
570.788	0.0082
570.9812	0.0033
571.1744	0.0044
571.3676	0.0032
571.5608	0.0055
571.754	0.0118
571.9471	0.0088
572.1402	0.0041
572.3333	0.0091
572.5264	0.0068
572.7195	0.0024
572.9126	0.0027
573.1057	0.0047
573.2987	0.0024
573.4917	0.0042
573.6847	0.0029
573.8777	0.0094
574.0707	0.0049
574.2636	0.0018
574.4566	0.0026
574.6495	0.0022
574.8424	0.008
575.0353	0.0095
575.2281	0.0075
575.421	0.0029
575.6138	0.0037
575.8067	0.0074
575.9995	0.0023
576.1923	0.0043
576.385	0.0059
576.5778	0.0107
576.7706	0.005
576.9633	0.0064
577.156	-0.0024
577.3487	0.0047
577.5414	0.0029
577.734	0.0023
577.9267	0.0041
578.1193	0.0088
578.3119	-0.0002
578.5045	0.001
578.6971	0.0031
578.8897	0.0047
579.0822	0.0055
579.2747	0.0059
579.4673	0.0042
579.6598	0.0056
579.8522	0.0054
580.0447	0.0063
580.2372	0.0073
580.4296	0.0113
580.622	0.0024
580.8144	0.0073
581.0068	0.004
581.1992	0.0046
581.3915	0.0001
581.5839	0.0057
581.7762	0.0036
581.9685	0.0054
582.1608	0.005
582.353	0.0027
582.5453	0.0053
582.7375	0.0079
582.9298	-0.0001
583.122	0
583.3142	0.0054
583.5063	0.0049
583.6985	0.0014
583.8906	0.0039
584.0827	0.0046
584.2749	0.0007
584.4669	0.007
584.659	0.0071
584.8511	0.0107
585.0431	0.0075
585.2352	0.0053
585.4272	0.0042
585.6192	0.0043
585.8111	0.0041
586.0031	0.0038
586.195	0.0022
586.387	0.0023
586.5789	0.0067
586.7708	0.0044
586.9627	0.0057
587.1545	0.0053
587.3464	0.0023
587.5382	0.0041
587.73	0.0108
587.9218	0.0026
588.1136	-0.0024
588.3053	0.0067
588.4971	0.0042
588.6888	0.0006
588.8805	0.0051
589.0722	0.0112
589.2639	0.0072
589.4556	0.0083
589.6472	0.0043
589.8389	0.0084
590.0305	0.003
590.2221	0.0119
590.4137	0.0082
590.6052	-0.0025
590.7968	0.0097
590.9883	0.0052
591.1798	0.0031
591.3713	0.0034
591.5628	0.0025
591.7543	0.0038
591.9458	-0.0029
592.1372	0.0047
592.3286	0.0023
592.52	0.0094
592.7114	0.0039
592.9028	0.0091
593.0941	0.0034
593.2855	0.004
593.4768	0.0065
593.6681	0.0083
593.8594	0.0069
594.0506	-0.0004
594.2419	0.0037
594.4331	0.0005
594.6244	0.0031
594.8156	0.0035
595.0067	-0.0008
595.1979	0.0013
595.3891	0.0041
595.5802	0.0072
595.7713	0.0072
595.9624	0.0065
596.1535	0.008
596.3446	0.0019
596.5357	0.0019
596.7267	0.0148
596.9177	0.0022
597.1087	-0.0038
597.2997	0.0023
597.4907	0.0084
597.6817	0.0093
597.8726	0.0066
598.0635	-0.0011
598.2544	0.0104
598.4453	0.0059
598.6362	0.0045
598.827	0.0023
599.0179	0.0051
599.2087	0.0056
599.3995	0.0068
599.5903	0.0057
599.7811	0.0098
599.9718	0.0018
600.1626	0.0036
600.3533	0.002
600.544	0.0069
600.7347	0.0086
600.9254	0.0078
601.116	0.0049
601.3067	0.0045
601.4973	0.0078
601.6879	0.0073
601.8785	0.0085
602.0691	0.0049
602.2596	0.0029
602.4502	0.0074
602.6407	0.0088
602.8312	0.0075
603.0217	0.0064
603.2122	0.003
603.4027	0.0033
603.5931	0.0072
603.7835	0.0046
603.9739	0.0005
604.1643	0.008
604.3547	0.0118
604.5451	0.0117
604.7354	0.0007
604.9257	-0.0008
605.116	0.0015
605.3063	0.0024
605.4966	-0.0006
605.6869	0.0096
605.8771	0.0093
606.0673	0.0056
606.2575	0.0012
606.4477	0.0081
606.6379	0.001
606.8281	0.0036
607.0182	-0.0005
607.2083	0.0108
607.3985	0.003
607.5885	0.0038
607.7786	0.0066
607.9687	0.0097
608.1587	0.0099
608.3488	0.0103
608.5388	-0.0001
608.7288	-0.0037
608.9187	0.0057
609.1087	0.0096
609.2986	0.0146
609.4886	0.0021
609.6785	0.0083
609.8684	0.0023
610.0582	0.0043
610.2481	-0.0007
610.4379	0.0112
610.6278	0.0022
610.8176	0.0059
611.0074	0.0023
611.1971	0.005
611.3869	0.0141
611.5766	-0.0045
611.7664	0.0122
611.9561	0.0052
612.1458	0.0092
612.3354	0.0098
612.5251	0.0108
612.7147	0.0051
612.9044	-0.0001
613.094	0.0113
613.2836	0.0033
613.4731	0.006
613.6627	0.0134
613.8522	0.0085
614.0417	0.0055
614.2313	0.0062
614.4207	0.0039
614.6102	0.0103
614.7997	0.0137
614.9891	0.0022
615.1785	0.0032
615.3679	0.0098
615.5573	0.0091
615.7467	-0.0004
615.9361	0.0002
616.1254	0.0039
616.3147	0.0081
616.504	0.0036
616.6933	0.0036
616.8826	0.0006
617.0718	0.0066
617.2611	0.0026
617.4503	0.002
617.6395	0.0041
617.8287	0.007
618.0179	0.0046
618.207	0.0117
618.3961	-0.004
618.5853	0.0102
618.7744	0.0033
618.9634	0.0079
619.1525	0.0063
619.3416	0.0015
619.5306	0.0068
619.7196	0.0076
619.9086	-0.0031
620.0976	-0.0071
620.2866	0.005
620.4755	-0.0049
620.6645	0.0118
620.8534	0.0072
621.0423	0.009
621.2312	0.0098
621.42	0
621.6089	0.0045
621.7977	0.0047
621.9865	0.0006
622.1753	-0.007
622.3641	-0.0011
622.5529	-0.0009
622.7416	-0.0008
622.9303	-0.0013
623.1191	0.0075
623.3078	0.007
623.4964	0.005
623.6851	0.0068
623.8737	0.0011
624.0624	-0.0008
624.251	0.0032
624.4396	0.0019
624.6282	0.0116
624.8167	0.0041
625.0053	0.0132
625.1938	0.0085
625.3823	0.0049
625.5708	-0.003
625.7593	0.0054
625.9477	0.0085
626.1362	0.0012
626.3246	0.0135
626.513	0.0092
626.7014	0.0023
626.8898	0.0091
627.0781	0.0066
627.2665	0.0011
627.4548	0.0033
627.6431	0.0122
627.8314	0.0136
628.0197	0.0038
628.2079	0.0061
628.3962	0.0091
628.5844	0.0034
628.7726	0.0109
628.9608	0.0074
629.1489	0.0058
629.3371	0.0022
629.5252	0.0007
629.7134	0.0047
629.9015	0.0105
630.0895	0.0016
630.2776	0.0129
630.4657	0.0004
630.6537	0.0153
630.8417	-0.0053
631.0297	0.0049
631.2177	-0.0047
631.4057	0.0106
631.5936	0.0062
631.7815	0.0138
631.9695	0.0224
632.1574	0.0258
632.3452	0.0184
632.5331	0.0049
632.7209	0.0075
632.9088	0.0017
633.0966	0.0269
633.2844	0.003
633.4722	0.006
633.6599	0.0256
633.8477	0.0043
634.0354	0.0258
634.2231	-0.0113
634.4108	0.0019
634.5985	0.0176
634.7861	0.0035
634.9738	-0.0026
635.1614	0.0092
635.349	0.0212
635.5366	0.0117
635.7242	0.0048
635.9117	0.0097
636.0993	0.0151
636.2868	0.0061
636.4743	0.0079
636.6618	0.0022
636.8492	0.0087
637.0367	0.0035
637.2241	0.0149
637.4115	0.0337
637.5989	0.006
637.7863	0.0149
637.9737	0.0065
638.161	0.0059
638.3484	-0.0189
638.5357	0.0057
638.723	0.0131
638.9103	-0.0026
639.0975	-0.0053
639.2848	0.0138
639.472	0.0159
639.6592	0.001
639.8464	0.0092
640.0336	0.0169
640.2208	0.0016
640.4079	-0.014
640.595	-0.0103
640.7821	-0.0077
640.9692	0.0036
641.1563	-0.006
641.3434	0.0103
641.5304	0.0051
641.7174	0.0367
641.9044	-0.007
642.0914	0.0185
642.2784	-0.0035
642.4653	-0.0074
642.6523	0.027
642.8392	0.0038
643.0261	0.0095
643.213	0.0226
643.3999	0.0199
643.5867	-0.0059
643.7735	0.0086
643.9604	0.0224
644.1472	0.0148
644.3339	0.0186
644.5207	-0.0007
644.7075	0.0039
644.8942	0
645.0809	0.011
645.2676	-0.0046
645.4543	0.0083
645.6409	0.0248
645.8276	0.0245
646.0142	0.0185
646.2008	0.0033
646.3874	-0.0171
646.574	0.007
646.7605	0.0182
646.9471	0.0006
647.1336	0.004
647.3201	0.007
647.5066	-0.0017
647.6931	0.0068
647.8795	-0.0094
648.0659	-0.0045
648.2524	0.0115
648.4388	0.0242
648.6252	0.0031
648.8115	0.002
648.9979	0.0195
649.1842	0.0075
649.3705	0.005
649.5568	-0.0139
649.7431	-0.0064
649.9294	-0.0088
650.1156	-0.0117
650.3018	0.0039
650.488	0.0093
650.6742	0.0344
650.8604	-0.0007
651.0466	0.0112
651.2327	0.0071
651.4188	0.0103
651.6049	0.0256
651.791	0.0069
651.9771	0.0073
652.1632	0.0193
652.3492	0.0053
652.5352	0.0149
652.7212	-0.0089
652.9072	-0.0012
653.0932	0.0065
653.2791	0.0186
653.465	0.0199
653.651	0.0048
653.8369	0.0111
654.0227	-0.0046
654.2086	0.0092
654.3944	0.0018
654.5803	0.0087
654.7661	0.0081
654.9519	-0.0019
655.1377	0.0001
655.3234	0.0001
655.5092	0.0001
655.6949	0.0001
655.8806	0.0001
656.0663	0.0001
656.2519	0.0001
656.4376	0.0001
656.6232	0.0001
656.8088	0.0001
656.9945	0.0001
657.18	0.0001
657.3656	0.0001
657.5511	0.0001
657.7367	0.0001
657.9222	0.0001
658.1077	0.0001
658.2932	0.0001
658.4786	0.0001
658.6641	0.0001
658.8495	0.0001
659.0349	0.0001
659.2203	0.0001
659.4057	0.0001
659.591	0.1223
659.7764	0.0252
659.9617	0.0046
660.147	-0.009
660.3323	0.0063
660.5176	0.0149
660.7028	-0.008
660.888	0.0028
661.0733	0.018
661.2585	-0.0078
661.4436	0.0057
661.6288	0.0176
661.8139	0.0026
661.9991	-0.0017
662.1842	-0.0042
662.3693	-0.002
662.5544	0.0236
662.7394	0.0174
662.9245	0.0009
663.1095	-0.0073
663.2945	-0.0116
663.4795	-0.0113
663.6644	0.007
663.8494	0.0066
664.0343	0.0201
664.2193	0.0067
664.4042	0.0134
664.589	-0.0036
664.7739	0.0094
664.9587	-0.0068
665.1436	-0.0134
665.3284	0.0061
665.5132	-0.0088
665.698	0.0108
665.8827	-0.0094
666.0675	-0.0118
666.2522	0.0203
666.4369	-0.0159
666.6216	0.017
666.8063	0.0093
666.9909	-0.0043
667.1756	0.0141
667.3602	-0.0132
667.5448	0.0163
667.7294	0.0104
667.9139	0.0225
668.0985	0.0024
668.283	0.0073
668.4675	0.0231
668.652	0.0205
668.8365	0.0064
669.0209	0.0108
669.2054	0.0061
669.3898	0.0109
669.5742	0.0197
669.7586	-0.0044
669.943	0.0019
670.1273	0.0004
670.3117	0.0096
670.496	0.0078
670.6803	0.0177
670.8646	-0.0111
671.0488	0.0083
671.2331	-0.0164
671.4173	0.0157
671.6015	0.0094
671.7857	0.0194
671.9699	0.0173
672.1541	0.0011
672.3382	-0.0043
672.5223	0.0002
672.7064	0.0196
672.8905	0
673.0746	0.0018
673.2587	0.0155
673.4427	-0.0024
673.6267	-0.0064
673.8107	0.024
673.9947	0.0224
674.1787	0.0019
674.3626	0.0115
674.5465	0.0364
674.7304	0.0007
674.9143	-0.0069
675.0982	0.0122
675.2821	0.0117
675.4659	0.0174
675.6497	0.014
675.8335	-0.0085
676.0173	-0.0162
676.2011	0.0097
676.3849	0.0048
676.5686	0.044
676.7523	-0.0022
676.936	0.0099
677.1197	0.0186
677.3034	0.0259
677.487	0.0078
677.6706	-0.0002
677.8542	-0.0069
678.0378	0.0089
678.2214	0.0204
678.405	0.0122
678.5885	0.0104
678.772	-0.0085
678.9555	0.0089
679.139	0.0022
679.3225	0.0111
679.5059	0.0052
679.6894	-0.0042
679.8728	0.0064
680.0562	-0.0002
680.2395	0.0055
680.4229	-0.0132
680.6062	0.0145
680.7896	-0.0075
680.9729	0.0285
681.1562	0.0017
681.3394	-0.0042
681.5227	0.0033
681.7059	0.0185
681.8891	0.0122
682.0723	0.0012
682.2555	-0.004
682.4387	0.0311
682.6218	0.0139
682.805	0.0278
682.9881	-0.0005
683.1712	-0.0038
683.3542	0.0154
683.5373	-0.017
683.7203	0.0142
683.9034	0.0038
684.0864	-0.0033
684.2694	0.007
684.4523	-0.0009
684.6353	-0.0036
684.8182	-0.0085
685.0011	-0.0006
685.184	0.0108
685.3669	0.0218
685.5498	0.0109
685.7326	0.0019
685.9154	-0.0059
686.0982	0.015
686.281	0.0062
686.4638	0.0137
686.6465	-0.0075
686.8293	-0.0014
687.012	0.0072
687.1947	0.0013
687.3774	0.0167
687.56	0.0037
687.7427	0.0075
687.9253	-0.0246
688.1079	0.0003
688.2905	0.0111
688.4731	-0.0022
688.6556	0.0057
688.8382	-0.0154
689.0207	0.0219
689.2032	0.0233
689.3857	0.0043
689.5681	0.0034
689.7506	0.0266
689.933	-0.0115
690.1154	0.004
690.2978	-0.0093
690.4802	0.0131
690.6626	0.0007
690.8449	0.0007
691.0272	0.0032
691.2095	-0.0058
691.3918	0.0131
691.5741	0.0114
691.7563	0.0126
691.9386	0.0182
692.1208	0.0155
692.303	0.0041
692.4852	-0.0096
692.6673	0.0036
692.8495	0.0032
693.0316	0.0036
693.2137	0.0277
693.3958	0.0206
693.5778	-0.002
693.7599	-0.0006
693.9419	0.0035
694.1239	-0.0034
694.3059	0.0001
694.4879	0.0127
694.6699	-0.0131
694.8518	0.0128
695.0337	0.0107
695.2157	0.0081
695.3975	-0.01
695.5794	0.0133
695.7613	0.0021
695.9431	0.0056
696.1249	0.0192
696.3067	-0.0108
696.4885	0.0208
696.6703	0.001
696.852	-0.0017
697.0337	0.0253
697.2154	0.0229
697.3971	0.0044
697.5788	0.0137
697.7605	0.0093
697.9421	0.0183
698.1237	0.0078
698.3053	0.0006
698.4869	0.0136
698.6685	-0.0085
698.85	0.0155
699.0315	-0.0064
699.213	0.0288
699.3945	0.0038
699.576	0.0097
699.7575	0.0329
699.9389	-0.0023
700.1203	0.0371
700.3017	0.014
700.4831	0.0193
700.6645	0.0292
700.8458	-0.0058
701.0271	0.0326
701.2084	0.02
701.3897	-0.0055
701.571	-0.0097
701.7523	-0.0085
701.9335	0.0226
702.1147	0.0308
702.2959	-0.0072
702.4771	0.013
702.6583	-0.0006
702.8394	-0.0264
703.0205	0.0234
703.2016	0.0169
703.3827	-0.0106
703.5638	0.023
703.7449	0.0331
703.9259	0.0084
704.1069	-0.0203
704.2879	0.025
704.4689	0.0162
704.6499	0.0093
704.8308	0.0066
705.0117	0.0146
705.1927	0.043
705.3735	0.0228
705.5544	0.0055
705.7353	0.015
705.9161	-0.0182
706.0969	-0.0082
706.2777	0.011
706.4585	0.0034
706.6393	0.0247
706.82	0.0121
707.0007	-0.0073
707.1815	0.0071
707.3621	0.0425
707.5428	0.0115
707.7235	0.0219
707.9041	0.0081
708.0847	-0.0082
708.2653	0.0137
708.4459	0.0217
708.6265	-0.0056
708.807	0.0056
708.9875	-0.0057
709.168	0.0018
709.3485	0.0042
709.529	0.0174
709.7095	-0.0121
709.8899	-0.0038
710.0703	0.0117
710.2507	-0.0006
710.4311	-0.0193
710.6115	0.0255
710.7918	0.0271
710.9721	0.0028
711.1524	-0.0184
711.3327	-0.0093
711.513	-0.0015
711.6932	0.0009
711.8735	0.028
712.0537	-0.0411
712.2339	0.0099
712.4141	0.0375
712.5942	-0.0068
712.7744	0.0155
712.9545	0.018
713.1346	0.031
713.3147	0
713.4947	-0.0054
713.6748	0.011
713.8548	0.0229
714.0348	0.0239
714.2148	0.0096
714.3948	0
714.5748	0.0398
714.7547	0.0213
714.9346	0.0323
715.1145	-0.0069
715.2944	-0.0102
715.4743	0.025
715.6541	-0.008
715.834	0.0343
716.0138	0.0306
716.1936	-0.0094
716.3733	0.0061
716.5531	0.0137
716.7328	0.0202
716.9126	0.0016
717.0923	0.0127
717.2719	0.0177
717.4516	0.0385
717.6312	-0.0128
717.8109	0.0499
717.9905	0.0103
718.1701	0.0131
718.3496	-0.0077
718.5292	0.0092
718.7087	0.0137
718.8882	0.011
719.0677	0.0288
719.2472	0.0155
719.4267	-0.0044
719.6061	-0.0142
719.7856	0.045
719.965	0.0094
720.1443	0.0116
720.3237	0.0096
720.5031	0.0207
720.6824	0.0124
720.8617	0.0072
721.041	0.0306
721.2203	0.0182
721.3995	0.0047
721.5788	0.0153
721.758	0.0026
721.9372	0.0148
722.1164	-0.0282
722.2956	0.018
722.4747	0.0257
722.6538	0.0067
722.8329	0.023
723.012	0.0263
723.1911	0.0026
723.3702	0.0365
723.5492	-0.0176
723.7282	0.0061
723.9072	0.0309
724.0862	-0.0161
724.2652	0.007
724.4441	-0.0195
724.623	0.0103
724.8019	0.0105
724.9808	0.0221
725.1597	0.0139
725.3385	-0.0116
725.5174	0.0076
725.6962	0.0203
725.875	0.0108
726.0538	-0.0034
726.2325	0.0225
726.4112	-0.0114
726.59	-0.0064
726.7687	0.0051
726.9474	0.0203
727.126	0.023
727.3047	-0.0062
727.4833	0.01
727.6619	-0.0168
727.8405	0.009
728.0191	0.0173
728.1976	0.0137
728.3762	-0.0088
728.5547	0.0052
728.7332	0.0095
728.9116	0.009
729.0901	-0.0021
729.2686	0.0077
729.447	0.008
729.6254	0.0134
729.8038	-0.0163
729.9821	-0.0172
730.1605	0.0139
730.3388	0.0125
730.5171	0.0077
730.6954	0.0015
730.8737	0.0136
731.0519	-0.0115
731.2302	0.0289
731.4084	-0.0122
731.5866	0.0068
731.7648	-0.0053
731.9429	0.0091
732.1211	-0.0087
732.2992	-0.0008
732.4773	-0.0053
732.6554	-0.0042
732.8335	0.0464
733.0115	0.0014
733.1896	0.003
733.3676	0.0478
733.5456	0.0039
733.7235	0.0034
733.9015	0.0095
734.0794	0.0193
734.2574	-0.0049
734.4353	0.0144
734.6131	-0.0038
734.791	0.002
734.9689	-0.0048
735.1467	-0.0016
735.3245	0.0195
735.5023	0.0197
735.68	0.0117
735.8578	0.0022
736.0355	0.01
736.2132	-0.0029
736.3909	0.0054
736.5686	-0.0067
736.7463	-0.0143
736.9239	0.0181
737.1015	0.0138
737.2791	0.0323
737.4567	-0.0143
737.6343	0.0131
737.8118	0.018
737.9894	0.025
738.1669	0.0119
738.3444	0.0359
738.5218	-0.0237
738.6993	0.0228
738.8767	-0.0024
739.0541	-0.0059
739.2315	-0.0036
739.4089	0.0242
739.5863	-0.005
739.7636	0.0095
739.9409	0.0059
740.1182	0.0028
740.2955	0.0159
740.4728	-0.0169
740.65	-0.0204
740.8272	-0.0019
741.0044	0.0113
741.1816	0.0182
741.3588	-0.0352
741.5359	0.0174
741.7131	-0.024
741.8902	0.0055
742.0673	-0.0367
742.2444	0.0206
742.4214	0.0119
742.5985	-0.0163
742.7755	0.0044
742.9525	-0.015
743.1295	-0.022
743.3064	0.0129
743.4834	0.0309
743.6603	0.0124
743.8372	0.0022
744.0141	0.006
744.191	0.0119
744.3678	-0.0209
744.5446	0.0083
744.7215	0.0127
744.8982	0.0165
745.075	0.046
745.2518	0.0186
745.4285	0.0153
745.6052	-0.0106
745.7819	-0.0087
745.9586	0.0096
746.1353	0.0011
746.3119	-0.0055
746.4885	0.0186
746.6651	-0.0051
746.8417	-0.0004
747.0183	0.0309
747.1948	-0.0017
747.3714	0.0193
747.5479	0.0176
747.7244	-0.0055
747.9008	-0.0232
748.0773	0.0554
748.2537	0.0417
748.4301	0.0307
748.6065	-0.0241
748.7829	-0.0151
748.9593	-0.0094
749.1356	0.0014
749.3119	0.0058
749.4882	0.0093
749.6645	0.0095
749.8408	0.0153
750.017	0.0213
750.1933	-0.0214
750.3695	0.002
750.5457	-0.0047
750.7218	-0.0171
750.898	-0.002
751.0741	-0.0025
751.2502	0.0072
751.4263	-0.0115
751.6024	0.0099
751.7784	0.0004
751.9545	0.009
752.1305	0.0085
752.3065	0.0348
752.4825	-0.0082
752.6584	-0.0104
752.8344	0.006
753.0103	-0.0295
753.1862	0.0191
753.3621	0.0066
753.5379	-0.0102
753.7138	0.0266
753.8896	0.0096
754.0654	0.0074
754.2412	0.0199
754.417	0.0075
754.5927	-0.008
754.7685	0.0208
754.9442	0.008
755.1199	0.0326
755.2956	0.0081
755.4712	-0.0064
755.6469	0.0123
755.8225	0.0093
755.9981	0.0232
756.1736	0.0072
756.3492	-0.0131
756.5248	0.0155
756.7003	0.0103
756.8758	0.0091
757.0513	0.0061
757.2267	0.0118
757.4022	-0.0105
757.5776	-0.0061
757.753	0.0182
757.9284	0.0101
758.1038	0.0188
758.2791	0.019
758.4545	-0.008
758.6298	0.0054
758.8051	0.0132
758.9803	0.0136
759.1556	0.0058
759.3308	0.0119
759.506	-0.0048
759.6812	0.017
759.8564	-0.0062
760.0316	0.0006
760.2067	0.0133
760.3819	0.0039
760.557	-0.0035
760.732	0.0039
760.9071	0.0224
761.0821	0.0006
761.2572	0.0158
761.4322	0.0154
761.6072	-0.001
761.7821	-0.0242
761.9571	0.0084
762.132	0.0227
762.3069	0.0276
762.4818	0.014
762.6567	-0.0083
762.8316	0.0422
763.0064	0.0132
763.1812	0.0043
763.356	-0.0062
763.5308	0.027
763.7055	-0.0128
763.8803	0.0088
764.055	-0.0085
764.2297	-0.0186
764.4044	0.0009
764.579	0.0171
764.7537	0.0033
764.9283	0.0151
765.1029	0.0164
765.2775	0.0021
765.4521	0.0015
765.6266	-0.0071
765.8011	0.0007
765.9756	-0.0053
766.1501	-0.0008
766.3246	0.0374
766.4991	0.0142
766.6735	0.0436
766.8479	0.0214
767.0223	-0.0059
767.1967	0.0127
767.371	0.0244
767.5454	-0.0009
767.7197	0.0505
767.894	0.0086
768.0683	0.0287
768.2425	0.0183
768.4168	0.0078
768.591	0.0103
768.7652	-0.0018
768.9394	0.0017
769.1135	0.0097
769.2877	0.025
769.4618	0.0463
769.6359	-0.0057
769.81	0.0034
769.984	0.0065
770.1581	0.0118
770.3321	0.0321
770.5061	-0.0039
770.6801	0.0184
770.8541	0.0307
771.028	0.0209
771.202	0.0257
771.3759	-0.0049
771.5498	0.0282
771.7236	0.0059
771.8975	0.0337
772.0713	-0.0081
772.2451	-0.0292
772.4189	0.0179
772.5927	-0.043
772.7665	0.0253
772.9402	0.0243
773.1139	-0.0103
773.2876	0.0067
773.4613	0.0185
773.635	0.0432
773.8086	0.0109
773.9822	0.0203
774.1558	0.0249
774.3294	-0.0351
774.503	0.0309
774.6765	0.0583
774.8501	0.0001
775.0236	0.0195
775.1971	-0.0067
775.3705	-0.0045
775.544	-0.0468
775.7174	0.0359
775.8908	0.0152
776.0642	0.0126
776.2376	0.0794
776.4109	0.0303
776.5843	0.0135
776.7576	-0.0024
776.9309	-0.0057
777.1041	-0.0095
777.2774	0.0026
777.4506	0.0386
777.6238	0.0171
777.797	0.0022
777.9702	0.0299
778.1434	0.0171
778.3165	-0.0285
778.4896	-0.0246
778.6627	0.0096
778.8358	0.0227
779.0089	0.0043
779.1819	0.0465
779.3549	-0.013
779.5279	-0.0233
779.7009	0.0256
779.8739	0.0768
780.0468	-0.0006
780.2197	0.0035
780.3926	-0.0128
780.5655	0.0359
780.7384	0.0132
780.9112	0.0048
781.0841	0.0038
781.2569	0.0046
781.4297	0.0074
781.6024	0.0292
781.7752	0.038
781.9479	0.0418
782.1206	0.0268
782.2933	0.0246
782.466	0.0315
782.6386	0.0224
782.8113	-0.0361
782.9839	0.0096
783.1565	-0.0059
783.329	-0.0057
783.5016	0.0134
783.6741	0.0252
783.8466	0.0241
784.0191	-0.0107
784.1916	-0.0207
784.3641	-0.044
784.5365	0.0125
784.7089	0.0018
784.8813	0.0535
785.0537	0.0049
785.2261	0.0167
785.3984	-0.0094
785.5707	-0.0036
785.743	0.0318
785.9153	-0.0021
786.0876	-0.03
786.2598	-0.0167
786.432	0.0176
786.6042	0.0471
786.7764	0.0058
786.9486	0.0022
787.1207	0.0355
787.2928	0.047
787.4649	0.006
787.637	0.0108
787.8091	-0.0017
787.9811	0.0141
788.1532	0.0123
788.3252	0.0191
788.4972	0.0084
788.6691	0.0102
788.8411	0.0043
789.013	0.0051
789.1849	0.0131
789.3568	0.0033
789.5287	0.0741
789.7005	0.0107
789.8723	-0.0358
790.0442	-0.0388
790.2159	-0.0039
790.3877	-0.0034
790.5595	0.0107
790.7312	-0.0155
790.9029	-0.0039
791.0746	-0.024
791.2463	-0.029
791.4179	-0.0214
791.5896	0.0121
791.7612	0.0144
791.9328	-0.0229
792.1044	0.0082
792.2759	-0.0262
792.4474	-0.0269
792.619	0.0152
792.7905	0.0248
792.9619	0.066
793.1334	0.0537
793.3048	0.046
793.4762	-0.022
793.6476	-0.003
793.819	0.0227
793.9904	0.0007
794.1617	-0.0194
794.333	0.0007
794.5043	-0.0022
794.6756	-0.0068
794.8469	0.0025
795.0181	0.0039
795.1893	0.0317
795.3605	0.0291
795.5317	0.0098
795.7029	0.0121
795.874	-0.019
796.0452	0.0253
796.2163	0.0423
796.3873	0.0139
796.5584	0.046
796.7294	0.036
796.9005	0.0369
797.0715	-0.0573
797.2425	0.0637
797.4134	0.0612
797.5844	0.0166
797.7553	-0.0719
797.9262	0.0159
798.0971	0.1001
798.2679	-0.0058
798.4388	0.0329
798.6096	0.0299
798.7804	-0.007
798.9512	0.0061
799.122	-0.0414
799.2927	0.0927
799.4635	-0.0462
799.6342	-0.0664
799.8049	-0.0377
799.9755	-0.0385
800.1462	0.0728
800.3168	0.0232
800.4874	-0.0943
800.658	0.0711
800.8286	-0.0268
800.9991	-0.0344
801.1696	-0.0211
801.3402	0.0003
801.5106	-0.0512
801.6811	-0.005
801.8516	0.0352
802.022	0.006
802.1924	-0.0544
802.3628	0.0613
802.5332	0.0317
802.7035	0.1303
802.8739	0.0389
803.0442	-0.0557
803.2145	0.0036
803.3847	0.0582
803.555	0.0767
803.7252	-0.0436
803.8954	-0.0221
804.0656	0.0267
804.2358	0.0247
804.4059	0.0477
804.5761	0.0634
804.7462	-0.0593
804.9163	0.0555
805.0864	-0.0673
805.2564	-0.0646
805.4264	0.0003
805.5965	0.0687
805.7665	-0.022
805.9364	0.0145
806.1064	-0.0378
806.2763	0.0194
806.4462	0.0143
806.6161	0.0144
806.786	0.0499
806.9559	-0.0104
807.1257	0.0063
807.2955	-0.0109
807.4653	0.0349
807.6351	-0.001
807.8048	0.0664
807.9746	0.0716
808.1443	-0.0144
808.314	0.0419
808.4837	0.0793
808.6533	0.0066
808.8229	0.0016
808.9926	0.003
809.1622	0.0673
809.3317	-0.0591
809.5013	0.0306
809.6708	-0.024
809.8403	0.0723
810.0098	-0.012
810.1793	0.0046
810.3488	0.0449
810.5182	0.132
810.6876	0.1407
810.857	0.128
811.0264	-0.1385
811.1958	0.082
811.3651	0.0075
811.5344	0.0547
811.7037	0.0683
811.873	0.1233
812.0422	-0.0024
812.2115	-0.1295
812.3807	-0.1208
812.5499	0.019
812.7191	0.0353
812.8882	-0.0769
813.0574	-0.0048
813.2265	-0.046
813.3956	-0.047
813.5646	0.0798
813.7337	-0.0488
813.9027	-0.0017
814.0718	0.1521
814.2407	0.0166
814.4097	0.0854
814.5787	0.1266
814.7476	-0.0252
814.9165	0.0966
815.0854	-0.0272
815.2543	-0.0566
815.4232	0.0551
815.592	0.1318
815.7608	-0.2123
815.9296	0.0061
816.0984	0.3725
816.2671	-0.2068
816.4359	0.0933
816.6046	0.1032
816.7733	0.0181
816.942	-0.1161
817.1106	0.0619
817.2793	0.0182
817.4479	0.0028
817.6165	-0.0016
817.785	-0.0151
817.9536	-0.0968
818.1221	0.0237
818.2906	0.0695
818.4591	0.0675
818.6276	-0.0695
818.7961	0.0884
818.9645	0.1166
819.1329	0.0993
819.3013	0.0476
819.4697	-0.0878
819.638	0.1372
819.8064	-0.0187
819.9747	0.0207
820.143	-0.0951
820.3113	-0.0026
820.4795	-0.0386
820.6477	-0.0065
820.816	0.0713
820.9842	0.0709
821.1523	-0.0065
821.3205	-0.0421
821.4886	0.0192
821.6567	0.0303
821.8248	0.0663
821.9929	-0.1986
822.1609	-0.041
822.329	0.0249
822.497	-0.0235
822.665	-0.0366
822.833	0.0006
823.0009	0.0185
823.1688	0.1279
823.3367	-0.0933
823.5046	-0.0311
823.6725	-0.049
823.8404	0.1688
824.0082	0.0041
824.176	-0.0936
824.3438	0.0574
824.5116	-0.0864
824.6793	0.242
824.847	-0.1461
825.0147	0.0176
825.1824	-0.0744
825.3501	-0.014
825.5177	-0.0701
825.6854	-0.0772
825.853	0.0726
826.0206	0.0153
826.1881	0.089
826.3557	-0.0029
826.5232	0.2611
826.6907	0.0476
826.8582	-0.0846
827.0257	0.2012
827.1931	0.0691
827.3605	-0.0361
827.528	0.0333
827.6953	-0.2332
827.8627	-0.1277
828.03	0.068
828.1974	0.0391
828.3647	-0.0717
828.532	0.0625
828.6992	0.2022
828.8665	-0.1213
829.0337	0.1263
829.2009	-0.1643
829.3681	-0.0026
829.5352	0.0953
829.7024	0.381
829.8695	0.0617
830.0366	0.1068
830.2037	0.1855
830.3707	0.0359
830.5378	0.2381
830.7048	0.0552
830.8718	0.0659
831.0388	0.1526
831.2057	-0.0619
831.3727	-0.3577
831.5396	-0.0319
831.7065	-0.6569
831.8734	0.1666
832.0402	0.0832
832.2071	-0.2867
832.3739	-0.1686
832.5407	-0
832.7075	-0.4755
832.8742	0.0704
833.041	0.1883
833.2077	0.4449
833.3744	-0.1104
833.541	-0.0911
833.7077	-0.0574
833.8743	0.1265
834.0409	0.0144
834.2075	0.2294
834.3741	-0.3123
834.5407	-0.03
834.7072	-0.0894
834.8737	0.195
835.0402	0.5221
835.2067	-0.0309
835.3731	-0.05
835.5395	-0.1376
835.706	-0.4621
835.8723	-0.0846
836.0387	0.0268
836.2051	0.1225
836.3714	0.8294
836.5377	-0.1461
836.704	0.3232
836.8703	-0.1285
837.0365	-0.8559
837.2027	0.1414
837.3689	0.3711
837.5351	0.1392
837.7013	0.5117
837.8674	-0.508
838.0335	-0.062
838.1997	-0.0525
838.3657	0.0483
838.5318	-0.5379
838.6978	0.9519
838.8639	-0.6253
839.0299	0.0011
839.1958	0.1805
839.3618	-0
839.5277	0.1336
839.6937	-0.2225
839.8596	-0.3847
840.0254	-0.0465
840.1913	0.5833
840.3571	-0.2323
840.523	-0
840.6888	0.0465
840.8545	-0.6101
841.0203	0.0893
841.186	-0.0674
841.3517	-0.1057
841.5174	0.1504
841.6831	-0.1329
841.8488	0.1512
842.0144	0.5916
842.18	2.3467
842.3456	-0.5478
842.5112	-0
842.6767	-0.1065
842.8422	0.1286
843.0077	-0.1179
843.1732	-0.1696
843.3387	-0.2065
843.5042	-0
843.6696	0.3621
843.835	0.3236
844.0004	-0.3504
844.1657	0.0483
844.3311	-0.195
844.4964	-0.1603
844.6617	0.0086
844.827	-0
844.9923	0.1639
845.1575	0.5354
845.3227	0.8005
845.4879	0.1254
845.6531	0.5834
845.8183	0.2394
845.9834	-0.1254
846.1485	0.3156
846.3136	-0.2062
846.4787	0.6454
846.6438	0.0022
846.8088	-0
846.9738	-0
847.1388	0.2212
847.3038	0.9193
847.4687	0.2796
847.6337	-0.7344
847.7986	-0.1812
847.9635	0.0127
848.1284	2.1697
848.2932	0.6509
848.458	-0
848.6228	-0
848.7876	-0
848.9524	0.2079
849.1172	-1.8186
849.2819	-0.6488
849.4466	0.2817
849.6113	-0.0663
849.7759	-0.1461
849.9406	0.0548
850.1052	-1.3496
850.2698	-0
850.4344	-0.5887
850.599	0.0023
850.7635	0.1427
850.928	0.2589
851.0925	0.2294
851.257	0.7793
851.4215	0.5603
851.5859	0.0688
851.7503	-0
851.9147	-0
852.0791	0.0868
852.2434	0.6354
852.4078	-0
852.5721	0.0929
852.7364	0.2494
852.9007	-0.0483
853.0649	-0
853.2291	0.4802
853.3934	-0.2343
853.5575	-0.3194
853.7217	0.353
853.8859	-0.2163
854.05	-0.3162
854.2141	-0
854.3782	0.1927
854.5423	-0.5772
854.7063	0.119
854.8703	0.2772
855.0343	0.6465
855.1983	0.5193
855.3623	-0.0965
855.5262	-0
855.6901	-0
855.854	0.0445
856.0179	0.7069
856.1818	-0
856.3456	0.5555
856.5094	0.0634
856.6732	-0
856.837	-1.205
857.0008	-0.6939
857.1645	-0
857.3282	-0.258
857.4919	0.1836
857.6556	-0.4488
857.8192	-0.1051
857.9828	-0.0611
858.1465	-0.1677
858.31	-0
858.4736	-0.4069
858.6372	0.2514
858.8007	1.0053
858.9642	0.2827
859.1277	0.7985
859.2911	-0.4646
859.4546	-0
859.618	-0.0663
859.7814	-0.3307
859.9448	-0
860.1081	-0
860.2715	-1.3929
860.4348	-0.2622
860.5981	1.3919
860.7614	-0
860.9246	0.2161
861.0879	-0
861.2511	-0.4547
861.4143	-0
861.5774	0.1497
861.7406	0.0034
861.9037	-0
862.0668	-0.8219
862.2299	0.531
862.393	-0
862.556	-0.5318
862.7191	-0.0955
862.8821	0.0983
863.0451	0.051
863.208	-0.4494
863.371	-0
863.5339	0.4073
863.6968	0.1252
863.8597	-0.3565
864.0225	-0
864.1854	-0.0041
864.3482	-0
864.511	-0.2602
864.6737	-0
864.8365	-0.0483
864.9992	-0
865.1619	0.0047
865.3246	-0
865.4873	-0
865.65	0.5798
865.8126	-0.172
865.9752	0.2318
866.1378	0.299
866.3004	-0.1914
866.4629	-1.7833
866.6254	0.1936
866.7879	-0.3037
866.9504	-0
867.1129	-0.1867
867.2753	-0.3185
867.4377	0.1461
867.6001	-0.6381
867.7625	-0.0964
867.9249	0.9706
868.0872	-0.0679
868.2495	0.1924
868.4118	-0
868.5741	-0
868.7363	-0
868.8986	-0
869.0608	0.2909
869.223	-0.676
869.3851	-0
869.5473	0.1548
869.7094	-0
869.8715	-0
870.0336	0.1494
870.1957	0.334
870.3577	0.2914
870.5197	0.0251
870.6817	-0.7661
870.8437	-0.0925
871.0057	0.8527
871.1676	0.1959
871.3295	-0.4038
871.4914	-0
871.6533	-0.5215
871.8151	-0.1504
871.977	0.4589
872.1388	0.0037
872.3006	0.0058
872.4623	-0
872.6241	-0
872.7858	-0
872.9475	-0
873.1092	-0.0922
873.2709	0.5076
873.4325	-1.3281
873.5941	-0
873.7557	-0
873.9173	0.1611
874.0789	0.0739
874.2404	0.3301
874.4019	0.0416
874.5634	-0
874.7249	-0
874.8863	-0
875.0478	-0.0362
875.2092	-0
875.3706	-0
875.5319	-0
875.6933	0.1547
875.8546	-0
876.0159	0.086
876.1772	-0
876.3385	0.1294
876.4997	-0
876.6609	-0.2005
876.8221	-0
876.9833	0.6894
877.1445	0.2484
877.3056	-0
877.4667	-0
877.6278	-0
877.7889	-0.3076
877.9499	-0
878.111	0.005
878.272	-0.2759
878.433	0.3151
878.5939	-0.1939
878.7549	-0.3557
878.9158	0.2669
879.0767	0.5511
879.2376	-0
879.3984	-0
879.5593	0.3826
879.7201	-1.8913
879.8809	0.0317
880.0417	-0.0392
880.2024	0.0202
880.3632	-0.5533
880.5239	0.2113
880.6846	-0
880.8452	0.2321
881.0059	-0
881.1665	0.1009
881.3271	0.7101
881.4877	-0.1
881.6483	-0.9485
881.8088	-0.4966
881.9693	-0
882.1298	-0
882.2903	-0
