Data from D4ACN5uM440nmA_Absorbance_13-50-25-612.txt Node
Date: Fri Feb 21 13:50:25 GMT 2025
User: LASERRRRR
Spectrometer: FLMT03099
Trigger mode: 0
Integration Time (sec): 1.500000E-2
Scans to average: 1
Electric dark correction enabled: true
Nonlinearity correction enabled: false
Boxcar width: 0
XAxis mode: Wavelengths
Number of Pixels in Spectrum: 3648
>>>>>Begin Spectral Data<<<<<
179.3399	-0.5224
179.5586	-0.5224
179.7771	-0.5224
179.9957	-0.1299
180.2143	-1.2448
180.4329	0.1006
180.6514	-0.5985
180.8699	1.9558
181.0885	-0.0441
181.307	0.6347
181.5255	0.1693
181.744	-0.0523
181.9625	0.285
182.181	-0.0835
182.3994	-0.4415
182.6179	-0.6671
182.8363	0.4738
183.0547	0.8961
183.2732	0.1392
183.4916	0.3013
183.71	0.2081
183.9284	0.1552
184.1467	0.7903
184.3651	0.0761
184.5835	0.3176
184.8018	0.0932
185.0201	0.1286
185.2385	0.2551
185.4568	0.0641
185.6751	0.1741
185.8934	0.3716
186.1117	-0.243
186.3299	0.2375
186.5482	0.217
186.7664	0.3597
186.9847	0.011
187.2029	0.2384
187.4211	0.0236
187.6393	0.1897
187.8575	0.2455
188.0757	0.7303
188.2939	-0.0463
188.512	0.2464
188.7302	0.428
188.9483	0.2594
189.1665	0.6373
189.3846	0.1768
189.6027	0.178
189.8208	0.307
190.0389	0.3013
190.257	0.1059
190.475	0.1058
190.6931	0.2167
190.9111	0.2142
191.1292	0.2667
191.3472	0.0836
191.5652	0.2027
191.7832	0.0994
192.0012	0.1065
192.2192	0.229
192.4371	0.1755
192.6551	0.2597
192.873	0.2221
193.091	0.268
193.3089	0.2027
193.5268	0.2357
193.7447	0.2788
193.9626	0.1634
194.1805	0.3361
194.3984	0.3036
194.6162	0.2204
194.8341	0.3258
195.0519	0.2979
195.2697	0.2581
195.4875	0.37
195.7054	0.2575
195.9231	0.2047
196.1409	0.3616
196.3587	0.3404
196.5765	0.3906
196.7942	0.3526
197.012	0.34
197.2297	0.32
197.4474	0.4233
197.6651	0.3243
197.8828	0.3025
198.1005	0.3971
198.3182	0.4559
198.5358	0.4016
198.7535	0.4069
198.9711	0.4129
199.1888	0.3404
199.4064	0.4318
199.624	0.358
199.8416	0.3879
200.0592	0.4075
200.2767	0.4228
200.4943	0.4589
200.7119	0.3885
200.9294	0.3795
201.1469	0.3854
201.3645	0.4966
201.582	0.403
201.7995	0.4222
202.017	0.4144
202.2344	0.414
202.4519	0.3713
202.6694	0.41
202.8868	0.3826
203.1042	0.4108
203.3217	0.3997
203.5391	0.3869
203.7565	0.3774
203.9739	0.3845
204.1913	0.3587
204.4086	0.3652
204.626	0.3969
204.8433	0.3888
205.0607	0.3525
205.278	0.359
205.4953	0.327
205.7126	0.369
205.9299	0.3254
206.1472	0.319
206.3644	0.3538
206.5817	0.3287
206.7989	0.3359
207.0162	0.3346
207.2334	0.312
207.4506	0.324
207.6678	0.3128
207.885	0.2986
208.1022	0.3022
208.3194	0.2851
208.5365	0.3093
208.7537	0.3013
208.9708	0.3122
209.1879	0.3026
209.405	0.271
209.6222	0.2547
209.8392	0.2873
210.0563	0.288
210.2734	0.2568
210.4905	0.2843
210.7075	0.2536
210.9245	0.2524
211.1416	0.2753
211.3586	0.2566
211.5756	0.2511
211.7926	0.273
212.0096	0.268
212.2265	0.2649
212.4435	0.2616
212.6604	0.2583
212.8774	0.2543
213.0943	0.2543
213.3112	0.2395
213.5281	0.2692
213.745	0.2521
213.9619	0.2593
214.1788	0.2619
214.3956	0.2479
214.6125	0.2565
214.8293	0.2489
215.0461	0.244
215.2629	0.2486
215.4798	0.2257
215.6965	0.257
215.9133	0.2357
216.1301	0.2368
216.3469	0.2568
216.5636	0.2558
216.7803	0.2594
216.9971	0.2564
217.2138	0.255
217.4305	0.2592
217.6472	0.2495
217.8639	0.2527
218.0805	0.249
218.2972	0.2457
218.5138	0.2571
218.7305	0.2585
218.9471	0.2534
219.1637	0.2588
219.3803	0.2591
219.5969	0.2488
219.8135	0.2639
220.0301	0.2623
220.2466	0.2502
220.4632	0.2546
220.6797	0.257
220.8962	0.2452
221.1127	0.2645
221.3292	0.2704
221.5457	0.265
221.7622	0.2614
221.9787	0.29
222.1951	0.2782
222.4116	0.271
222.628	0.2853
222.8444	0.2788
223.0608	0.2725
223.2772	0.2811
223.4936	0.2757
223.71	0.2954
223.9264	0.2905
224.1427	0.286
224.3591	0.2983
224.5754	0.2802
224.7917	0.2875
225.008	0.3009
225.2243	0.3015
225.4406	0.2923
225.6569	0.3121
225.8732	0.3123
226.0894	0.3108
226.3057	0.312
226.5219	0.3127
226.7381	0.3249
226.9543	0.3055
227.1705	0.3161
227.3867	0.3222
227.6029	0.3331
227.8191	0.3304
228.0352	0.3432
228.2513	0.348
228.4675	0.3538
228.6836	0.3494
228.8997	0.3516
229.1158	0.3501
229.3319	0.3589
229.548	0.3517
229.764	0.3577
229.9801	0.3788
230.1961	0.3689
230.4121	0.3611
230.6282	0.3779
230.8442	0.3802
231.0602	0.3845
231.2761	0.3786
231.4921	0.3839
231.7081	0.394
231.924	0.3973
232.14	0.4076
232.3559	0.4006
232.5718	0.42
232.7877	0.4123
233.0036	0.4105
233.2195	0.4105
233.4353	0.4171
233.6512	0.4182
233.867	0.4288
234.0829	0.4232
234.2987	0.422
234.5145	0.4402
234.7303	0.4347
234.9461	0.4293
235.1619	0.4293
235.3776	0.4278
235.5934	0.4383
235.8091	0.4445
236.0249	0.4447
236.2406	0.4428
236.4563	0.4426
236.672	0.4382
236.8877	0.4472
237.1034	0.4412
237.319	0.4534
237.5347	0.4488
237.7503	0.444
237.966	0.4535
238.1816	0.4571
238.3972	0.4574
238.6128	0.4691
238.8284	0.4552
239.0439	0.4713
239.2595	0.4549
239.475	0.4627
239.6906	0.4494
239.9061	0.4598
240.1216	0.4532
240.3371	0.4562
240.5526	0.4604
240.7681	0.4561
240.9836	0.4557
241.199	0.4512
241.4145	0.4491
241.6299	0.4438
241.8453	0.4429
242.0607	0.4299
242.2761	0.4385
242.4915	0.4201
242.7069	0.4273
242.9223	0.4138
243.1376	0.416
243.353	0.3971
243.5683	0.3931
243.7836	0.3947
243.9989	0.3804
244.2142	0.3736
244.4295	0.3792
244.6448	0.3663
244.86	0.356
245.0753	0.3403
245.2905	0.3411
245.5057	0.332
245.721	0.3353
245.9362	0.3249
246.1514	0.3229
246.3665	0.3161
246.5817	0.2953
246.7969	0.3077
247.012	0.2965
247.2271	0.2912
247.4423	0.2877
247.6574	0.2858
247.8725	0.2741
248.0876	0.2675
248.3026	0.268
248.5177	0.2571
248.7328	0.2577
248.9478	0.2549
249.1628	0.2507
249.3779	0.2385
249.5929	0.2485
249.8079	0.2353
250.0228	0.2298
250.2378	0.2285
250.4528	0.2273
250.6677	0.2218
250.8827	0.2163
251.0976	0.2086
251.3125	0.2136
251.5274	0.2146
251.7423	0.2127
251.9572	0.2134
252.172	0.2085
252.3869	0.2058
252.6017	0.1985
252.8166	0.2029
253.0314	0.2
253.2462	0.1915
253.461	0.1959
253.6758	0.1953
253.8906	0.1926
254.1053	0.1967
254.3201	0.1963
254.5348	0.1822
254.7496	0.1863
254.9643	0.1964
255.179	0.1869
255.3937	0.1844
255.6083	0.1894
255.823	0.1906
256.0377	0.1845
256.2523	0.1788
256.467	0.1872
256.6816	0.1799
256.8962	0.1877
257.1108	0.1845
257.3254	0.1793
257.54	0.1804
257.7545	0.1831
257.9691	0.1795
258.1836	0.1798
258.3981	0.1829
258.6127	0.1787
258.8272	0.185
259.0417	0.1734
259.2561	0.1762
259.4706	0.1765
259.6851	0.1778
259.8995	0.1769
260.114	0.1784
260.3284	0.1783
260.5428	0.1763
260.7572	0.1694
260.9716	0.1776
261.186	0.1751
261.4003	0.1781
261.6147	0.1769
261.829	0.1727
262.0433	0.1779
262.2577	0.1741
262.472	0.1804
262.6863	0.1852
262.9005	0.178
263.1148	0.1733
263.3291	0.173
263.5433	0.1748
263.7576	0.1827
263.9718	0.1778
264.186	0.1852
264.4002	0.1787
264.6144	0.186
264.8286	0.1803
265.0427	0.1824
265.2569	0.1832
265.471	0.1828
265.6851	0.188
265.8993	0.1826
266.1134	0.1842
266.3275	0.1819
266.5415	0.1789
266.7556	0.1809
266.9697	0.1838
267.1837	0.184
267.3978	0.1844
267.6118	0.178
267.8258	0.1812
268.0398	0.1816
268.2538	0.1817
268.4677	0.183
268.6817	0.1826
268.8957	0.1817
269.1096	0.1784
269.3235	0.1775
269.5374	0.1803
269.7514	0.1796
269.9652	0.1796
270.1791	0.1757
270.393	0.1738
270.6068	0.1756
270.8207	0.1758
271.0345	0.1716
271.2483	0.1694
271.4622	0.1784
271.676	0.1747
271.8897	0.1786
272.1035	0.179
272.3173	0.1749
272.531	0.1732
272.7448	0.1719
272.9585	0.1705
273.1722	0.1702
273.3859	0.1725
273.5996	0.169
273.8133	0.1797
274.0269	0.1736
274.2406	0.1759
274.4542	0.1769
274.6679	0.1768
274.8815	0.1822
275.0951	0.1884
275.3087	0.1867
275.5223	0.181
275.7358	0.1829
275.9494	0.1827
276.1629	0.1839
276.3765	0.187
276.59	0.1788
276.8035	0.1804
277.017	0.182
277.2305	0.1801
277.444	0.1833
277.6574	0.1832
277.8709	0.1887
278.0843	0.1881
278.2978	0.1855
278.5112	0.1811
278.7246	0.1835
278.938	0.1849
279.1513	0.1892
279.3647	0.1839
279.5781	0.1833
279.7914	0.1795
280.0047	0.1872
280.2181	0.1843
280.4314	0.1845
280.6447	0.1951
280.8579	0.1763
281.0712	0.1857
281.2845	0.1767
281.4977	0.1861
281.711	0.1847
281.9242	0.1828
282.1374	0.1835
282.3506	0.1857
282.5638	0.1817
282.7769	0.1787
282.9901	0.1881
283.2033	0.1805
283.4164	0.1785
283.6295	0.1844
283.8426	0.1788
284.0557	0.1899
284.2688	0.1846
284.4819	0.1845
284.695	0.1904
284.908	0.1804
285.1211	0.1851
285.3341	0.1848
285.5471	0.1858
285.7601	0.1869
285.9731	0.181
286.1861	0.1849
286.3991	0.1918
286.612	0.1807
286.825	0.186
287.0379	0.1889
287.2508	0.1877
287.4637	0.1927
287.6766	0.1912
287.8895	0.1877
288.1024	0.1868
288.3152	0.1937
288.5281	0.1886
288.7409	0.1853
288.9538	0.1925
289.1666	0.1868
289.3794	0.1805
289.5922	0.1878
289.8049	0.1874
290.0177	0.1896
290.2304	0.1903
290.4432	0.194
290.6559	0.1878
290.8686	0.1869
291.0813	0.188
291.294	0.1923
291.5067	0.1857
291.7194	0.1943
291.932	0.1855
292.1447	0.1895
292.3573	0.1892
292.5699	0.188
292.7825	0.1881
292.9951	0.1922
293.2077	0.1896
293.4203	0.1952
293.6328	0.1841
293.8454	0.1918
294.0579	0.1852
294.2704	0.1938
294.4829	0.1908
294.6954	0.1934
294.9079	0.1831
295.1204	0.1892
295.3328	0.1941
295.5453	0.19
295.7577	0.1898
295.9701	0.1906
296.1825	0.1945
296.3949	0.1901
296.6073	0.1819
296.8197	0.1891
297.0321	0.1894
297.2444	0.1887
297.4567	0.1896
297.6691	0.1888
297.8814	0.1915
298.0937	0.1899
298.306	0.1923
298.5182	0.198
298.7305	0.1933
298.9428	0.1933
299.155	0.1847
299.3672	0.1875
299.5794	0.1902
299.7916	0.1972
300.0038	0.1903
300.216	0.188
300.4282	0.1886
300.6403	0.1928
300.8525	0.1908
301.0646	0.1899
301.2767	0.1922
301.4888	0.1899
301.7009	0.1924
301.913	0.1917
302.125	0.1917
302.3371	0.1891
302.5491	0.1929
302.7612	0.1954
302.9732	0.1915
303.1852	0.1936
303.3972	0.1906
303.6092	0.1914
303.8211	0.1844
304.0331	0.1902
304.245	0.1907
304.457	0.1882
304.6689	0.1933
304.8808	0.1864
305.0927	0.1903
305.3046	0.1893
305.5164	0.1839
305.7283	0.1792
305.9401	0.1703
306.152	0.1804
306.3638	0.1771
306.5756	0.1854
306.7874	0.1775
306.9992	0.1693
307.2109	0.1722
307.4227	0.1694
307.6344	0.1774
307.8462	0.1715
308.0579	0.1717
308.2696	0.165
308.4813	0.1628
308.693	0.1688
308.9046	0.1644
309.1163	0.1595
309.328	0.1608
309.5396	0.1591
309.7512	0.1568
309.9628	0.1517
310.1744	0.1518
310.386	0.1472
310.5976	0.1513
310.8091	0.1514
311.0207	0.1446
311.2322	0.1458
311.4437	0.1398
311.6552	0.1429
311.8667	0.1501
312.0782	0.142
312.2897	0.1417
312.5012	0.1419
312.7126	0.138
312.924	0.1405
313.1355	0.1398
313.3469	0.1411
313.5583	0.1328
313.7696	0.1312
313.981	0.1413
314.1924	0.1335
314.4037	0.1319
314.6151	0.132
314.8264	0.133
315.0377	0.1329
315.249	0.131
315.4603	0.1292
315.6716	0.1348
315.8828	0.1294
316.0941	0.1306
316.3053	0.1236
316.5165	0.1305
316.7277	0.1271
316.9389	0.1315
317.1501	0.1296
317.3613	0.1285
317.5724	0.1205
317.7836	0.1203
317.9947	0.1259
318.2058	0.1224
318.417	0.1247
318.6281	0.1246
318.8391	0.1255
319.0502	0.1243
319.2613	0.1244
319.4723	0.1261
319.6834	0.1278
319.8944	0.1254
320.1054	0.1276
320.3164	0.1222
320.5274	0.1261
320.7383	0.1252
320.9493	0.1227
321.1602	0.1273
321.3712	0.1289
321.5821	0.1229
321.793	0.1272
322.0039	0.1286
322.2148	0.1271
322.4257	0.124
322.6365	0.122
322.8474	0.129
323.0582	0.1314
323.269	0.1298
323.4798	0.1276
323.6906	0.1261
323.9014	0.125
324.1122	0.1255
324.3229	0.1346
324.5337	0.1319
324.7444	0.1317
324.9551	0.1315
325.1658	0.1252
325.3765	0.1369
325.5872	0.1331
325.7979	0.1331
326.0085	0.1317
326.2192	0.1255
326.4298	0.1311
326.6404	0.1279
326.851	0.1315
327.0616	0.1303
327.2722	0.133
327.4828	0.1308
327.6933	0.1363
327.9039	0.134
328.1144	0.1315
328.3249	0.1384
328.5354	0.133
328.7459	0.1357
328.9564	0.1376
329.1669	0.1426
329.3773	0.1365
329.5878	0.1389
329.7982	0.1373
330.0086	0.1374
330.219	0.135
330.4294	0.1379
330.6398	0.1375
330.8502	0.1477
331.0605	0.1391
331.2708	0.1393
331.4812	0.1364
331.6915	0.1374
331.9018	0.1444
332.1121	0.1425
332.3224	0.1359
332.5326	0.1338
332.7429	0.1391
332.9531	0.1437
333.1633	0.1365
333.3735	0.1343
333.5837	0.14
333.7939	0.1392
334.0041	0.1463
334.2143	0.1393
334.4244	0.1477
334.6346	0.1399
334.8447	0.1422
335.0548	0.1451
335.2649	0.1395
335.475	0.1455
335.685	0.1469
335.8951	0.1293
336.1051	0.1391
336.3152	0.1473
336.5252	0.1401
336.7352	0.1376
336.9452	0.1412
337.1552	0.1372
337.3652	0.1322
337.5751	0.1384
337.7851	0.1368
337.995	0.1349
338.2049	0.142
338.4148	0.1433
338.6247	0.1367
338.8346	0.1396
339.0445	0.1469
339.2543	0.1414
339.4642	0.1435
339.674	0.1433
339.8838	0.1406
340.0936	0.1452
340.3034	0.1385
340.5132	0.1344
340.7229	0.1419
340.9327	0.1552
341.1424	0.1468
341.3522	0.1409
341.5619	0.1474
341.7716	0.1514
341.9813	0.1494
342.1909	0.1443
342.4006	0.1477
342.6102	0.1455
342.8199	0.1522
343.0295	0.1476
343.2391	0.1503
343.4487	0.1568
343.6583	0.1626
343.8679	0.1535
344.0774	0.1503
344.287	0.1601
344.4965	0.1578
344.706	0.1536
344.9155	0.1534
345.125	0.1599
345.3345	0.1679
345.544	0.1673
345.7534	0.1593
345.9629	0.1637
346.1723	0.1628
346.3817	0.1625
346.5911	0.1652
346.8005	0.1712
347.0099	0.1675
347.2193	0.1724
347.4286	0.1657
347.638	0.165
347.8473	0.1717
348.0566	0.1655
348.2659	0.1736
348.4752	0.1754
348.6845	0.1695
348.8937	0.1705
349.103	0.1687
349.3122	0.1747
349.5214	0.1723
349.7306	0.1778
349.9398	0.1678
350.149	0.1769
350.3582	0.1787
350.5674	0.1771
350.7765	0.1784
350.9856	0.1702
351.1948	0.179
351.4039	0.1794
351.613	0.1696
351.822	0.1811
352.0311	0.175
352.2402	0.1794
352.4492	0.1845
352.6582	0.1839
352.8672	0.1785
353.0762	0.182
353.2852	0.1776
353.4942	0.1823
353.7032	0.1752
353.9121	0.1758
354.1211	0.1837
354.33	0.186
354.5389	0.1848
354.7478	0.1823
354.9567	0.1887
355.1655	0.1906
355.3744	0.1804
355.5833	0.184
355.7921	0.1948
356.0009	0.1895
356.2097	0.174
356.4185	0.1804
356.6273	0.181
356.8361	0.1889
357.0448	0.1884
357.2536	0.1899
357.4623	0.1916
357.671	0.1939
357.8797	0.1871
358.0884	0.1866
358.2971	0.1873
358.5057	0.1902
358.7144	0.1922
358.923	0.1955
359.1316	0.1972
359.3402	0.1982
359.5488	0.1923
359.7574	0.1963
359.966	0.1943
360.1746	0.1902
360.3831	0.1994
360.5916	0.1966
360.8002	0.2079
361.0087	0.1972
361.2172	0.2003
361.4256	0.2075
361.6341	0.2014
361.8426	0.2103
362.051	0.209
362.2594	0.1998
362.4678	0.2046
362.6762	0.2084
362.8846	0.21
363.093	0.2101
363.3014	0.2152
363.5097	0.2143
363.718	0.2123
363.9264	0.21
364.1347	0.2096
364.343	0.2265
364.5513	0.2152
364.7595	0.2245
364.9678	0.2242
365.176	0.2283
365.3842	0.2266
365.5925	0.2255
365.8007	0.2208
366.0089	0.2283
366.217	0.2263
366.4252	0.2275
366.6333	0.2235
366.8415	0.2308
367.0496	0.2293
367.2577	0.2351
367.4658	0.2287
367.6739	0.2247
367.882	0.2303
368.09	0.2284
368.2981	0.2432
368.5061	0.2443
368.7141	0.2395
368.9221	0.2365
369.1301	0.2355
369.3381	0.2463
369.5461	0.239
369.754	0.2417
369.962	0.2432
370.1699	0.2415
370.3778	0.2474
370.5857	0.2476
370.7936	0.2503
371.0015	0.2476
371.2093	0.2444
371.4172	0.25
371.625	0.2437
371.8328	0.2359
372.0406	0.2501
372.2484	0.2444
372.4562	0.2472
372.664	0.2499
372.8717	0.2437
373.0795	0.2536
373.2872	0.2559
373.4949	0.2586
373.7026	0.2525
373.9103	0.2495
374.118	0.2635
374.3256	0.257
374.5333	0.246
374.7409	0.2594
374.9485	0.2618
375.1561	0.2637
375.3637	0.2549
375.5713	0.2641
375.7789	0.2584
375.9864	0.2565
376.194	0.2701
376.4015	0.2648
376.609	0.2644
376.8165	0.2732
377.024	0.2636
377.2315	0.272
377.4389	0.2645
377.6464	0.2668
377.8538	0.2656
378.0612	0.2712
378.2686	0.2682
378.476	0.2776
378.6834	0.2635
378.8908	0.268
379.0981	0.2647
379.3055	0.2733
379.5128	0.2735
379.7201	0.2809
379.9274	0.2784
380.1347	0.2839
380.342	0.2834
380.5492	0.2806
380.7565	0.2855
380.9637	0.2829
381.1709	0.2738
381.3781	0.2835
381.5853	0.2822
381.7925	0.2833
381.9997	0.2849
382.2068	0.2907
382.4139	0.2896
382.6211	0.2904
382.8282	0.2883
383.0353	0.2858
383.2424	0.2826
383.4494	0.2806
383.6565	0.2855
383.8635	0.2865
384.0706	0.2925
384.2776	0.2932
384.4846	0.2952
384.6916	0.2915
384.8986	0.2927
385.1055	0.2935
385.3125	0.2848
385.5194	0.2979
385.7263	0.2914
385.9333	0.2986
386.1402	0.2872
386.347	0.287
386.5539	0.2908
386.7608	0.2988
386.9676	0.2873
387.1744	0.2912
387.3813	0.2891
387.5881	0.2916
387.7948	0.3001
388.0016	0.2926
388.2084	0.2883
388.4151	0.2863
388.6219	0.2808
388.8286	0.2824
389.0353	0.2942
389.242	0.292
389.4487	0.2804
389.6553	0.28
389.862	0.2737
390.0686	0.2863
390.2753	0.2841
390.4819	0.2835
390.6885	0.2771
390.8951	0.2837
391.1016	0.2825
391.3082	0.2899
391.5147	0.276
391.7213	0.274
391.9278	0.2687
392.1343	0.2766
392.3408	0.281
392.5473	0.2745
392.7537	0.2746
392.9602	0.2663
393.1666	0.2738
393.373	0.2673
393.5794	0.2752
393.7858	0.2818
393.9922	0.2743
394.1986	0.2655
394.4049	0.2648
394.6113	0.2694
394.8176	0.2675
395.0239	0.2636
395.2302	0.2673
395.4365	0.2642
395.6428	0.2592
395.8491	0.2651
396.0553	0.251
396.2615	0.2568
396.4678	0.2526
396.674	0.2505
396.8802	0.2613
397.0863	0.2464
397.2925	0.2565
397.4987	0.2523
397.7048	0.2552
397.9109	0.2488
398.117	0.2458
398.3231	0.24
398.5292	0.2442
398.7353	0.2469
398.9413	0.2524
399.1474	0.2487
399.3534	0.2465
399.5594	0.2474
399.7654	0.2497
399.9714	0.258
400.1774	0.2447
400.3833	0.2418
400.5893	0.2391
400.7952	0.2562
401.0011	0.2431
401.207	0.2489
401.4129	0.2483
401.6188	0.2477
401.8247	0.2496
402.0305	0.2446
402.2364	0.2535
402.4422	0.254
402.648	0.2515
402.8538	0.2423
403.0596	0.2342
403.2654	0.2483
403.4711	0.2378
403.6768	0.2453
403.8826	0.2419
404.0883	0.25
404.294	0.2487
404.4997	0.2406
404.7054	0.246
404.911	0.2421
405.1167	0.2516
405.3223	0.2492
405.5279	0.2489
405.7335	0.2444
405.9391	0.2463
406.1447	0.2507
406.3502	0.2367
406.5558	0.2427
406.7613	0.2405
406.9668	0.2376
407.1724	0.2439
407.3778	0.2456
407.5833	0.2267
407.7888	0.2385
407.9942	0.2431
408.1997	0.2474
408.4051	0.2417
408.6105	0.2438
408.8159	0.2439
409.0213	0.2435
409.2267	0.2516
409.432	0.2468
409.6374	0.2501
409.8427	0.2578
410.048	0.2462
410.2533	0.2416
410.4586	0.2424
410.6639	0.2365
410.8691	0.2372
411.0744	0.2399
411.2796	0.2458
411.4848	0.2534
411.69	0.2398
411.8952	0.2514
412.1004	0.2407
412.3056	0.2412
412.5107	0.2425
412.7158	0.2539
412.921	0.2456
413.1261	0.237
413.3312	0.2483
413.5362	0.2515
413.7413	0.2465
413.9464	0.2341
414.1514	0.2342
414.3564	0.2293
414.5614	0.2355
414.7664	0.2299
414.9714	0.2443
415.1764	0.2434
415.3813	0.2436
415.5863	0.2431
415.7912	0.2438
415.9961	0.239
416.201	0.2551
416.4059	0.2339
416.6108	0.239
416.8156	0.2411
417.0205	0.2425
417.2253	0.2372
417.4301	0.2411
417.6349	0.2395
417.8397	0.2301
418.0445	0.2278
418.2492	0.2312
418.454	0.2325
418.6587	0.2396
418.8634	0.2369
419.0681	0.2356
419.2728	0.235
419.4775	0.2443
419.6822	0.228
419.8868	0.2382
420.0915	0.2233
420.2961	0.2199
420.5007	0.2352
420.7053	0.2242
420.9099	0.2265
421.1144	0.222
421.319	0.2192
421.5235	0.2197
421.728	0.2331
421.9325	0.2176
422.137	0.2271
422.3415	0.2188
422.546	0.2205
422.7504	0.2239
422.9549	0.2246
423.1593	0.2147
423.3637	0.2254
423.5681	0.2273
423.7725	0.2201
423.9769	0.2187
424.1812	0.205
424.3856	0.2122
424.5899	0.2178
424.7942	0.2129
424.9985	0.2025
425.2028	0.2175
425.4071	0.2091
425.6113	0.2048
425.8156	0.2069
426.0198	0.2112
426.224	0.2034
426.4282	0.2005
426.6324	0.1939
426.8366	0.1944
427.0407	0.1943
427.2449	0.1962
427.449	0.2055
427.6531	0.2061
427.8572	0.2087
428.0613	0.2083
428.2654	0.1945
428.4694	0.1919
428.6735	0.1904
428.8775	0.1918
429.0815	0.1893
429.2855	0.1832
429.4895	0.1831
429.6935	0.1855
429.8975	0.1829
430.1014	0.1927
430.3053	0.1894
430.5093	0.1857
430.7132	0.1727
430.9171	0.17
431.1209	0.1791
431.3248	0.1638
431.5286	0.171
431.7325	0.1754
431.9363	0.1696
432.1401	0.1648
432.3439	0.1693
432.5477	0.1589
432.7514	0.1649
432.9552	0.1571
433.1589	0.1487
433.3627	0.1611
433.5664	0.1573
433.7701	0.1531
433.9737	0.1626
434.1774	0.1516
434.3811	0.1508
434.5847	0.148
434.7883	0.1461
434.9919	0.1348
435.1955	0.1559
435.3991	0.1532
435.6027	0.1377
435.8062	0.1535
436.0098	0.1235
436.2133	0.1377
436.4168	0.1319
436.6203	0.127
436.8238	0.1312
437.0272	0.1306
437.2307	0.1254
437.4341	0.1341
437.6375	0.1318
437.841	0.1167
438.0443	0.1229
438.2477	0.1213
438.4511	0.1142
438.6545	0.1226
438.8578	0.1155
439.0611	0.1197
439.2644	0.108
439.4677	0.1107
439.671	0.1032
439.8743	0.1182
440.0775	0.1007
440.2808	0.1035
440.484	0.1074
440.6872	0.1038
440.8904	0.0965
441.0936	0.1057
441.2967	0.0935
441.4999	0.089
441.703	0.0944
441.9062	0.0983
442.1093	0.104
442.3124	0.0881
442.5155	0.0944
442.7185	0.0857
442.9216	0.0918
443.1246	0.0884
443.3276	0.0836
443.5307	0.0767
443.7337	0.0809
443.9366	0.0792
444.1396	0.0787
444.3426	0.0815
444.5455	0.073
444.7484	0.0797
444.9513	0.0668
445.1542	0.0737
445.3571	0.0748
445.56	0.0663
445.7628	0.0699
445.9657	0.0724
446.1685	0.0684
446.3713	0.0674
446.5741	0.0617
446.7769	0.0743
446.9797	0.0618
447.1824	0.0599
447.3852	0.0413
447.5879	0.055
447.7906	0.0529
447.9933	0.0622
448.196	0.0505
448.3986	0.0536
448.6013	0.0467
448.8039	0.0598
449.0066	0.0651
449.2092	0.0595
449.4118	0.0561
449.6143	0.0516
449.8169	0.0494
450.0195	0.0458
450.222	0.0522
450.4245	0.0498
450.627	0.0405
450.8295	0.0372
451.032	0.0484
451.2345	0.0399
451.4369	0.0463
451.6394	0.0323
451.8418	0.0422
452.0442	0.0441
452.2466	0.0389
452.449	0.0426
452.6513	0.0351
452.8537	0.0342
453.056	0.0358
453.2583	0.0354
453.4607	0.0217
453.663	0.0339
453.8652	0.0229
454.0675	0.0331
454.2697	0.0332
454.472	0.0267
454.6742	0.0372
454.8764	0.04
455.0786	0.0316
455.2808	0.0251
455.4829	0.024
455.6851	0.0225
455.8872	0.0185
456.0893	0.0245
456.2915	0.0265
456.4935	0.0293
456.6956	0.0186
456.8977	0.0195
457.0997	0.0308
457.3018	0.0225
457.5038	0.0225
457.7058	0.0251
457.9078	0.0189
458.1098	0.017
458.3117	0.0268
458.5137	0.0099
458.7156	0.0344
458.9175	0.0212
459.1194	0.0221
459.3213	0.0241
459.5232	0.0186
459.725	0.0168
459.9269	0.0217
460.1287	0.0103
460.3305	0.0219
460.5323	0.025
460.7341	0.0218
460.9359	0.0116
461.1376	0.0222
461.3394	0.0144
461.5411	0.018
461.7428	0.0188
461.9445	0.0092
462.1462	0.0175
462.3479	0.0217
462.5495	0.0187
462.7512	0.0228
462.9528	0.0105
463.1544	0.0136
463.356	0.0102
463.5576	0.0172
463.7592	0.0146
463.9607	0.0105
464.1623	0.0094
464.3638	0.0076
464.5653	0.0073
464.7668	0.0174
464.9683	0.0167
465.1697	0.0155
465.3712	0.0002
465.5726	0.0063
465.7741	0.0176
465.9755	0.0199
466.1769	0.0092
466.3782	0.0079
466.5796	0.0085
466.7809	0.0156
466.9823	0.0111
467.1836	0.0139
467.3849	0.0086
467.5862	0.0034
467.7875	0.0007
467.9887	0.0139
468.19	0.0085
468.3912	0.0129
468.5924	0.0024
468.7936	0.0131
468.9948	0.0012
469.196	0.0049
469.3972	0.0033
469.5983	0.007
469.7994	0.0121
470.0006	0.0155
470.2017	0.0092
470.4027	0.0118
470.6038	0.0124
470.8049	0.0044
471.0059	0.0071
471.2069	0.0079
471.408	0.0218
471.6089	0.016
471.8099	0.0055
472.0109	-0.0011
472.2119	0.0129
472.4128	0.0059
472.6137	0.012
472.8146	-0.0018
473.0155	0.018
473.2164	0.0065
473.4173	-0.0046
473.6181	0.0069
473.819	0.0088
474.0198	-0.0053
474.2206	-0.0053
474.4214	0.009
474.6222	-0.004
474.8229	0.0022
475.0237	0.0155
475.2244	0.0176
475.4251	0.0122
475.6258	0.0031
475.8265	0.0085
476.0272	0.0063
476.2278	0.0045
476.4285	0.002
476.6291	0.0099
476.8297	0.0125
477.0303	-0.001
477.2309	0.0059
477.4315	0.0106
477.632	-0.0017
477.8326	0.0082
478.0331	0.011
478.2336	0.0026
478.4341	0.0111
478.6346	0.0032
478.8351	-0.001
479.0355	0.0133
479.236	0.0125
479.4364	0.0046
479.6368	0.0005
479.8372	0.0069
480.0376	0.0009
480.2379	0.0034
480.4383	0.0127
480.6386	0.0032
480.8389	0.0059
481.0392	0.0046
481.2395	0.0064
481.4398	0.0093
481.6401	0.0013
481.8403	0.0001
482.0405	0.0061
482.2408	0.0049
482.441	0.0042
482.6411	0.0076
482.8413	-0.0003
483.0415	0.0098
483.2416	0.003
483.4417	0.0016
483.6419	-0.0013
483.8419	0.0034
484.042	0.0062
484.2421	0.0034
484.4422	-0.0033
484.6422	-0.001
484.8422	0.0007
485.0422	0.0033
485.2422	0.0066
485.4422	0.0012
485.6422	0.0027
485.8421	0.0033
486.042	0.0119
486.242	0.0043
486.4419	0.0029
486.6417	0.0043
486.8416	0.0018
487.0415	-0.0021
487.2413	-0.0009
487.4411	0.0033
487.641	0.0025
487.8408	0.0062
488.0405	0.0065
488.2403	0.0025
488.4401	0.0067
488.6398	0.0082
488.8395	-0.0011
489.0392	0.007
489.2389	0.0075
489.4386	-0.006
489.6383	0.0049
489.8379	-0.0027
490.0376	-0.0034
490.2372	0.0012
490.4368	-0.0058
490.6364	-0.0049
490.836	0.0027
491.0355	-0.0063
491.2351	0.0036
491.4346	0.0076
491.6341	-0.0041
491.8336	0.0014
492.0331	-0.0011
492.2326	0.0003
492.432	-0.0003
492.6315	0.0063
492.8309	0.0025
493.0303	0.0067
493.2297	0.0076
493.4291	0.0022
493.6284	0.0038
493.8278	-0.0013
494.0271	0.0026
494.2264	-0.0057
494.4257	0.0034
494.625	0.0046
494.8243	-0.0007
495.0236	0.0001
495.2228	0.0034
495.422	0.0024
495.6213	0.0079
495.8205	0.0044
496.0196	-0.0026
496.2188	0.001
496.418	0.0028
496.6171	-0.006
496.8162	0.0014
497.0153	0.0039
497.2144	0.0064
497.4135	-0.0043
497.6126	-0.003
497.8116	-0.006
498.0107	0.0026
498.2097	0.0006
498.4087	0.0019
498.6077	-0.0025
498.8067	0.0006
499.0056	-0.0063
499.2046	0.0067
499.4035	-0.0054
499.6024	-0.0091
499.8013	-0.0029
500.0002	0.0025
500.199	0.0083
500.3979	-0.0083
500.5967	0.0019
500.7956	0.0002
500.9944	0.0008
501.1932	0.0096
501.3919	0.0107
501.5907	0.0061
501.7895	0.0006
501.9882	0.0007
502.1869	0.0119
502.3856	0.0015
502.5843	-0.0016
502.783	0.0023
502.9816	0.0023
503.1803	-0.0008
503.3789	0.006
503.5775	-0.0064
503.7761	-0.0044
503.9747	0.0066
504.1732	-0.0044
504.3718	0.0077
504.5703	0.0008
504.7689	-0.0055
504.9674	-0.0026
505.1658	0.0062
505.3643	0.0013
505.5628	0.0036
505.7612	0.0089
505.9597	-0.0085
506.1581	0.0001
506.3565	0.0019
506.5549	0.0017
506.7532	-0.0084
506.9516	-0.0009
507.1499	0
507.3482	0.0038
507.5465	0.0026
507.7448	-0.0027
507.9431	0.0056
508.1414	-0.0068
508.3396	0.0001
508.5379	-0.0012
508.7361	0.0131
508.9343	0.0045
509.1325	0.0085
509.3306	0.0039
509.5288	-0.0086
509.7269	0.003
509.9251	0.0082
510.1232	0.0061
510.3213	0.0044
510.5193	-0.0028
510.7174	-0.0047
510.9154	0.0053
511.1135	-0.0026
511.3115	-0.0062
511.5095	-0.0023
511.7075	-0.0007
511.9055	-0.0039
512.1034	-0.0097
512.3014	0.007
512.4993	-0.0012
512.6972	-0.0052
512.8951	-0.0011
513.093	0.002
513.2908	0.0113
513.4887	-0.0031
513.6865	0.0046
513.8844	0.0038
514.0822	-0.0051
514.2799	-0.0076
514.4777	-0.009
514.6755	-0.0084
514.8732	-0.0074
515.0709	0.0007
515.2687	0.0011
515.4664	0.0066
515.664	0.0083
515.8617	0.0084
516.0594	-0.0018
516.257	0.0033
516.4546	0.0083
516.6522	-0.0013
516.8498	-0.004
517.0474	0.0045
517.2449	0.0025
517.4425	0.0016
517.64	0.0021
517.8375	0.0043
518.035	0.0007
518.2325	-0.0103
518.43	-0.0046
518.6274	-0.0074
518.8249	-0.0118
519.0223	0.0075
519.2197	-0.002
519.4171	0.0027
519.6145	0.0025
519.8118	-0.0066
520.0092	-0.0114
520.2065	0.0059
520.4038	-0.0069
520.6011	0.0038
520.7984	0.0033
520.9956	0.0064
521.1929	-0.0027
521.3901	0.0048
521.5874	0.0072
521.7846	-0.0037
521.9818	0
522.1789	-0.0108
522.3761	0.0112
522.5732	-0.0027
522.7704	-0.0204
522.9675	-0.0125
523.1646	-0.0117
523.3617	0.0098
523.5587	0.0031
523.7558	-0.0057
523.9528	0.0033
524.1498	-0.0026
524.3468	-0.0061
524.5438	0.0026
524.7408	-0.0034
524.9378	0.0088
525.1347	-0.0002
525.3316	-0.0043
525.5285	-0.0014
525.7254	0.0113
525.9223	0.0134
526.1192	0.0048
526.316	0.0008
526.5129	-0.0034
526.7097	-0.012
526.9065	-0.0025
527.1033	-0.0037
527.3	-0.002
527.4968	0.0047
527.6935	-0.0121
527.8903	-0.0049
528.087	-0.0035
528.2837	0.0018
528.4804	-0.0037
528.677	-0.001
528.8737	-0.0025
529.0703	-0.0096
529.2669	0.0022
529.4635	-0.0056
529.6601	-0.011
529.8567	-0.0126
530.0532	-0.0007
530.2498	-0.0031
530.4463	-0.007
530.6428	0.0024
530.8393	0.0049
531.0358	-0.0025
531.2322	-0.0108
531.4287	-0.0039
531.6251	-0.0158
531.8215	-0.0123
532.0179	0.0006
532.2143	-0.0103
532.4107	0.0082
532.607	-0.0049
532.8034	-0.0013
532.9997	-0.0067
533.196	-0.0001
533.3923	0.0039
533.5886	0.0073
533.7848	0.002
533.9811	-0.0001
534.1773	0.0033
534.3735	-0.0035
534.5697	-0.0108
534.7659	0.0087
534.9621	-0.0019
535.1582	-0.0015
535.3544	-0.0012
535.5505	0.0069
535.7466	0.0025
535.9427	0.0003
536.1387	-0.0056
536.3348	0.003
536.5308	0.0002
536.7269	-0.0074
536.9229	-0.006
537.1189	0.0113
537.3148	0.0004
537.5108	0.0042
537.7068	0.0038
537.9027	-0.0154
538.0986	0.0014
538.2945	0.0054
538.4904	-0.0146
538.6863	0.006
538.8821	0.0105
539.078	-0.0033
539.2738	-0.0022
539.4696	0.0021
539.6654	0.0011
539.8611	-0.0045
540.0569	-0.0056
540.2526	0.0068
540.4484	-0.0053
540.6441	0.0026
540.8398	0.0082
541.0355	-0.0004
541.2311	-0.0004
541.4268	0.0068
541.6224	0.0043
541.818	0.0084
542.0136	0.0036
542.2092	0.0045
542.4048	0.0028
542.6003	-0.0053
542.7959	0.0009
542.9914	0.0054
543.1869	-0.0053
543.3824	0.0004
543.5779	0.0095
543.7734	0.0114
543.9688	0.0036
544.1642	0.0008
544.3596	0.0081
544.555	0.0014
544.7504	0.0069
544.9458	0.0062
545.1411	-0.0015
545.3365	0.0045
545.5318	0.004
545.7271	-0.0022
545.9224	-0.0006
546.1177	0.0072
546.3129	-0.0055
546.5081	0.0045
546.7034	0.0016
546.8986	-0.0029
547.0938	0.0071
547.289	0.0064
547.4841	-0.0004
547.6793	-0.0039
547.8744	0.0026
548.0695	0.0085
548.2646	-0.0019
548.4597	-0.0056
548.6548	0.0114
548.8498	0.0079
549.0448	-0.0058
549.2399	0.0056
549.4349	0.0079
549.6298	0.0065
549.8248	-0.0009
550.0198	0.0036
550.2147	-0.0031
550.4096	-0.008
550.6045	-0.0037
550.7994	0.0122
550.9943	0.0046
551.1892	-0.0178
551.384	0.0111
551.5788	0.0097
551.7737	0.0098
551.9685	0.0123
552.1632	-0.0041
552.358	0.0065
552.5528	0.0074
552.7475	0.0061
552.9422	0.0085
553.1369	0.0097
553.3316	0.0084
553.5263	0.0058
553.7209	0
553.9156	-0.0033
554.1102	0.0038
554.3048	0.0005
554.4994	-0.0009
554.694	-0.0049
554.8885	-0.0036
555.0831	0.0089
555.2776	0.0015
555.4721	0.0121
555.6666	0.0014
555.8611	0.006
556.0555	-0.0012
556.25	0.0087
556.4444	0.0022
556.6388	-0.0098
556.8332	-0.0011
557.0276	0.0077
557.222	0.0016
557.4163	0.008
557.6107	0.0045
557.805	-0.0079
557.9993	0.0073
558.1936	-0.002
558.3879	0.002
558.5821	-0.0029
558.7764	-0.0043
558.9706	-0.0049
559.1648	-0.0017
559.359	-0.0049
559.5532	0.0084
559.7473	-0.007
559.9415	0.0083
560.1356	0.0082
560.3297	-0.0072
560.5238	0.0069
560.7179	-0.0005
560.9119	0.0006
561.106	-0.0094
561.3	-0.0004
561.494	-0.0051
561.688	-0.0025
561.882	0.0008
562.076	0.0019
562.2699	0.0082
562.4639	0.0123
562.6578	0.0075
562.8517	0.0021
563.0456	0.0038
563.2395	0.0026
563.4333	0.0005
563.6272	0.0085
563.821	0.0053
564.0148	-0.0019
564.2086	0.0012
564.4024	0.0046
564.5961	-0.0015
564.7899	0.0115
564.9836	-0.004
565.1773	0.0155
565.371	0.0104
565.5647	0.0052
565.7584	0.0171
565.952	-0.0021
566.1456	0.004
566.3393	0.0032
566.5329	0.0007
566.7264	0.0031
566.92	0.0031
567.1136	0.0024
567.3071	-0.0043
567.5006	0.0108
567.6941	0.0019
567.8876	0.0037
568.0811	0.0217
568.2745	-0.0008
568.468	0.0043
568.6614	0.0115
568.8548	0.0047
569.0482	0.0065
569.2416	0.0034
569.4349	0.0039
569.6283	-0.0005
569.8216	0.0075
570.0149	-0.0014
570.2082	0.008
570.4015	0.0027
570.5947	0.0001
570.788	0.0076
570.9812	-0.0003
571.1744	0.0062
571.3676	0.0053
571.5608	0.0037
571.754	0.0082
571.9471	0.0121
572.1402	0.0078
572.3333	0.0061
572.5264	-0.0003
572.7195	0.0027
572.9126	0.004
573.1057	0.0054
573.2987	-0.0011
573.4917	0.0048
573.6847	0.002
573.8777	0.009
574.0707	0.0036
574.2636	0.0056
574.4566	0.0029
574.6495	0.0008
574.8424	0.0052
575.0353	0.0022
575.2281	0.0062
575.421	0.0003
575.6138	0.0016
575.8067	0.0062
575.9995	0.007
576.1923	0.0056
576.385	0.0002
576.5778	0.0075
576.7706	0.0053
576.9633	0.0085
577.156	0.0006
577.3487	0.004
577.5414	0.0009
577.734	0.0032
577.9267	0.006
578.1193	0.0047
578.3119	0.0045
578.5045	0.0042
578.6971	0.0013
578.8897	0.0065
579.0822	0.0067
579.2747	-0
579.4673	0.0015
579.6598	0.0063
579.8522	0.0027
580.0447	0.0085
580.2372	0.0074
580.4296	0.0076
580.622	0.0022
580.8144	0.0054
581.0068	0.0065
581.1992	0.0026
581.3915	0
581.5839	0.0035
581.7762	0.0048
581.9685	0.0038
582.1608	0.0043
582.353	0.0011
582.5453	0.0076
582.7375	0.0034
582.9298	-0.0019
583.122	0.0035
583.3142	0.0025
583.5063	0.0022
583.6985	-0.0015
583.8906	0.0045
584.0827	0.0036
584.2749	0.0013
584.4669	0.0027
584.659	0.0066
584.8511	0.0064
585.0431	0.0074
585.2352	0.0025
585.4272	0.0053
585.6192	0.005
585.8111	0.0064
586.0031	0.0038
586.195	0.0047
586.387	0.0032
586.5789	0.0072
586.7708	0.0088
586.9627	0.004
587.1545	0.0027
587.3464	0.0081
587.5382	0.0068
587.73	0.01
587.9218	0.0007
588.1136	0.0002
588.3053	0.0106
588.4971	-0.0019
588.6888	0.0027
588.8805	-0.002
589.0722	0.012
589.2639	0.003
589.4556	0.0015
589.6472	0.0101
589.8389	0.0025
590.0305	0.0023
590.2221	0.0041
590.4137	0.0012
590.6052	0.0013
590.7968	0.0011
590.9883	0.0077
591.1798	0.0034
591.3713	0.0032
591.5628	0.0041
591.7543	0.0044
591.9458	0.0042
592.1372	0.0072
592.3286	0.0038
592.52	0.0078
592.7114	0.0059
592.9028	0.0083
593.0941	0.0029
593.2855	0.003
593.4768	0.0121
593.6681	0.0081
593.8594	0.0077
594.0506	0.0018
594.2419	0.0051
594.4331	0.0082
594.6244	-0.0002
594.8156	0.0014
595.0067	-0.0004
595.1979	-0.0011
595.3891	0.0013
595.5802	0.0098
595.7713	0.0053
595.9624	0.0086
596.1535	0.0058
596.3446	-0.0076
596.5357	0.0061
596.7267	0.0007
596.9177	0.0058
597.1087	0.0021
597.2997	0.003
597.4907	-0.0034
597.6817	0.003
597.8726	0.0087
598.0635	0.0014
598.2544	0.0054
598.4453	0.0034
598.6362	0.0047
598.827	0.0039
599.0179	0.0032
599.2087	0.0068
599.3995	0.0054
599.5903	0.0055
599.7811	0.0098
599.9718	0.0025
600.1626	0.0031
600.3533	0.0019
600.544	-0.0006
600.7347	0.0085
600.9254	0.0089
601.116	0.007
601.3067	0.0018
601.4973	0.008
601.6879	0.0045
601.8785	0.0053
602.0691	0.0032
602.2596	0.0025
602.4502	0.0091
602.6407	0.0058
602.8312	0.0055
603.0217	0.0054
603.2122	0.0055
603.4027	0.003
603.5931	0.0032
603.7835	0.0068
603.9739	0.003
604.1643	0.0079
604.3547	0.0086
604.5451	0.008
604.7354	-0.005
604.9257	0.0044
605.116	0.0019
605.3063	0.0043
605.4966	0.0013
605.6869	0.0071
605.8771	0.0008
606.0673	0.0107
606.2575	0.0036
606.4477	0.0097
606.6379	-0.0009
606.8281	0.004
607.0182	0.0058
607.2083	0.0035
607.3985	0.0034
607.5885	0.0061
607.7786	0.0062
607.9687	0.0074
608.1587	0.0094
608.3488	0.0026
608.5388	0.0003
608.7288	-0.001
608.9187	0.0041
609.1087	0.0105
609.2986	0.0117
609.4886	0.0004
609.6785	0.0056
609.8684	0
610.0582	0.0005
610.2481	-0.0069
610.4379	0.0065
610.6278	0.0033
610.8176	0.0095
611.0074	0.0011
611.1971	0.0078
611.3869	0.0041
611.5766	-0.0073
611.7664	0.0099
611.9561	0.0106
612.1458	0.0048
612.3354	0.0076
612.5251	0.0036
612.7147	0.0071
612.9044	-0.0008
613.094	0.0101
613.2836	0.0071
613.4731	0.0026
613.6627	0.0095
613.8522	0.0107
614.0417	0.009
614.2313	0.002
614.4207	0.0113
614.6102	0.0087
614.7997	0.0015
614.9891	0.0053
615.1785	-0.0035
615.3679	0.004
615.5573	0.0004
615.7467	-0.0035
615.9361	0.0021
616.1254	0.0082
616.3147	0.0054
616.504	0.0014
616.6933	0.007
616.8826	0.0058
617.0718	0.0119
617.2611	-0.004
617.4503	-0.0035
617.6395	0.0057
617.8287	0.0087
618.0179	0.0056
618.207	0.005
618.3961	-0.0033
618.5853	0.0058
618.7744	0.0107
618.9634	0.0148
619.1525	-0.0014
619.3416	-0.0003
619.5306	0.0085
619.7196	0.0156
619.9086	0.002
620.0976	-0.0034
620.2866	0.0134
620.4755	0.0018
620.6645	0.0111
620.8534	0.0031
621.0423	0.0077
621.2312	0.0025
621.42	0.0152
621.6089	-0.0024
621.7977	0.0099
621.9865	-0.0003
622.1753	-0.0106
622.3641	-0.0029
622.5529	-0.0087
622.7416	0.0081
622.9303	-0.0013
623.1191	0.0122
623.3078	0.0045
623.4964	0.0011
623.6851	0.0044
623.8737	-0.0025
624.0624	-0.0059
624.251	0.0078
624.4396	0.0035
624.6282	0.0149
624.8167	0.0006
625.0053	0.0127
625.1938	-0.0021
625.3823	0.0061
625.5708	-0.0003
625.7593	0.0025
625.9477	0.0061
626.1362	0.002
626.3246	-0.0006
626.513	0.0084
626.7014	0.0085
626.8898	0.0103
627.0781	0.003
627.2665	0.0096
627.4548	0.0028
627.6431	0.0083
627.8314	0.0072
628.0197	0.0125
628.2079	-0.0054
628.3962	-0.0051
628.5844	0.0094
628.7726	-0.0017
628.9608	0.0069
629.1489	0.0066
629.3371	-0.0092
629.5252	0.0038
629.7134	-0.0055
629.9015	0.0082
630.0895	-0.014
630.2776	0.0054
630.4657	0.0174
630.6537	0.0125
630.8417	-0.0021
631.0297	0.0033
631.2177	0.0019
631.4057	0.0068
631.5936	0.0061
631.7815	0.0067
631.9695	0.0234
632.1574	0.0045
632.3452	-0.0004
632.5331	-0.0004
632.7209	0.0159
632.9088	0.0019
633.0966	0.0297
633.2844	-0.0073
633.4722	0.0025
633.6599	0.0152
633.8477	0.0018
634.0354	0.0118
634.2231	-0.0079
634.4108	0.0062
634.5985	0.0104
634.7861	-0.0025
634.9738	-0.0019
635.1614	0.0076
635.349	-0.0062
635.5366	0.003
635.7242	0.0154
635.9117	0.0006
636.0993	0.005
636.2868	0.0109
636.4743	-0.001
636.6618	-0.0149
636.8492	0.0012
637.0367	0.0015
637.2241	-0.0017
637.4115	0.0418
637.5989	0.0022
637.7863	0.0334
637.9737	-0.0097
638.161	-0.0014
638.3484	-0.0076
638.5357	-0.0014
638.723	0.0107
638.9103	-0.0147
639.0975	0.0024
639.2848	0.0071
639.472	0.0027
639.6592	-0.0066
639.8464	-0.0005
640.0336	0.0058
640.2208	0.0093
640.4079	0.0022
640.595	-0.0056
640.7821	0.0172
640.9692	-0.009
641.1563	0.0023
641.3434	0.0093
641.5304	0.0116
641.7174	0.0197
641.9044	-0.0034
642.0914	0.0254
642.2784	0.0049
642.4653	-0.008
642.6523	-0.0025
642.8392	-0.0001
643.0261	0.0031
643.213	0.0083
643.3999	0.0185
643.5867	0.0064
643.7735	-0.0069
643.9604	0.0218
644.1472	0.022
644.3339	0.0087
644.5207	-0.0135
644.7075	-0.0096
644.8942	0.002
645.0809	-0.0004
645.2676	-0.0101
645.4543	-0.0004
645.6409	0.0339
645.8276	0.0089
646.0142	0.0044
646.2008	0.0185
646.3874	-0.0051
646.574	-0.0059
646.7605	0.0121
646.9471	-0.0103
647.1336	-0.0224
647.3201	-0.0125
647.5066	0.0178
647.6931	-0.0028
647.8795	-0.0012
648.0659	0.0105
648.2524	0.0165
648.4388	0.0183
648.6252	0.0045
648.8115	-0.0013
648.9979	0.0017
649.1842	-0.0068
649.3705	0.0119
649.5568	-0.0093
649.7431	-0.0038
649.9294	-0.0038
650.1156	-0.0016
650.3018	0.0296
650.488	0.0036
650.6742	-0.0077
650.8604	0.0053
651.0466	0.013
651.2327	-0.0194
651.4188	0.0008
651.6049	0.0248
651.791	0.0092
651.9771	0.0005
652.1632	0.0316
652.3492	0.0098
652.5352	0.0122
652.7212	0.0074
652.9072	-0.0018
653.0932	0.0107
653.2791	0.0103
653.465	0.0024
653.651	-0.0016
653.8369	0.0028
654.0227	0.0013
654.2086	0.0047
654.3944	0.0031
654.5803	-0.0005
654.7661	0.0053
654.9519	-0.0007
655.1377	0
655.3234	0
655.5092	0
655.6949	0
655.8806	0
656.0663	0
656.2519	0
656.4376	0
656.6232	0
656.8088	0
656.9945	0
657.18	0
657.3656	0
657.5511	0
657.7367	0
657.9222	0
658.1077	0
658.2932	0
658.4786	0
658.6641	0
658.8495	0
659.0349	0
659.2203	0
659.4057	0
659.591	0.1517
659.7764	0.0268
659.9617	0.0134
660.147	0.0041
660.3323	-0.0003
660.5176	0.0073
660.7028	-0.0126
660.888	0.0097
661.0733	0.0221
661.2585	0.0023
661.4436	0.003
661.6288	0.0239
661.8139	0.0026
661.9991	-0.0143
662.1842	-0.0062
662.3693	0.0149
662.5544	0.0101
662.7394	0.0194
662.9245	0.0104
663.1095	-0.0284
663.2945	-0.0088
663.4795	-0.0005
663.6644	-0.0075
663.8494	0.0016
664.0343	0.0154
664.2193	0.0197
664.4042	0.0037
664.589	0.0107
664.7739	0.0165
664.9587	-0.0219
665.1436	-0.0172
665.3284	-0.0007
665.5132	-0.0315
665.698	0.0017
665.8827	0.0202
666.0675	-0.0238
666.2522	0.0089
666.4369	-0.0092
666.6216	0.0167
666.8063	0.0032
666.9909	0.0015
667.1756	-0.0009
667.3602	-0.0041
667.5448	-0.0114
667.7294	0.019
667.9139	-0.0145
668.0985	0.0063
668.283	0.0286
668.4675	0.0018
668.652	0.0195
668.8365	0.0068
669.0209	0.0046
669.2054	0.0111
669.3898	0.0136
669.5742	0.0375
669.7586	0.0245
669.943	0.0056
670.1273	-0.0074
670.3117	0.014
670.496	0.0138
670.6803	0.0069
670.8646	0.0012
671.0488	0.0072
671.2331	0.004
671.4173	0.0094
671.6015	0.0096
671.7857	-0.0013
671.9699	0.0114
672.1541	-0.0025
672.3382	-0.0044
672.5223	0.0045
672.7064	-0.0086
672.8905	-0.0039
673.0746	-0.0004
673.2587	0.0137
673.4427	0.0096
673.6267	0.0176
673.8107	0.0136
673.9947	0.012
674.1787	0.0105
674.3626	-0.0021
674.5465	0.0186
674.7304	0.01
674.9143	-0.0056
675.0982	0.0174
675.2821	0.0082
675.4659	-0.0169
675.6497	0.0084
675.8335	-0.0008
676.0173	-0.0051
676.2011	0.0326
676.3849	0.0205
676.5686	0.0244
676.7523	0.0088
676.936	0.0082
677.1197	-0.0118
677.3034	0.0287
677.487	0.0062
677.6706	0.0161
677.8542	0.0017
678.0378	-0.0006
678.2214	0.0054
678.405	0.0075
678.5885	0.0107
678.772	0.0161
678.9555	0.0055
679.139	0.0018
679.3225	0.0018
679.5059	-0.0032
679.6894	0.0137
679.8728	0.0206
680.0562	-0.0088
680.2395	0.0248
680.4229	-0.0134
680.6062	-0.0006
680.7896	-0.0115
680.9729	0.0099
681.1562	0.0171
681.3394	0.0106
681.5227	0.0057
681.7059	-0.0044
681.8891	-0.0023
682.0723	0.0048
682.2555	-0.0027
682.4387	0.0001
682.6218	0.0081
682.805	0.0167
682.9881	0.0156
683.1712	0.017
683.3542	0.0331
683.5373	-0.0109
683.7203	0.0163
683.9034	0.001
684.0864	0.0109
684.2694	0.0034
684.4523	0.0136
684.6353	0.0023
684.8182	-0.008
685.0011	0.0196
685.184	0.0201
685.3669	0.02
685.5498	0.0001
685.7326	0.004
685.9154	-0.0043
686.0982	0.0256
686.281	0.0005
686.4638	0.018
686.6465	0.008
686.8293	-0.0113
687.012	0.0013
687.1947	-0.0043
687.3774	0.0046
687.56	-0.0014
687.7427	-0.0179
687.9253	-0.0232
688.1079	0.0075
688.2905	-0.0118
688.4731	0.0431
688.6556	0.0038
688.8382	-0.0219
689.0207	0.0222
689.2032	0.0205
689.3857	-0.008
689.5681	0.0001
689.7506	0.0367
689.933	0.0088
690.1154	0.0151
690.2978	-0.0043
690.4802	0.0315
690.6626	0.0153
690.8449	0.0162
691.0272	-0.0006
691.2095	-0.025
691.3918	0.024
691.5741	0.0039
691.7563	0.0079
691.9386	0.0115
692.1208	-0.0033
692.303	-0.0071
692.4852	0.0087
692.6673	-0.0103
692.8495	-0.0062
693.0316	0.0059
693.2137	0.0264
693.3958	0.0117
693.5778	0.0075
693.7599	0.0074
693.9419	0.0001
694.1239	0.0165
694.3059	0.0317
694.4879	0.0045
694.6699	0.0207
694.8518	0.0173
695.0337	0.0069
695.2157	0.0261
695.3975	-0.0155
695.5794	-0.0047
695.7613	0.0167
695.9431	-0.0092
696.1249	-0.0141
696.3067	0.0085
696.4885	0.0192
696.6703	-0.0019
696.852	-0.0082
697.0337	0.0243
697.2154	0.009
697.3971	-0.0059
697.5788	0.0142
697.7605	-0.0066
697.9421	0.0186
698.1237	0.0175
698.3053	-0.0161
698.4869	0.0122
698.6685	-0.0073
698.85	-0.0035
699.0315	-0.0164
699.213	0.0029
699.3945	-0.0139
699.576	0.0242
699.7575	0.0283
699.9389	0.0172
700.1203	-0.0262
700.3017	0.0243
700.4831	0.0193
700.6645	0.0431
700.8458	-0.012
701.0271	0.0315
701.2084	0.0177
701.3897	0.0258
701.571	-0.0051
701.7523	0.0163
701.9335	0.0067
702.1147	0.0242
702.2959	0.001
702.4771	0.0109
702.6583	-0.0096
702.8394	-0.0125
703.0205	0.0121
703.2016	0.0107
703.3827	-0.0098
703.5638	-0.0029
703.7449	0.0191
703.9259	0.0193
704.1069	0.0059
704.2879	-0.0152
704.4689	0.0255
704.6499	0.0188
704.8308	-0.0108
705.0117	-0.0256
705.1927	0.0101
705.3735	0.0084
705.5544	0.0204
705.7353	0.0006
705.9161	-0.0256
706.0969	0.0211
706.2777	-0.0031
706.4585	-0.0061
706.6393	0.0263
706.82	-0.0049
707.0007	-0.0164
707.1815	0.0034
707.3621	0.0158
707.5428	0.0173
707.7235	0.016
707.9041	0.0199
708.0847	0.0168
708.2653	0.0072
708.4459	-0.0102
708.6265	-0.0042
708.807	0.0117
708.9875	-0.0089
709.168	0.0105
709.3485	0.0084
709.529	0.0105
709.7095	-0.0101
709.8899	0.0037
710.0703	0.0263
710.2507	0.0121
710.4311	-0.0329
710.6115	0.0275
710.7918	0.0077
710.9721	0.0281
711.1524	0.0001
711.3327	0.0194
711.513	0.0029
711.6932	-0.0053
711.8735	-0.0011
712.0537	-0.0115
712.2339	-0.0094
712.4141	0.0251
712.5942	0.0237
712.7744	0.0115
712.9545	-0.0034
713.1346	0.0268
713.3147	0.0316
713.4947	0.0026
713.6748	0.0157
713.8548	0.0103
714.0348	0.0103
714.2148	0.0054
714.3948	0.0206
714.5748	0.0194
714.7547	0.0187
714.9346	0.0258
715.1145	-0.0094
715.2944	-0.0258
715.4743	0.0275
715.6541	-0.0109
715.834	0.0487
716.0138	-0.0022
716.1936	-0.0155
716.3733	-0.0122
716.5531	0.0061
716.7328	0.0465
716.9126	0.0078
717.0923	-0.0078
717.2719	0.0079
717.4516	0.0158
717.6312	-0.017
717.8109	-0.001
717.9905	0.0121
718.1701	-0.0136
718.3496	0.0109
718.5292	-0.0051
718.7087	0.0208
718.8882	-0.0012
719.0677	-0.001
719.2472	-0.0045
719.4267	-0.0028
719.6061	0.0036
719.7856	0.0249
719.965	0.0352
720.1443	-0.029
720.3237	-0.0022
720.5031	0.009
720.6824	0.0078
720.8617	-0.0264
721.041	0.0311
721.2203	-0.013
721.3995	0.0013
721.5788	-0.0038
721.758	-0.0003
721.9372	0.0174
722.1164	-0.0196
722.2956	0.0278
722.4747	0.0015
722.6538	0.0242
722.8329	0.0322
723.012	0.0192
723.1911	-0.0049
723.3702	0.0319
723.5492	0.0062
723.7282	0.0006
723.9072	0.0144
724.0862	0.0055
724.2652	-0.0117
724.4441	0.0084
724.623	-0.0088
724.8019	-0.0221
724.9808	0.0087
725.1597	-0.0039
725.3385	0.0121
725.5174	0.0104
725.6962	0.0193
725.875	0.0081
726.0538	-0.0095
726.2325	0.0236
726.4112	0.0115
726.59	-0.0003
726.7687	0.0076
726.9474	0.0149
727.126	0.0078
727.3047	0.0162
727.4833	0.0253
727.6619	0.0088
727.8405	-0.0255
728.0191	0.0174
728.1976	0.0001
728.3762	0.0016
728.5547	0.0108
728.7332	0.0145
728.9116	-0.0039
729.0901	0.0074
729.2686	0.0077
729.447	0.0097
729.6254	0.0077
729.8038	0.0194
729.9821	-0.0027
730.1605	0.0241
730.3388	0.003
730.5171	0.0177
730.6954	-0.0078
730.8737	0.0149
731.0519	-0.0144
731.2302	0.0177
731.4084	-0.0027
731.5866	-0.0183
731.7648	0.0061
731.9429	0.0285
732.1211	0.0034
732.2992	0.0094
732.4773	0.0113
732.6554	-0.0198
732.8335	0.0041
733.0115	-0.0049
733.1896	0.0022
733.3676	0.0185
733.5456	0.0102
733.7235	0.0093
733.9015	0.0009
734.0794	-0.0077
734.2574	-0.019
734.4353	0.0031
734.6131	0.0029
734.791	-0.0258
734.9689	0.0015
735.1467	-0.0027
735.3245	0.0232
735.5023	-0.0048
735.68	0.0106
735.8578	0.0028
736.0355	0.0063
736.2132	0.0084
736.3909	0.0073
736.5686	-0.0032
736.7463	-0.0088
736.9239	0.0196
737.1015	0.0034
737.2791	-0.0008
737.4567	0.0082
737.6343	0.0176
737.8118	0.0108
737.9894	0.0147
738.1669	-0.0032
738.3444	0.0325
738.5218	-0.0178
738.6993	0.0065
738.8767	-0.0009
739.0541	0.0003
739.2315	0.0086
739.4089	0.0307
739.5863	0.0004
739.7636	-0.0118
739.9409	0.0038
740.1182	0.0087
740.2955	0.0111
740.4728	-0.0268
740.65	-0.0017
740.8272	0.0249
741.0044	0.0023
741.1816	0.0054
741.3588	0.0056
741.5359	-0.0078
741.7131	-0.0051
741.8902	0.011
742.0673	-0.0117
742.2444	0.0254
742.4214	0.0376
742.5985	0.0081
742.7755	0.0196
742.9525	-0.0003
743.1295	-0.0152
743.3064	-0.0165
743.4834	0.0077
743.6603	0.0529
743.8372	-0.039
744.0141	0.0214
744.191	0.0049
744.3678	-0.0204
744.5446	-0.0127
744.7215	0.0091
744.8982	-0.0076
745.075	0.0322
745.2518	0.0177
745.4285	0.0363
745.6052	-0.0306
745.7819	0.0072
745.9586	0.0233
746.1353	-0.0163
746.3119	0.0354
746.4885	0.0204
746.6651	0.0075
746.8417	-0.0216
747.0183	0.0142
747.1948	0.0278
747.3714	0.0248
747.5479	0.0403
747.7244	0.0065
747.9008	0.0058
748.0773	0.0349
748.2537	0.0131
748.4301	0.02
748.6065	-0.0266
748.7829	-0.0301
748.9593	0.0005
749.1356	-0.0057
749.3119	0.0004
749.4882	0.0283
749.6645	-0.0041
749.8408	0.0092
750.017	0.0109
750.1933	-0.0387
750.3695	0.0298
750.5457	-0.0076
750.7218	-0.0031
750.898	-0.0075
751.0741	-0.0087
751.2502	0.0035
751.4263	0.0033
751.6024	0.0106
751.7784	0.0022
751.9545	0.0213
752.1305	0.0136
752.3065	0.0044
752.4825	0.0029
752.6584	0.0132
752.8344	-0.0115
753.0103	-0.0144
753.1862	0.0192
753.3621	-0.0144
753.5379	0.0028
753.7138	-0.0191
753.8896	0.0221
754.0654	-0.0139
754.2412	0.0117
754.417	0.0354
754.5927	-0.0043
754.7685	0.0235
754.9442	0.0355
755.1199	0.0095
755.2956	0.0189
755.4712	0.0137
755.6469	0.0094
755.8225	0.0197
755.9981	0.0021
756.1736	0.0001
756.3492	-0.0043
756.5248	-0.0006
756.7003	-0.0116
756.8758	0.0024
757.0513	-0.0005
757.2267	0.0024
757.4022	-0.0023
757.5776	0.0041
757.753	0.0178
757.9284	0.0173
758.1038	0.0125
758.2791	0.0156
758.4545	-0.011
758.6298	0.0049
758.8051	0.0092
758.9803	0.0082
759.1556	-0.0056
759.3308	0.012
759.506	0.0128
759.6812	0.0061
759.8564	-0.0082
760.0316	-0.0091
760.2067	0.0189
760.3819	0.0017
760.557	0.0045
760.732	0.0037
760.9071	0.0209
761.0821	-0.0075
761.2572	0.0281
761.4322	-0.0179
761.6072	0.0097
761.7821	-0.0081
761.9571	0.0106
762.132	0.016
762.3069	0.0109
762.4818	0.0539
762.6567	0.018
762.8316	0.0192
763.0064	0.0014
763.1812	0.0111
763.356	-0.0317
763.5308	-0.0005
763.7055	-0.022
763.8803	0.0015
764.055	-0.0092
764.2297	-0.0122
764.4044	0.0012
764.579	-0.0079
764.7537	0.0043
764.9283	0.0235
765.1029	-0.0077
765.2775	0.0181
765.4521	0.0132
765.6266	0.0001
765.8011	0.0231
765.9756	0.0253
766.1501	-0.0131
766.3246	0.0316
766.4991	0.0099
766.6735	0.0383
766.8479	0.0392
767.0223	0.0046
767.1967	0.0042
767.371	0.0317
767.5454	0.0367
767.7197	0.0196
767.894	-0.0071
768.0683	0.0041
768.2425	0.0258
768.4168	0.0181
768.591	0.0036
768.7652	-0.0223
768.9394	-0.021
769.1135	-0.0288
769.2877	0.045
769.4618	0.0125
769.6359	-0.011
769.81	0.019
769.984	0.0166
770.1581	-0.0029
770.3321	0.0018
770.5061	-0.0126
770.6801	0.0164
770.8541	0.026
771.028	0.0433
771.202	0.0307
771.3759	0.0064
771.5498	-0.0007
771.7236	0.0129
771.8975	0.0126
772.0713	0.0404
772.2451	0.0011
772.4189	-0.0047
772.5927	-0.0224
772.7665	-0.0284
772.9402	-0.0061
773.1139	0.0002
773.2876	-0.0042
773.4613	0.0287
773.635	0.0044
773.8086	0.0104
773.9822	-0.0081
774.1558	0.038
774.3294	0.0057
774.503	0.0179
774.6765	0.0247
774.8501	-0.0052
775.0236	0.0376
775.1971	0.0127
775.3705	0.0242
775.544	-0.0389
775.7174	0.0169
775.8908	0.0512
776.0642	0.0213
776.2376	0.0121
776.4109	0.0072
776.5843	0.0003
776.7576	-0.0139
776.9309	0.0423
777.1041	-0.073
777.2774	0.0103
777.4506	-0.0157
777.6238	-0.0211
777.797	0.0369
777.9702	0.0122
778.1434	0.0108
778.3165	-0.0132
778.4896	-0.0123
778.6627	0.0346
778.8358	-0.0475
779.0089	-0.0069
779.1819	0.0194
779.3549	0.0197
779.5279	-0.0145
779.7009	0.0457
779.8739	0.0567
780.0468	-0.0251
780.2197	0.0179
780.3926	-0.0434
780.5655	0.0189
780.7384	0.0122
780.9112	-0.0068
781.0841	0.0259
781.2569	0.0223
781.4297	0.0187
781.6024	0.0221
781.7752	0.0049
781.9479	0.0288
782.1206	0.0213
782.2933	-0.0043
782.466	0.0226
782.6386	-0.0122
782.8113	0.0277
782.9839	0.0188
783.1565	0.0153
783.329	-0.0112
783.5016	-0.0077
783.6741	0.0183
783.8466	0.0424
784.0191	0.0134
784.1916	-0.0122
784.3641	-0.032
784.5365	0.011
784.7089	-0.003
784.8813	0.092
785.0537	0.0198
785.2261	-0.0129
785.3984	-0.0053
785.5707	-0.0136
785.743	0.0165
785.9153	-0.0034
786.0876	-0.005
786.2598	-0.0005
786.432	0.0077
786.6042	0.0429
786.7764	-0.0298
786.9486	-0.0382
787.1207	0.0506
787.2928	0.0369
787.4649	0.0061
787.637	-0.0057
787.8091	0.0025
787.9811	0.017
788.1532	0.0486
788.3252	0.0266
788.4972	0.0029
788.6691	-0.0021
788.8411	-0.004
789.013	-0.0054
789.1849	0.0045
789.3568	0.005
789.5287	0.0462
789.7005	-0.0016
789.8723	-0.0665
790.0442	-0.0095
790.2159	-0.0038
790.3877	0.0269
790.5595	0.0184
790.7312	0.0198
790.9029	-0.0342
791.0746	0.0237
791.2463	-0.0438
791.4179	-0.0039
791.5896	0.0278
791.7612	0.025
791.9328	0.0248
792.1044	-0.0053
792.2759	-0.0619
792.4474	-0.0573
792.619	0.0359
792.7905	0.0397
792.9619	0.0497
793.1334	0.0164
793.3048	0.0062
793.4762	0.0473
793.6476	-0.0107
793.819	-0.0281
793.9904	-0.0274
794.1617	-0.0041
794.333	-0.018
794.5043	0.0336
794.6756	0.0113
794.8469	0.0398
795.0181	-0.0195
795.1893	0.0206
795.3605	0.0385
795.5317	-0.0443
795.7029	-0.0243
795.874	0.0592
796.0452	0.0602
796.2163	0.0401
796.3873	0.0072
796.5584	0.0553
796.7294	0.0595
796.9005	0.0485
797.0715	0.0489
797.2425	0.0786
797.4134	0.0359
797.5844	0.0156
797.7553	-0.0619
797.9262	0.0602
798.0971	0.0184
798.2679	0.0127
798.4388	0.0344
798.6096	0.033
798.7804	0.0115
798.9512	0.0195
799.122	-0.0184
799.2927	0.0766
799.4635	-0.0212
799.6342	-0.0056
799.8049	0.0545
799.9755	-0.0185
800.1462	0.0087
800.3168	0.0361
800.4874	-0.0571
800.658	0.0006
800.8286	-0.038
800.9991	0.0487
801.1696	-0.0318
801.3402	-0.115
801.5106	0.0427
801.6811	0.0616
801.8516	0.0408
802.022	-0.0142
802.1924	0.0134
802.3628	0.0527
802.5332	0.0299
802.7035	0.0403
802.8739	0.0026
803.0442	0.0158
803.2145	0.0172
803.3847	0.0567
803.555	-0.0124
803.7252	0.0114
803.8954	-0.0327
804.0656	0.019
804.2358	-0.0541
804.4059	0.1192
804.5761	0.0594
804.7462	-0.0147
804.9163	0.0834
805.0864	-0.0281
805.2564	-0.0804
805.4264	-0.0493
805.5965	0.0858
805.7665	-0.0923
805.9364	0.0245
806.1064	-0.0112
806.2763	0.0286
806.4462	0.0068
806.6161	0.0209
806.786	-0.0296
806.9559	0.0274
807.1257	0.0232
807.2955	-0.0184
807.4653	0.0113
807.6351	0.0308
807.8048	0.0018
807.9746	0.0143
808.1443	-0.0115
808.314	-0.0043
808.4837	0.0825
808.6533	0.0364
808.8229	-0.0251
808.9926	0.0129
809.1622	-0.0031
809.3317	-0.0707
809.5013	0.0232
809.6708	-0.0221
809.8403	0.0137
810.0098	0.0416
810.1793	-0.0178
810.3488	-0.0219
810.5182	0.039
810.6876	0.0225
810.857	0.111
811.0264	-0.0446
811.1958	0.1364
811.3651	-0.0154
811.5344	0.0741
811.7037	0.0527
811.873	0.0813
812.0422	-0.159
812.2115	0.0554
812.3807	-0.1558
812.5499	-0.0194
812.7191	0.0184
812.8882	-0.0052
813.0574	0.0477
813.2265	-0.0505
813.3956	-0.0035
813.5646	-0.0038
813.7337	0.0768
813.9027	-0.0781
814.0718	0.0047
814.2407	0.0973
814.4097	0.058
814.5787	0.0871
814.7476	0.0449
814.9165	0.0207
815.0854	0.028
815.2543	-0.0016
815.4232	0.0451
815.592	0.1091
815.7608	-0.0067
815.9296	0.0239
816.0984	0.1664
816.2671	-0.2752
816.4359	0.0243
816.6046	0.0041
816.7733	-0.1338
816.942	-0.0472
817.1106	0.0031
817.2793	-0.0829
817.4479	0.078
817.6165	0.0101
817.785	0.1567
817.9536	-0.1143
818.1221	0.0396
818.2906	-0.1668
818.4591	0.0947
818.6276	-0.0253
818.7961	-0.0177
818.9645	-0.0166
819.1329	-0.011
819.3013	-0.0556
819.4697	-0.0498
819.638	0.0593
819.8064	-0.0713
819.9747	-0.0823
820.143	-0.0219
820.3113	0.0439
820.4795	-0.0876
820.6477	0.0368
820.816	0.0992
820.9842	0.031
821.1523	0.0657
821.3205	-0.0013
821.4886	-0.0442
821.6567	-0.0339
821.8248	0.1689
821.9929	-0.1192
822.1609	-0.07
822.329	0.0788
822.497	-0.0231
822.665	-0.0865
822.833	-0.0172
823.0009	0.0697
823.1688	0.0654
823.3367	-0.1391
823.5046	0.0719
823.6725	0.0111
823.8404	-0.0652
824.0082	-0.0702
824.176	0.0171
824.3438	0.0286
824.5116	-0.056
824.6793	0.1646
824.847	-0.1197
825.0147	0.1209
825.1824	0.1408
825.3501	0.0439
825.5177	0.0227
825.6854	-0.018
825.853	-0.0421
826.0206	-0.1041
826.1881	-0.1217
826.3557	-0.0767
826.5232	0.1325
826.6907	0.0865
826.8582	0.0325
827.0257	0.3013
827.1931	0.1032
827.3605	0.0857
827.528	0.0944
827.6953	-0.1955
827.8627	-0.0977
828.03	0.0267
828.1974	0.0289
828.3647	0.0526
828.532	0.0174
828.6992	0.0153
828.8665	-0.1095
829.0337	-0.0519
829.2009	-0.0364
829.3681	-0.0237
829.5352	-0.164
829.7024	0.0778
829.8695	0.0668
830.0366	0.1227
830.2037	0.0403
830.3707	0.0233
830.5378	-0.0601
830.7048	-0.079
830.8718	0.0329
831.0388	0.097
831.2057	-0
831.3727	-0.3631
831.5396	-0.008
831.7065	-0.331
831.8734	-0.0779
832.0402	0.1863
832.2071	-0.173
832.3739	-0.324
832.5407	-1.9919
832.7075	-0.3756
832.8742	0.0719
833.041	0.1602
833.2077	-0.0211
833.3744	0.1749
833.541	0.1124
833.7077	-0.0041
833.8743	0.1812
834.0409	0.015
834.2075	0.0302
834.3741	-0.051
834.5407	0.0499
834.7072	-0.0259
834.8737	0.097
835.0402	0.1802
835.2067	0.0227
835.3731	-0.0141
835.5395	0.0736
835.706	-0.1434
835.8723	-0.1029
836.0387	0.1244
836.2051	-0
836.3714	0.2322
836.5377	0.0107
836.704	0.2004
836.8703	-0.0801
837.0365	-0.6419
837.2027	0.0447
837.3689	0.317
837.5351	0.0868
837.7013	0.0922
837.8674	-0.3021
838.0335	-0.0475
838.1997	-0.1673
838.3657	1.3183
838.5318	-0.2849
838.6978	-0
838.8639	-0.4233
839.0299	0.0689
839.1958	0.1292
839.3618	-0
839.5277	0.0021
839.6937	0.2525
839.8596	-0.2128
840.0254	-0.1697
840.1913	-0.1312
840.3571	0.0239
840.523	-0
840.6888	0.2229
840.8545	-0.4073
841.0203	-0.0035
841.186	-0.0663
841.3517	-0.0819
841.5174	0.1228
841.6831	0.1775
841.8488	-0.2026
842.0144	0.2827
842.18	1.8696
842.3456	-0.3809
842.5112	-0
842.6767	-0.0255
842.8422	0.2729
843.0077	0.2207
843.1732	-0.1375
843.3387	-0
843.5042	0.2169
843.6696	0.3023
843.835	-0.2823
844.0004	-0.331
844.1657	-0
844.3311	1.0958
844.4964	-0.2202
844.6617	-0
844.827	-0
844.9923	0.5169
845.1575	-0
845.3227	0.0729
845.4879	-0.2141
845.6531	-0.1991
845.8183	-0.0952
845.9834	-0
846.1485	0.257
846.3136	0.0278
846.4787	-0
846.6438	-0.0342
846.8088	0.6286
846.9738	-0
847.1388	0.3836
847.3038	0.3384
847.4687	1.059
847.6337	-0
847.7986	-0.198
847.9635	0.0612
848.1284	0.7383
848.2932	0.1402
848.458	-0
848.6228	-0.2644
848.7876	0.4283
848.9524	-0
849.1172	-1.8495
849.2819	-0
849.4466	0.4194
849.6113	2.3311
849.7759	-0
849.9406	-0.3161
850.1052	-0.3123
850.2698	0.299
850.4344	-1.008
850.599	0.0046
850.7635	0.6933
850.928	0.1532
851.0925	-0
851.257	0.6527
851.4215	-0.0492
851.5859	0.0023
851.7503	0.9951
851.9147	-0.462
852.0791	-0.0141
852.2434	0.1053
852.4078	-0
852.5721	0.4407
852.7364	0.4081
852.9007	-0.2454
853.0649	-0
853.2291	0.546
853.3934	-0
853.5575	-0
853.7217	0.0887
853.8859	-0.51
854.05	-0.542
854.2141	-0
854.3782	-0.0274
854.5423	-0.5695
854.7063	0.0031
854.8703	-0.1601
855.0343	0.0205
855.1983	0.1449
855.3623	-0.0954
855.5262	-0
855.6901	0.5484
855.854	0.3719
856.0179	0.8123
856.1818	-0
856.3456	0.3773
856.5094	0.0733
856.6732	-0
856.837	-1.4406
857.0008	-0.3508
857.1645	-0.2166
857.3282	-0.5013
857.4919	-0.0762
857.6556	0.0913
857.8192	-0.2302
857.9828	-0.334
858.1465	0.2197
858.31	1.0451
858.4736	-0.7285
858.6372	-0.197
858.8007	-0.0083
858.9642	0.2424
859.1277	1.3575
859.2911	-0.7952
859.4546	-0
859.618	0.1243
859.7814	-0
859.9448	-0.0171
860.1081	-0
860.2715	-1.8052
860.4348	0.0043
860.5981	0.4687
860.7614	-0.3872
860.9246	-0.0893
861.0879	0.4031
861.2511	0.0711
861.4143	-0
861.5774	-0.2032
861.7406	-0
861.9037	-0
862.0668	-0.5221
862.2299	-0
862.393	-0
862.556	-0.2206
862.7191	0.0094
862.8821	0.117
863.0451	-0.2957
863.208	-0.4349
863.371	-0.6711
863.5339	0.2152
863.6968	0.2061
863.8597	-0.5254
864.0225	0.9613
864.1854	-0
864.3482	-0
864.511	-0.2191
864.6737	-0
864.8365	0.348
864.9992	-0
865.1619	-0.4332
865.3246	-1.791
865.4873	-0
865.65	0.9691
865.8126	-0
865.9752	-0.2553
866.1378	0.0557
866.3004	-0.0246
866.4629	-1.8701
866.6254	-0.6106
866.7879	0.3474
866.9504	-0.6029
867.1129	-0
867.2753	-0.2302
867.4377	0.1949
867.6001	-0.7158
867.7625	0.1784
867.9249	-0
868.0872	1.1039
868.2495	0.4437
868.4118	-0
868.5741	-0
868.7363	-0.4084
868.8986	-0.4856
869.0608	-0.5347
869.223	-0.647
869.3851	-0
869.5473	0.1447
869.7094	0.368
869.8715	-0.1659
870.0336	0.0998
870.1957	-0.86
870.3577	0.0353
870.5197	0.0153
870.6817	-0.797
870.8437	-0.192
871.0057	-0
871.1676	-0.045
871.3295	-0
871.4914	-0
871.6533	-0.5863
871.8151	-0
871.977	-0.6152
872.1388	-0
872.3006	-0
872.4623	-0.7527
872.6241	-0
872.7858	0.1191
872.9475	-0
873.1092	0.0843
873.2709	0.3607
873.4325	-1.3879
873.5941	0.057
873.7557	-0
873.9173	0.02
874.0789	0.6796
874.2404	-0
874.4019	0.1373
874.5634	-0
874.7249	-0
874.8863	-0
875.0478	-0.5254
875.2092	0.2783
875.3706	0.8733
875.5319	0.5249
875.6933	-0
875.8546	-0
876.0159	-0.0484
876.1772	0.0651
876.3385	-0
876.4997	0.4113
876.6609	0.5767
876.8221	0.5411
876.9833	-0.1373
877.1445	0.4965
877.3056	-1.2238
877.4667	-0.8421
877.6278	-0
877.7889	-0.0396
877.9499	0.2286
878.111	-0.5939
878.272	-0.3545
878.433	0.1113
878.5939	-0.0901
878.7549	-0.3441
878.9158	-0
879.0767	0.7955
879.2376	-0.1111
879.3984	0.7571
879.5593	0.9198
879.7201	-1.3222
879.8809	-0
880.0417	-0.1013
880.2024	0.2264
880.3632	0.3437
880.5239	-0.0223
880.6846	-0
880.8452	-0.0967
881.0059	-0
881.1665	0.4507
881.3271	0.2206
881.4877	0.1242
881.6483	-1.4694
881.8088	-0
881.9693	-1.3639
882.1298	-1.3639
882.2903	-1.3639
