Data from D4ACN5uM440nmA_Absorbance_13-50-26-138.txt Node
Date: Fri Feb 21 13:50:26 GMT 2025
User: LASERRRRR
Spectrometer: FLMT03099
Trigger mode: 0
Integration Time (sec): 1.500000E-2
Scans to average: 1
Electric dark correction enabled: true
Nonlinearity correction enabled: false
Boxcar width: 0
XAxis mode: Wavelengths
Number of Pixels in Spectrum: 3648
>>>>>Begin Spectral Data<<<<<
179.3399	0.8451
179.5586	0.8451
179.7771	0.8451
179.9957	-0.2633
180.2143	-0
180.4329	0.3269
180.6514	-0
180.8699	0.3091
181.0885	-0.4516
181.307	-0.1284
181.5255	0.101
181.744	-0.1258
181.9625	0.9716
182.181	-0.1066
182.3994	0.7059
182.6179	-0
182.8363	-0
183.0547	-0.1728
183.2732	0.1511
183.4916	0.1905
183.71	0.1481
183.9284	0.2907
184.1467	0.0925
184.3651	-0.0229
184.5835	0.1669
184.8018	0.0455
185.0201	0.2507
185.2385	0.176
185.4568	0.1084
185.6751	0.0271
185.8934	0.2
186.1117	0.0146
186.3299	0.4634
186.5482	0.1452
186.7664	0.0511
186.9847	0.0517
187.2029	0.4915
187.4211	0.052
187.6393	0.1222
187.8575	0.1911
188.0757	0.3136
188.2939	0.1877
188.512	0.5084
188.7302	0.0452
188.9483	0.1125
189.1665	0.6524
189.3846	0.4239
189.6027	-0.0373
189.8208	0.1919
190.0389	0.2548
190.257	0.1362
190.475	0.0968
190.6931	0.0816
190.9111	0.1456
191.1292	0.1317
191.3472	0.0565
191.5652	0.139
191.7832	0.3797
192.0012	0.2676
192.2192	0.211
192.4371	0.1936
192.6551	0.1346
192.873	0.1276
193.091	0.1264
193.3089	0.1872
193.5268	0.3017
193.7447	0.087
193.9626	0.1947
194.1805	0.2173
194.3984	0.2846
194.6162	0.1484
194.8341	0.3524
195.0519	0.2751
195.2697	0.2584
195.4875	0.2873
195.7054	0.3385
195.9231	0.2765
196.1409	0.2732
196.3587	0.346
196.5765	0.3481
196.7942	0.3207
197.012	0.286
197.2297	0.343
197.4474	0.3998
197.6651	0.2955
197.8828	0.4436
198.1005	0.413
198.3182	0.3861
198.5358	0.3431
198.7535	0.3959
198.9711	0.4106
199.1888	0.3428
199.4064	0.4177
199.624	0.3201
199.8416	0.3528
200.0592	0.3891
200.2767	0.3796
200.4943	0.4445
200.7119	0.4305
200.9294	0.4222
201.1469	0.4356
201.3645	0.4968
201.582	0.3733
201.7995	0.4214
202.017	0.4041
202.2344	0.4441
202.4519	0.3881
202.6694	0.4361
202.8868	0.3633
203.1042	0.3904
203.3217	0.43
203.5391	0.3904
203.7565	0.3563
203.9739	0.3785
204.1913	0.3413
204.4086	0.3487
204.626	0.3597
204.8433	0.3585
205.0607	0.3515
205.278	0.3424
205.4953	0.3488
205.7126	0.373
205.9299	0.3585
206.1472	0.3126
206.3644	0.3685
206.5817	0.3085
206.7989	0.3144
207.0162	0.3041
207.2334	0.3239
207.4506	0.3163
207.6678	0.3155
207.885	0.3065
208.1022	0.3309
208.3194	0.2844
208.5365	0.3124
208.7537	0.3072
208.9708	0.3123
209.1879	0.2836
209.405	0.2822
209.6222	0.2956
209.8392	0.2891
210.0563	0.2617
210.2734	0.242
210.4905	0.2724
210.7075	0.2639
210.9245	0.266
211.1416	0.2794
211.3586	0.2486
211.5756	0.2548
211.7926	0.26
212.0096	0.2574
212.2265	0.2652
212.4435	0.2556
212.6604	0.2806
212.8774	0.2459
213.0943	0.2595
213.3112	0.2462
213.5281	0.2546
213.745	0.267
213.9619	0.2601
214.1788	0.2441
214.3956	0.2491
214.6125	0.2265
214.8293	0.2533
215.0461	0.2568
215.2629	0.2524
215.4798	0.2582
215.6965	0.2423
215.9133	0.2273
216.1301	0.2385
216.3469	0.2555
216.5636	0.2598
216.7803	0.2375
216.9971	0.2573
217.2138	0.2445
217.4305	0.2443
217.6472	0.2508
217.8639	0.2428
218.0805	0.2467
218.2972	0.2361
218.5138	0.2581
218.7305	0.2501
218.9471	0.2651
219.1637	0.2624
219.3803	0.2504
219.5969	0.2512
219.8135	0.2622
220.0301	0.2536
220.2466	0.2575
220.4632	0.254
220.6797	0.2718
220.8962	0.2426
221.1127	0.2549
221.3292	0.2686
221.5457	0.2766
221.7622	0.2777
221.9787	0.2803
222.1951	0.2767
222.4116	0.2595
222.628	0.2847
222.8444	0.2773
223.0608	0.2836
223.2772	0.2836
223.4936	0.2804
223.71	0.2899
223.9264	0.2777
224.1427	0.2867
224.3591	0.2834
224.5754	0.2844
224.7917	0.2922
225.008	0.2875
225.2243	0.3057
225.4406	0.2956
225.6569	0.3096
225.8732	0.3154
226.0894	0.3036
226.3057	0.3058
226.5219	0.3152
226.7381	0.3284
226.9543	0.3189
227.1705	0.3093
227.3867	0.3143
227.6029	0.3257
227.8191	0.3332
228.0352	0.3433
228.2513	0.3445
228.4675	0.3344
228.6836	0.3404
228.8997	0.3453
229.1158	0.3624
229.3319	0.35
229.548	0.3506
229.764	0.3521
229.9801	0.3712
230.1961	0.3802
230.4121	0.3641
230.6282	0.3799
230.8442	0.3923
231.0602	0.3829
231.2761	0.3863
231.4921	0.3919
231.7081	0.396
231.924	0.4006
232.14	0.3942
232.3559	0.3995
232.5718	0.4196
232.7877	0.4167
233.0036	0.4039
233.2195	0.4054
233.4353	0.4255
233.6512	0.4175
233.867	0.4304
234.0829	0.4282
234.2987	0.4278
234.5145	0.4339
234.7303	0.4344
234.9461	0.4394
235.1619	0.4421
235.3776	0.4354
235.5934	0.4374
235.8091	0.4432
236.0249	0.4543
236.2406	0.4482
236.4563	0.4514
236.672	0.439
236.8877	0.4486
237.1034	0.4486
237.319	0.4574
237.5347	0.4561
237.7503	0.4486
237.966	0.4586
238.1816	0.4517
238.3972	0.4546
238.6128	0.4597
238.8284	0.4638
239.0439	0.4634
239.2595	0.465
239.475	0.4527
239.6906	0.4682
239.9061	0.4676
240.1216	0.4601
240.3371	0.4576
240.5526	0.4636
240.7681	0.4677
240.9836	0.4444
241.199	0.4598
241.4145	0.4505
241.6299	0.4448
241.8453	0.4395
242.0607	0.4417
242.2761	0.4308
242.4915	0.4321
242.7069	0.4257
242.9223	0.4115
243.1376	0.4025
243.353	0.4043
243.5683	0.4024
243.7836	0.3972
243.9989	0.3745
244.2142	0.3772
244.4295	0.3685
244.6448	0.3725
244.86	0.3562
245.0753	0.354
245.2905	0.3432
245.5057	0.335
245.721	0.3418
245.9362	0.3241
246.1514	0.3209
246.3665	0.3132
246.5817	0.3062
246.7969	0.3033
247.012	0.2965
247.2271	0.2896
247.4423	0.2889
247.6574	0.2799
247.8725	0.2737
248.0876	0.2718
248.3026	0.2688
248.5177	0.2583
248.7328	0.2553
248.9478	0.2538
249.1628	0.2531
249.3779	0.2325
249.5929	0.2418
249.8079	0.2381
250.0228	0.234
250.2378	0.2349
250.4528	0.2292
250.6677	0.2233
250.8827	0.2178
251.0976	0.2167
251.3125	0.2174
251.5274	0.2106
251.7423	0.2096
251.9572	0.2073
252.172	0.2021
252.3869	0.2089
252.6017	0.1998
252.8166	0.2011
253.0314	0.1995
253.2462	0.1979
253.461	0.1994
253.6758	0.1912
253.8906	0.1951
254.1053	0.1915
254.3201	0.1969
254.5348	0.1855
254.7496	0.1874
254.9643	0.1879
255.179	0.1848
255.3937	0.1892
255.6083	0.1907
255.823	0.1822
256.0377	0.1824
256.2523	0.177
256.467	0.1863
256.6816	0.18
256.8962	0.1842
257.1108	0.1858
257.3254	0.1846
257.54	0.184
257.7545	0.1787
257.9691	0.1826
258.1836	0.1719
258.3981	0.177
258.6127	0.1722
258.8272	0.1845
259.0417	0.1795
259.2561	0.1731
259.4706	0.1776
259.6851	0.1778
259.8995	0.1814
260.114	0.1803
260.3284	0.1756
260.5428	0.1773
260.7572	0.1794
260.9716	0.1801
261.186	0.1723
261.4003	0.1727
261.6147	0.1764
261.829	0.1762
262.0433	0.1757
262.2577	0.1801
262.472	0.1779
262.6863	0.1846
262.9005	0.1818
263.1148	0.1792
263.3291	0.1797
263.5433	0.1794
263.7576	0.1825
263.9718	0.1812
264.186	0.1813
264.4002	0.1807
264.6144	0.1889
264.8286	0.1847
265.0427	0.19
265.2569	0.1834
265.471	0.18
265.6851	0.1823
265.8993	0.1827
266.1134	0.1823
266.3275	0.1828
266.5415	0.1888
266.7556	0.1916
266.9697	0.1874
267.1837	0.1876
267.3978	0.1929
267.6118	0.1845
267.8258	0.1899
268.0398	0.1901
268.2538	0.1883
268.4677	0.1845
268.6817	0.1791
268.8957	0.1736
269.1096	0.1784
269.3235	0.1879
269.5374	0.1868
269.7514	0.1766
269.9652	0.177
270.1791	0.1749
270.393	0.1783
270.6068	0.1806
270.8207	0.1789
271.0345	0.1753
271.2483	0.1712
271.4622	0.1793
271.676	0.1786
271.8897	0.1757
272.1035	0.183
272.3173	0.1739
272.531	0.1808
272.7448	0.1792
272.9585	0.1747
273.1722	0.1731
273.3859	0.1828
273.5996	0.1789
273.8133	0.1788
274.0269	0.1801
274.2406	0.1777
274.4542	0.1814
274.6679	0.1777
274.8815	0.1806
275.0951	0.187
275.3087	0.182
275.5223	0.1869
275.7358	0.1904
275.9494	0.1906
276.1629	0.1895
276.3765	0.1897
276.59	0.1805
276.8035	0.1845
277.017	0.1888
277.2305	0.1886
277.444	0.1889
277.6574	0.1906
277.8709	0.1922
278.0843	0.1944
278.2978	0.1907
278.5112	0.1919
278.7246	0.1896
278.938	0.192
279.1513	0.1966
279.3647	0.189
279.5781	0.1899
279.7914	0.1852
280.0047	0.186
280.2181	0.1825
280.4314	0.1849
280.6447	0.1905
280.8579	0.1824
281.0712	0.1905
281.2845	0.1881
281.4977	0.1872
281.711	0.183
281.9242	0.1895
282.1374	0.1878
282.3506	0.1876
282.5638	0.1872
282.7769	0.1841
282.9901	0.1902
283.2033	0.1859
283.4164	0.1819
283.6295	0.1866
283.8426	0.1827
284.0557	0.1856
284.2688	0.1875
284.4819	0.1825
284.695	0.1924
284.908	0.1834
285.1211	0.1889
285.3341	0.1807
285.5471	0.1885
285.7601	0.1816
285.9731	0.1859
286.1861	0.1873
286.3991	0.1863
286.612	0.1817
286.825	0.1881
287.0379	0.1869
287.2508	0.1917
287.4637	0.1884
287.6766	0.1871
287.8895	0.1824
288.1024	0.1886
288.3152	0.1892
288.5281	0.1853
288.7409	0.1925
288.9538	0.1816
289.1666	0.1872
289.3794	0.1825
289.5922	0.1774
289.8049	0.1877
290.0177	0.1866
290.2304	0.1843
290.4432	0.1921
290.6559	0.1884
290.8686	0.1934
291.0813	0.1899
291.294	0.1912
291.5067	0.1898
291.7194	0.1853
291.932	0.1843
292.1447	0.1871
292.3573	0.1891
292.5699	0.1922
292.7825	0.1847
292.9951	0.1876
293.2077	0.1882
293.4203	0.1887
293.6328	0.1848
293.8454	0.1879
294.0579	0.1886
294.2704	0.1928
294.4829	0.186
294.6954	0.187
294.9079	0.1867
295.1204	0.1879
295.3328	0.188
295.5453	0.1879
295.7577	0.1885
295.9701	0.1896
296.1825	0.1877
296.3949	0.1859
296.6073	0.1833
296.8197	0.1889
297.0321	0.1895
297.2444	0.1869
297.4567	0.1861
297.6691	0.1833
297.8814	0.1893
298.0937	0.1842
298.306	0.1832
298.5182	0.1885
298.7305	0.1904
298.9428	0.1846
299.155	0.1816
299.3672	0.1868
299.5794	0.1878
299.7916	0.1885
300.0038	0.1873
300.216	0.1854
300.4282	0.1905
300.6403	0.1908
300.8525	0.1849
301.0646	0.1905
301.2767	0.192
301.4888	0.1845
301.7009	0.1913
301.913	0.1865
302.125	0.1874
302.3371	0.1868
302.5491	0.1859
302.7612	0.1942
302.9732	0.1935
303.1852	0.1861
303.3972	0.1905
303.6092	0.1883
303.8211	0.1858
304.0331	0.191
304.245	0.1841
304.457	0.1845
304.6689	0.1864
304.8808	0.1866
305.0927	0.1911
305.3046	0.1815
305.5164	0.1769
305.7283	0.1796
305.9401	0.1722
306.152	0.1769
306.3638	0.1768
306.5756	0.1802
306.7874	0.1721
306.9992	0.1717
307.2109	0.1664
307.4227	0.1744
307.6344	0.1758
307.8462	0.1658
308.0579	0.1682
308.2696	0.1681
308.4813	0.1705
308.693	0.1608
308.9046	0.167
309.1163	0.1588
309.328	0.1623
309.5396	0.1514
309.7512	0.158
309.9628	0.1515
310.1744	0.1486
310.386	0.1516
310.5976	0.1506
310.8091	0.1539
311.0207	0.1468
311.2322	0.1478
311.4437	0.1454
311.6552	0.1459
311.8667	0.145
312.0782	0.1453
312.2897	0.1445
312.5012	0.142
312.7126	0.1371
312.924	0.144
313.1355	0.1393
313.3469	0.1378
313.5583	0.1394
313.7696	0.1347
313.981	0.137
314.1924	0.1344
314.4037	0.1333
314.6151	0.1345
314.8264	0.1358
315.0377	0.1342
315.249	0.1374
315.4603	0.1266
315.6716	0.1342
315.8828	0.1302
316.0941	0.1329
316.3053	0.1356
316.5165	0.131
316.7277	0.1295
316.9389	0.134
317.1501	0.1291
317.3613	0.13
317.5724	0.1301
317.7836	0.1245
317.9947	0.1271
318.2058	0.1317
318.417	0.1272
318.6281	0.1284
318.8391	0.1309
319.0502	0.1308
319.2613	0.1323
319.4723	0.1247
319.6834	0.1288
319.8944	0.1299
320.1054	0.1323
320.3164	0.1263
320.5274	0.1284
320.7383	0.1363
320.9493	0.1306
321.1602	0.1227
321.3712	0.1276
321.5821	0.1253
321.793	0.1313
322.0039	0.133
322.2148	0.1304
322.4257	0.1232
322.6365	0.1215
322.8474	0.1322
323.0582	0.1286
323.269	0.1271
323.4798	0.1305
323.6906	0.1243
323.9014	0.128
324.1122	0.1225
324.3229	0.1322
324.5337	0.138
324.7444	0.132
324.9551	0.1356
325.1658	0.1323
325.3765	0.134
325.5872	0.1315
325.7979	0.1305
326.0085	0.1307
326.2192	0.1285
326.4298	0.1371
326.6404	0.1374
326.851	0.1314
327.0616	0.1358
327.2722	0.1327
327.4828	0.1349
327.6933	0.1396
327.9039	0.133
328.1144	0.137
328.3249	0.1374
328.5354	0.137
328.7459	0.1338
328.9564	0.1402
329.1669	0.1421
329.3773	0.1387
329.5878	0.138
329.7982	0.1456
330.0086	0.1431
330.219	0.1329
330.4294	0.143
330.6398	0.1452
330.8502	0.1458
331.0605	0.1393
331.2708	0.1342
331.4812	0.1438
331.6915	0.1431
331.9018	0.1435
332.1121	0.1448
332.3224	0.142
332.5326	0.1388
332.7429	0.1386
332.9531	0.1481
333.1633	0.1402
333.3735	0.1434
333.5837	0.1492
333.7939	0.1434
334.0041	0.143
334.2143	0.1414
334.4244	0.1474
334.6346	0.1427
334.8447	0.1433
335.0548	0.1485
335.2649	0.1473
335.475	0.1397
335.685	0.1418
335.8951	0.1424
336.1051	0.1463
336.3152	0.1478
336.5252	0.142
336.7352	0.1484
336.9452	0.1446
337.1552	0.1376
337.3652	0.1418
337.5751	0.142
337.7851	0.1439
337.995	0.1445
338.2049	0.1433
338.4148	0.1483
338.6247	0.1479
338.8346	0.1479
339.0445	0.1444
339.2543	0.1484
339.4642	0.1426
339.674	0.145
339.8838	0.1455
340.0936	0.1419
340.3034	0.1416
340.5132	0.1424
340.7229	0.1543
340.9327	0.1546
341.1424	0.149
341.3522	0.1436
341.5619	0.1485
341.7716	0.147
341.9813	0.1587
342.1909	0.1545
342.4006	0.1525
342.6102	0.1517
342.8199	0.1544
343.0295	0.1501
343.2391	0.1568
343.4487	0.158
343.6583	0.1697
343.8679	0.1536
344.0774	0.1553
344.287	0.1592
344.4965	0.1592
344.706	0.1611
344.9155	0.1624
345.125	0.1569
345.3345	0.1695
345.544	0.1647
345.7534	0.1682
345.9629	0.1672
346.1723	0.162
346.3817	0.1669
346.5911	0.1637
346.8005	0.1755
347.0099	0.1694
347.2193	0.1711
347.4286	0.1762
347.638	0.1771
347.8473	0.1718
348.0566	0.1677
348.2659	0.1743
348.4752	0.1794
348.6845	0.1709
348.8937	0.1694
349.103	0.1751
349.3122	0.1733
349.5214	0.1851
349.7306	0.181
349.9398	0.178
350.149	0.1687
350.3582	0.178
350.5674	0.1764
350.7765	0.182
350.9856	0.1777
351.1948	0.1807
351.4039	0.1836
351.613	0.1785
351.822	0.1798
352.0311	0.1821
352.2402	0.19
352.4492	0.1776
352.6582	0.1821
352.8672	0.1787
353.0762	0.1808
353.2852	0.1817
353.4942	0.1905
353.7032	0.1819
353.9121	0.1878
354.1211	0.1887
354.33	0.1892
354.5389	0.1818
354.7478	0.1801
354.9567	0.1837
355.1655	0.1833
355.3744	0.1841
355.5833	0.1877
355.7921	0.1888
356.0009	0.1839
356.2097	0.1783
356.4185	0.182
356.6273	0.1886
356.8361	0.191
357.0448	0.1849
357.2536	0.184
357.4623	0.1876
357.671	0.1916
357.8797	0.194
358.0884	0.1867
358.2971	0.1858
358.5057	0.193
358.7144	0.1907
358.923	0.1813
359.1316	0.1985
359.3402	0.1937
359.5488	0.1872
359.7574	0.194
359.966	0.1979
360.1746	0.1929
360.3831	0.2
360.5916	0.1999
360.8002	0.206
361.0087	0.2021
361.2172	0.2025
361.4256	0.2
361.6341	0.2023
361.8426	0.1997
362.051	0.2091
362.2594	0.2071
362.4678	0.2072
362.6762	0.2016
362.8846	0.2034
363.093	0.2051
363.3014	0.2134
363.5097	0.2132
363.718	0.2108
363.9264	0.2096
364.1347	0.2096
364.343	0.2161
364.5513	0.2208
364.7595	0.2301
364.9678	0.2117
365.176	0.2167
365.3842	0.2184
365.5925	0.2163
365.8007	0.2162
366.0089	0.2205
366.217	0.2186
366.4252	0.2114
366.6333	0.2283
366.8415	0.2221
367.0496	0.2229
367.2577	0.231
367.4658	0.2209
367.6739	0.2242
367.882	0.2255
368.09	0.2222
368.2981	0.2366
368.5061	0.2328
368.7141	0.2235
368.9221	0.2368
369.1301	0.2243
369.3381	0.2331
369.5461	0.2424
369.754	0.2356
369.962	0.2327
370.1699	0.2412
370.3778	0.2435
370.5857	0.2333
370.7936	0.2377
371.0015	0.2417
371.2093	0.2371
371.4172	0.2383
371.625	0.2416
371.8328	0.2419
372.0406	0.254
372.2484	0.2439
372.4562	0.2397
372.664	0.2405
372.8717	0.2414
373.0795	0.2461
373.2872	0.2522
373.4949	0.2459
373.7026	0.2433
373.9103	0.2473
374.118	0.2506
374.3256	0.2546
374.5333	0.2552
374.7409	0.2479
374.9485	0.255
375.1561	0.2598
375.3637	0.2521
375.5713	0.2585
375.7789	0.2558
375.9864	0.2594
376.194	0.2641
376.4015	0.2659
376.609	0.2586
376.8165	0.2612
377.024	0.2523
377.2315	0.2646
377.4389	0.2618
377.6464	0.2659
377.8538	0.272
378.0612	0.2621
378.2686	0.2646
378.476	0.2725
378.6834	0.2723
378.8908	0.2692
379.0981	0.267
379.3055	0.2764
379.5128	0.2614
379.7201	0.266
379.9274	0.2693
380.1347	0.2728
380.342	0.2739
380.5492	0.2731
380.7565	0.2696
380.9637	0.272
381.1709	0.2722
381.3781	0.2776
381.5853	0.274
381.7925	0.2756
381.9997	0.2825
382.2068	0.2862
382.4139	0.2783
382.6211	0.283
382.8282	0.2846
383.0353	0.2861
383.2424	0.2705
383.4494	0.2756
383.6565	0.2821
383.8635	0.2753
384.0706	0.2839
384.2776	0.2825
384.4846	0.2835
384.6916	0.2749
384.8986	0.2745
385.1055	0.2921
385.3125	0.2908
385.5194	0.2852
385.7263	0.2778
385.9333	0.2849
386.1402	0.2773
386.347	0.2817
386.5539	0.2871
386.7608	0.2831
386.9676	0.2776
387.1744	0.2728
387.3813	0.2934
387.5881	0.2739
387.7948	0.2908
388.0016	0.29
388.2084	0.2895
388.4151	0.2863
388.6219	0.2737
388.8286	0.2929
389.0353	0.2793
389.242	0.2859
389.4487	0.2828
389.6553	0.2756
389.862	0.2718
390.0686	0.2812
390.2753	0.2786
390.4819	0.2792
390.6885	0.2785
390.8951	0.2708
391.1016	0.2796
391.3082	0.2771
391.5147	0.2685
391.7213	0.2727
391.9278	0.2685
392.1343	0.2705
392.3408	0.2715
392.5473	0.2689
392.7537	0.2644
392.9602	0.2626
393.1666	0.2694
393.373	0.2586
393.5794	0.254
393.7858	0.2593
393.9922	0.2514
394.1986	0.2555
394.4049	0.2559
394.6113	0.2518
394.8176	0.2595
395.0239	0.2432
395.2302	0.2495
395.4365	0.2505
395.6428	0.2586
395.8491	0.256
396.0553	0.2448
396.2615	0.2509
396.4678	0.2487
396.674	0.2408
396.8802	0.2465
397.0863	0.246
397.2925	0.2476
397.4987	0.2512
397.7048	0.2508
397.9109	0.2382
398.117	0.2432
398.3231	0.2411
398.5292	0.2301
398.7353	0.2418
398.9413	0.2431
399.1474	0.2344
399.3534	0.2417
399.5594	0.2408
399.7654	0.2432
399.9714	0.2395
400.1774	0.2327
400.3833	0.2351
400.5893	0.2372
400.7952	0.2457
401.0011	0.2364
401.207	0.2331
401.4129	0.239
401.6188	0.2354
401.8247	0.2358
402.0305	0.2395
402.2364	0.2422
402.4422	0.2377
402.648	0.2403
402.8538	0.2343
403.0596	0.231
403.2654	0.2378
403.4711	0.2314
403.6768	0.2329
403.8826	0.2421
404.0883	0.2373
404.294	0.2344
404.4997	0.2328
404.7054	0.2447
404.911	0.2336
405.1167	0.2314
405.3223	0.2335
405.5279	0.2346
405.7335	0.2319
405.9391	0.2345
406.1447	0.241
406.3502	0.2331
406.5558	0.2342
406.7613	0.2371
406.9668	0.2399
407.1724	0.2309
407.3778	0.2481
407.5833	0.2375
407.7888	0.2423
407.9942	0.2423
408.1997	0.2393
408.4051	0.2395
408.6105	0.2401
408.8159	0.2425
409.0213	0.2366
409.2267	0.2379
409.432	0.2378
409.6374	0.2433
409.8427	0.2398
410.048	0.2443
410.2533	0.2317
410.4586	0.2349
410.6639	0.2322
410.8691	0.2285
411.0744	0.2309
411.2796	0.2388
411.4848	0.2332
411.69	0.2253
411.8952	0.2354
412.1004	0.227
412.3056	0.2364
412.5107	0.2336
412.7158	0.242
412.921	0.2389
413.1261	0.2326
413.3312	0.236
413.5362	0.2451
413.7413	0.242
413.9464	0.2303
414.1514	0.2308
414.3564	0.2271
414.5614	0.2379
414.7664	0.2232
414.9714	0.2232
415.1764	0.2313
415.3813	0.2224
415.5863	0.2302
415.7912	0.2236
415.9961	0.2344
416.201	0.2402
416.4059	0.2286
416.6108	0.233
416.8156	0.2366
417.0205	0.225
417.2253	0.232
417.4301	0.238
417.6349	0.2299
417.8397	0.2293
418.0445	0.2203
418.2492	0.2241
418.454	0.225
418.6587	0.226
418.8634	0.2258
419.0681	0.2268
419.2728	0.2295
419.4775	0.2313
419.6822	0.2192
419.8868	0.2174
420.0915	0.2194
420.2961	0.2161
420.5007	0.2249
420.7053	0.217
420.9099	0.2251
421.1144	0.2187
421.319	0.219
421.5235	0.2172
421.728	0.2194
421.9325	0.2199
422.137	0.2042
422.3415	0.2107
422.546	0.2109
422.7504	0.2148
422.9549	0.2158
423.1593	0.206
423.3637	0.21
423.5681	0.2137
423.7725	0.2117
423.9769	0.2104
424.1812	0.1997
424.3856	0.2123
424.5899	0.2025
424.7942	0.1969
424.9985	0.2022
425.2028	0.2074
425.4071	0.2153
425.6113	0.1963
425.8156	0.2022
426.0198	0.1969
426.224	0.2026
426.4282	0.1919
426.6324	0.1968
426.8366	0.1834
427.0407	0.1967
427.2449	0.2016
427.449	0.1964
427.6531	0.1996
427.8572	0.1959
428.0613	0.1895
428.2654	0.1886
428.4694	0.1896
428.6735	0.1881
428.8775	0.1879
429.0815	0.1804
429.2855	0.1807
429.4895	0.181
429.6935	0.1722
429.8975	0.1726
430.1014	0.1804
430.3053	0.1895
430.5093	0.1775
430.7132	0.173
430.9171	0.1712
431.1209	0.1784
431.3248	0.1631
431.5286	0.1627
431.7325	0.1756
431.9363	0.1664
432.1401	0.1567
432.3439	0.1679
432.5477	0.153
432.7514	0.1516
432.9552	0.1566
433.1589	0.1497
433.3627	0.1561
433.5664	0.1519
433.7701	0.149
433.9737	0.1487
434.1774	0.1434
434.3811	0.1453
434.5847	0.1458
434.7883	0.1507
434.9919	0.1339
435.1955	0.1434
435.3991	0.1385
435.6027	0.1335
435.8062	0.1521
436.0098	0.1302
436.2133	0.1291
436.4168	0.1222
436.6203	0.1259
436.8238	0.1277
437.0272	0.127
437.2307	0.1277
437.4341	0.129
437.6375	0.1223
437.841	0.1117
438.0443	0.1213
438.2477	0.1126
438.4511	0.1025
438.6545	0.1161
438.8578	0.1162
439.0611	0.1128
439.2644	0.1205
439.4677	0.1069
439.671	0.102
439.8743	0.1076
440.0775	0.1088
440.2808	0.1008
440.484	0.1073
440.6872	0.1028
440.8904	0.0844
441.0936	0.1015
441.2967	0.0843
441.4999	0.0829
441.703	0.0874
441.9062	0.092
442.1093	0.1016
442.3124	0.085
442.5155	0.0819
442.7185	0.0844
442.9216	0.0847
443.1246	0.0845
443.3276	0.0862
443.5307	0.0753
443.7337	0.0746
443.9366	0.0691
444.1396	0.0735
444.3426	0.0756
444.5455	0.0713
444.7484	0.0675
444.9513	0.0679
445.1542	0.0692
445.3571	0.0718
445.56	0.0624
445.7628	0.0704
445.9657	0.0628
446.1685	0.0685
446.3713	0.0681
446.5741	0.0606
446.7769	0.063
446.9797	0.0617
447.1824	0.0488
447.3852	0.0489
447.5879	0.0549
447.7906	0.0511
447.9933	0.0559
448.196	0.0444
448.3986	0.0518
448.6013	0.0411
448.8039	0.0562
449.0066	0.0584
449.2092	0.0538
449.4118	0.0586
449.6143	0.0514
449.8169	0.0508
450.0195	0.0473
450.222	0.0511
450.4245	0.052
450.627	0.0423
450.8295	0.0423
451.032	0.036
451.2345	0.0353
451.4369	0.039
451.6394	0.0363
451.8418	0.0363
452.0442	0.041
452.2466	0.0306
452.449	0.0404
452.6513	0.0376
452.8537	0.0331
453.056	0.0342
453.2583	0.0341
453.4607	0.0246
453.663	0.0298
453.8652	0.0282
454.0675	0.0399
454.2697	0.029
454.472	0.0272
454.6742	0.0405
454.8764	0.0398
455.0786	0.0206
455.2808	0.0325
455.4829	0.0353
455.6851	0.0297
455.8872	0.0132
456.0893	0.0282
456.2915	0.0219
456.4935	0.0351
456.6956	0.0236
456.8977	0.0249
457.0997	0.0332
457.3018	0.0282
457.5038	0.03
457.7058	0.0312
457.9078	0.0271
458.1098	0.0278
458.3117	0.0356
458.5137	0.0146
458.7156	0.0223
458.9175	0.0247
459.1194	0.0211
459.3213	0.0136
459.5232	0.0193
459.725	0.019
459.9269	0.0265
460.1287	0.0141
460.3305	0.026
460.5323	0.0219
460.7341	0.0215
460.9359	0.0102
461.1376	0.0149
461.3394	0.0247
461.5411	0.0224
461.7428	0.0222
461.9445	0.0212
462.1462	0.016
462.3479	0.0087
462.5495	0.0209
462.7512	0.0256
462.9528	0.0131
463.1544	0.0123
463.356	0.0045
463.5576	0.0162
463.7592	0.0196
463.9607	0.0077
464.1623	0.0147
464.3638	0.0111
464.5653	0.0178
464.7668	0.0206
464.9683	0.0019
465.1697	0.0141
465.3712	0.0041
465.5726	0.0091
465.7741	0.0233
465.9755	0.0173
466.1769	0.0168
466.3782	0.0055
466.5796	0.0119
466.7809	0.0182
466.9823	0.0106
467.1836	0.0123
467.3849	0.0126
467.5862	0.0129
467.7875	0.005
467.9887	0.0194
468.19	0.0107
468.3912	0.0164
468.5924	0.0007
468.7936	0.0123
468.9948	0.0081
469.196	0.0173
469.3972	0.0115
469.5983	0.004
469.7994	0.0058
470.0006	0.0117
470.2017	0.0051
470.4027	0.0276
470.6038	0.0059
470.8049	0.0112
471.0059	0.0165
471.2069	0.0136
471.408	0.0184
471.6089	0.0123
471.8099	0.0123
472.0109	0.0065
472.2119	0.0152
472.4128	0.0021
472.6137	0.0086
472.8146	0.0068
473.0155	0.0118
473.2164	0.0104
473.4173	0.0081
473.6181	-0.0014
473.819	0.0178
474.0198	0.0052
474.2206	0
474.4214	0.0091
474.6222	0.0028
474.8229	0.0058
475.0237	0.0124
475.2244	0.0078
475.4251	0.0074
475.6258	0.0061
475.8265	0.0115
476.0272	-0.0061
476.2278	0.0148
476.4285	0.0011
476.6291	0.005
476.8297	0.0135
477.0303	-0.002
477.2309	0.0129
477.4315	0.0075
477.632	-0
477.8326	0.0131
478.0331	0.008
478.2336	0.0027
478.4341	0.0106
478.6346	-0.0009
478.8351	0.0044
479.0355	0.0173
479.236	0.0206
479.4364	0.0058
479.6368	0.0055
479.8372	0.009
480.0376	-0.0005
480.2379	0.0109
480.4383	0.0134
480.6386	0.0015
480.8389	-0.0026
481.0392	0.0003
481.2395	0.0078
481.4398	0.0021
481.6401	0.0071
481.8403	0.0139
482.0405	0.0022
482.2408	0.0097
482.441	0.0089
482.6411	0.0097
482.8413	-0.0023
483.0415	0.0116
483.2416	0.0017
483.4417	0.0078
483.6419	0.0023
483.8419	0.0012
484.042	0.0082
484.2421	-0.001
484.4422	0.004
484.6422	0.0048
484.8422	0.004
485.0422	0.0057
485.2422	0.0014
485.4422	0.0033
485.6422	0.0045
485.8421	0.0036
486.042	0.0119
486.242	0.0024
486.4419	0.0085
486.6417	0.0005
486.8416	0.0083
487.0415	0.0024
487.2413	0.001
487.4411	0.0043
487.641	0.0029
487.8408	0.0076
488.0405	0.0148
488.2403	0.0006
488.4401	0.0066
488.6398	0.0099
488.8395	0.0096
489.0392	0.012
489.2389	0.0131
489.4386	-0.0015
489.6383	0.0114
489.8379	0.0067
490.0376	0.0083
490.2372	-0.0003
490.4368	-0.0005
490.6364	-0.0003
490.836	-0.0058
491.0355	-0.0043
491.2351	0.0012
491.4346	0.0063
491.6341	0.0006
491.8336	0.0015
492.0331	0.001
492.2326	-0.0007
492.432	0.0005
492.6315	0.0047
492.8309	0.0071
493.0303	0.0025
493.2297	0.006
493.4291	-0.0078
493.6284	0.0131
493.8278	0.0035
494.0271	0.0073
494.2264	0.0013
494.4257	0.0101
494.625	0.0073
494.8243	0.0063
495.0236	0.0073
495.2228	0.0056
495.422	0.0027
495.6213	0.004
495.8205	0.0098
496.0196	0.0018
496.2188	0.0054
496.418	0.0062
496.6171	0.0061
496.8162	0.0045
497.0153	0.0104
497.2144	0.0051
497.4135	0.0016
497.6126	-0.0008
497.8116	-0.0044
498.0107	0.0093
498.2097	0.0067
498.4087	0.007
498.6077	-0.0049
498.8067	0.0053
499.0056	0.005
499.2046	0.0081
499.4035	0.0085
499.6024	-0.0003
499.8013	0.0073
500.0002	0.0051
500.199	0.007
500.3979	0.0026
500.5967	0.0055
500.7956	0.0064
500.9944	-0
501.1932	0.009
501.3919	0.0121
501.5907	0.0142
501.7895	-0.0015
501.9882	0.0031
502.1869	0.0053
502.3856	0.0128
502.5843	0.0066
502.783	0.0025
502.9816	0.0081
503.1803	0.0047
503.3789	0.01
503.5775	0.0061
503.7761	-0.0007
503.9747	0.0059
504.1732	0.0009
504.3718	0.0058
504.5703	0.0088
504.7689	-0.0099
504.9674	-0.0036
505.1658	-0.0029
505.3643	0.0044
505.5628	0.0067
505.7612	0.0105
505.9597	0.0032
506.1581	0.0021
506.3565	0.0021
506.5549	0.011
506.7532	-0.0024
506.9516	0.0082
507.1499	-0.0002
507.3482	0.004
507.5465	0.0049
507.7448	0.006
507.9431	0.0087
508.1414	0.006
508.3396	0.0066
508.5379	0.0058
508.7361	0.0052
508.9343	0.0041
509.1325	0.0099
509.3306	0.0011
509.5288	-0.0046
509.7269	0.0095
509.9251	0.0098
510.1232	0.0027
510.3213	0.0098
510.5193	0.0027
510.7174	-0.0071
510.9154	0.0069
511.1135	-0.0019
511.3115	-0.0036
511.5095	-0
511.7075	0.0055
511.9055	0.0044
512.1034	0.0033
512.3014	0.0046
512.4993	0.014
512.6972	0.0049
512.8951	0.001
513.093	0.0052
513.2908	0.0035
513.4887	0.0003
513.6865	0.0101
513.8844	0.0061
514.0822	0.0104
514.2799	0.0008
514.4777	-0.0012
514.6755	0.0032
514.8732	0.0077
515.0709	0.0056
515.2687	0.0028
515.4664	0.013
515.664	0.0145
515.8617	0.0101
516.0594	0.0162
516.257	0.0085
516.4546	0.0196
516.6522	0.0041
516.8498	0.0067
517.0474	0.0099
517.2449	0.0017
517.4425	0.0038
517.64	0.0078
517.8375	0.0137
518.035	-0.0023
518.2325	-0.0067
518.43	0.0115
518.6274	0.0024
518.8249	0.0028
519.0223	0.0103
519.2197	0.0111
519.4171	0.0087
519.6145	0.0079
519.8118	0.004
520.0092	-0.0035
520.2065	0.0104
520.4038	0.0024
520.6011	0.0113
520.7984	0.0103
520.9956	0.0083
521.1929	0.0098
521.3901	0.0134
521.5874	0.013
521.7846	0.003
521.9818	0.0044
522.1789	0.0002
522.3761	0.0215
522.5732	-0.002
522.7704	-0.0026
522.9675	-0.0012
523.1646	-0.0016
523.3617	0.0137
523.5587	0.0081
523.7558	0.0034
523.9528	0.005
524.1498	0.0069
524.3468	0.0041
524.5438	0.0022
524.7408	0.0042
524.9378	0.0141
525.1347	0.0084
525.3316	-0.0004
525.5285	0.0052
525.7254	0.0103
525.9223	0.0081
526.1192	0.0127
526.316	0.0052
526.5129	0.0114
526.7097	0.0068
526.9065	0.0115
527.1033	0.016
527.3	0.0053
527.4968	0.0126
527.6935	-0.0125
527.8903	0.0064
528.087	0.0036
528.2837	0.0117
528.4804	-0.0015
528.677	0.011
528.8737	0.0063
529.0703	-0.002
529.2669	0.0087
529.4635	0.0019
529.6601	0.0001
529.8567	-0.0027
530.0532	0.0065
530.2498	-0.0011
530.4463	-0.0075
530.6428	0.0073
530.8393	0.0191
531.0358	0.0027
531.2322	-0.0062
531.4287	0.0066
531.6251	-0.0053
531.8215	0.0057
532.0179	0.0049
532.2143	0.0112
532.4107	0.0127
532.607	0.0032
532.8034	0.0027
532.9997	0.0003
533.196	0.0027
533.3923	0.014
533.5886	0.0096
533.7848	0.0095
533.9811	0.0059
534.1773	0.0067
534.3735	0.0075
534.5697	0.0104
534.7659	0.0007
534.9621	0.0099
535.1582	0.0072
535.3544	0.0037
535.5505	0.0107
535.7466	0.0076
535.9427	0.0037
536.1387	0.004
536.3348	0.0065
536.5308	0.0089
536.7269	-0
536.9229	0.0119
537.1189	0.0112
537.3148	0.0098
537.5108	0.0088
537.7068	0.0092
537.9027	-0.0093
538.0986	0.0081
538.2945	0.0015
538.4904	-0.003
538.6863	0.0061
538.8821	0.0113
539.078	0.004
539.2738	0.0027
539.4696	-0.0012
539.6654	0.0099
539.8611	0.0095
540.0569	0.0065
540.2526	0.0095
540.4484	0.0075
540.6441	0.0108
540.8398	0.0131
541.0355	0.0007
541.2311	0.0006
541.4268	0.0098
541.6224	0.0133
541.818	0.01
542.0136	0.0035
542.2092	0.0136
542.4048	0.0055
542.6003	0.0029
542.7959	0.0065
542.9914	0.0056
543.1869	0.006
543.3824	0
543.5779	0.0146
543.7734	0.0054
543.9688	0.0078
544.1642	0.0045
544.3596	0.0104
544.555	0.0001
544.7504	0.0153
544.9458	0.006
545.1411	0.0098
545.3365	0.0059
545.5318	0.0028
545.7271	0.0109
545.9224	0.004
546.1177	0.0078
546.3129	0.0061
546.5081	0.0065
546.7034	0.0043
546.8986	0.0099
547.0938	0.0114
547.289	0.012
547.4841	0.0128
547.6793	0.0001
547.8744	0.014
548.0695	-0.0025
548.2646	0.0046
548.4597	-0.0035
548.6548	0.0098
548.8498	0.0129
549.0448	0.0051
549.2399	0.0169
549.4349	-0.0005
549.6298	0.0133
549.8248	0.0047
550.0198	0.0094
550.2147	0.0066
550.4096	-0.0002
550.6045	0.0004
550.7994	0.0105
550.9943	0.012
551.1892	-0.0021
551.384	0.0157
551.5788	0.0148
551.7737	0.0113
551.9685	0.0114
552.1632	0.004
552.358	0.0069
552.5528	-0.0038
552.7475	0.0065
552.9422	-0.0002
553.1369	0.0132
553.3316	0.0107
553.5263	0.0113
553.7209	-0.0016
553.9156	0.0053
554.1102	0.0099
554.3048	-0.0076
554.4994	0.0053
554.694	-0.0004
554.8885	0.0098
555.0831	0.0088
555.2776	0.0034
555.4721	0.009
555.6666	0.0008
555.8611	0.0045
556.0555	0.0079
556.25	0.0089
556.4444	-0.0009
556.6388	-0.0003
556.8332	-0.0039
557.0276	0.0096
557.222	0.0024
557.4163	0.0118
557.6107	-0.0077
557.805	0.0028
557.9993	0.0062
558.1936	0.0006
558.3879	0.0009
558.5821	0.0005
558.7764	-0.0001
558.9706	-0.0022
559.1648	0.0132
559.359	-0.004
559.5532	0.0063
559.7473	-0.0005
559.9415	0.0113
560.1356	0.0178
560.3297	0.0009
560.5238	0.0112
560.7179	0.0076
560.9119	-0.0003
561.106	-0.0001
561.3	0.0026
561.494	-0.0001
561.688	0.003
561.882	0.0028
562.076	0.0143
562.2699	0.0142
562.4639	0.0138
562.6578	0.0073
562.8517	-0.0008
563.0456	0.0075
563.2395	0.0115
563.4333	0.0087
563.6272	0.0045
563.821	-0.0016
564.0148	0.0056
564.2086	0.0066
564.4024	0.0156
564.5961	0.0184
564.7899	0.0152
564.9836	0.0042
565.1773	0.0191
565.371	0.0023
565.5647	0.0117
565.7584	0.0103
565.952	-0.0021
566.1456	0.0059
566.3393	-0.0006
566.5329	0.0005
566.7264	0.0096
566.92	0.0009
567.1136	0
567.3071	-0.0069
567.5006	0.0067
567.6941	0.0058
567.8876	0.0004
568.0811	0.0181
568.2745	-0.0021
568.468	0.012
568.6614	0.0062
568.8548	0.005
569.0482	0.0056
569.2416	0.0083
569.4349	0.0074
569.6283	0.0009
569.8216	0.0066
570.0149	-0.0033
570.2082	0.0112
570.4015	0.0013
570.5947	0.0034
570.788	0.012
570.9812	0.0001
571.1744	0.0061
571.3676	0.0007
571.5608	0.0051
571.754	0.0086
571.9471	0.0141
572.1402	0.0037
572.3333	0.0068
572.5264	0.0041
572.7195	0.0039
572.9126	0.0002
573.1057	0.0111
573.2987	0.0025
573.4917	0.0005
573.6847	0.0011
573.8777	0.01
574.0707	0.0038
574.2636	0.0044
574.4566	-0.0011
574.6495	0.0019
574.8424	0.0084
575.0353	0.005
575.2281	0.0099
575.421	0.0013
575.6138	0.0018
575.8067	0.0069
575.9995	-0.0002
576.1923	0.0061
576.385	0.0051
576.5778	0.0057
576.7706	0.0082
576.9633	0.0049
577.156	-0.0008
577.3487	0.0061
577.5414	0.0047
577.734	0.0023
577.9267	0.0056
578.1193	0.0079
578.3119	0.0056
578.5045	0.0071
578.6971	0.0031
578.8897	0.0039
579.0822	0.0132
579.2747	0.0058
579.4673	0.0098
579.6598	0.007
579.8522	0.0056
580.0447	0.0102
580.2372	0.0122
580.4296	0.0082
580.622	0.0046
580.8144	0.0059
581.0068	0.0038
581.1992	0.0064
581.3915	0
581.5839	0.0047
581.7762	0.0042
581.9685	0.0039
582.1608	0.002
582.353	0.0052
582.5453	0.005
582.7375	0.0032
582.9298	-0
583.122	0.0009
583.3142	0.0046
583.5063	0.0037
583.6985	0.0008
583.8906	0.001
584.0827	0.0072
584.2749	0.0037
584.4669	-0.0004
584.659	0.0061
584.8511	0.0091
585.0431	0.0095
585.2352	0.0036
585.4272	0.0059
585.6192	0.0074
585.8111	-0.0005
586.0031	0.0052
586.195	0.0034
586.387	0.0027
586.5789	0.0088
586.7708	0.0087
586.9627	0.0079
587.1545	0.0061
587.3464	0.0042
587.5382	0.0014
587.73	0.0041
587.9218	0.0079
588.1136	-0.0004
588.3053	0.0072
588.4971	0.0066
588.6888	0.0057
588.8805	0.0005
589.0722	0.0103
589.2639	0.0038
589.4556	0.0064
589.6472	0.011
589.8389	0.0077
590.0305	0.0003
590.2221	0.0082
590.4137	0.0022
590.6052	0.0087
590.7968	0.0058
590.9883	0.0024
591.1798	0.0006
591.3713	0.0078
591.5628	0.0023
591.7543	0.0089
591.9458	0.0049
592.1372	0.0038
592.3286	0.0029
592.52	0.0044
592.7114	0.0067
592.9028	0.0129
593.0941	0.0005
593.2855	0.0043
593.4768	0.0081
593.6681	0.0131
593.8594	0.007
594.0506	0.0076
594.2419	0.0043
594.4331	0.0057
594.6244	-0.0022
594.8156	0.004
595.0067	0.0011
595.1979	0.0038
595.3891	0.007
595.5802	0.01
595.7713	0.0103
595.9624	0.0107
596.1535	0.001
596.3446	0.0074
596.5357	0.0052
596.7267	0.0053
596.9177	-0.002
597.1087	-0.005
597.2997	0.0082
597.4907	0.0011
597.6817	0.0088
597.8726	0.0124
598.0635	0.0049
598.2544	0.0123
598.4453	0.0037
598.6362	0.0043
598.827	0.008
599.0179	0.004
599.2087	0.0105
599.3995	0.0069
599.5903	0.0106
599.7811	0.0069
599.9718	0.0033
600.1626	0.0033
600.3533	0.0054
600.544	0.005
600.7347	-0.0008
600.9254	0.0096
601.116	0.0045
601.3067	0.008
601.4973	0.0116
601.6879	0.0063
601.8785	0.0028
602.0691	0.0062
602.2596	0.0106
602.4502	0.0033
602.6407	0.0033
602.8312	0.0055
603.0217	0.0081
603.2122	0.0049
603.4027	-0.0015
603.5931	0.0052
603.7835	0.0043
603.9739	0.0061
604.1643	0.0071
604.3547	0.0102
604.5451	0.0075
604.7354	0.0019
604.9257	0.0055
605.116	-0.0032
605.3063	0.006
605.4966	0.007
605.6869	0.0088
605.8771	0.0093
606.0673	0.005
606.2575	-0.0017
606.4477	0.0106
606.6379	0.0019
606.8281	0.0039
607.0182	0.0008
607.2083	0.0031
607.3985	-0.0022
607.5885	0.0041
607.7786	0.0006
607.9687	0.0067
608.1587	0.0078
608.3488	0.005
608.5388	-0.0036
608.7288	0.0034
608.9187	-0.0003
609.1087	0.0045
609.2986	0.0069
609.4886	0.0002
609.6785	0.0041
609.8684	0.004
610.0582	0.0011
610.2481	0.0025
610.4379	0.0053
610.6278	0.0075
610.8176	0.0068
611.0074	0.0056
611.1971	0.0096
611.3869	0.0092
611.5766	-0.0016
611.7664	0.0078
611.9561	0.0078
612.1458	0.008
612.3354	0.0018
612.5251	-0.0004
612.7147	0.0111
612.9044	0.0033
613.094	0.0074
613.2836	0.0042
613.4731	0.0029
613.6627	0.0072
613.8522	0.0094
614.0417	0.0106
614.2313	0.0027
614.4207	0.0035
614.6102	0.0113
614.7997	0.0088
614.9891	0.0069
615.1785	-0.0026
615.3679	0.0049
615.5573	0.0115
615.7467	0.0065
615.9361	0.0021
616.1254	0.0106
616.3147	0.0022
616.504	0.0082
616.6933	0.0085
616.8826	0.0055
617.0718	0.0131
617.2611	0.0037
617.4503	0.0086
617.6395	0.0152
617.8287	0.0083
618.0179	0.0005
618.207	0.014
618.3961	0.0078
618.5853	0.0023
618.7744	0.0038
618.9634	0.0038
619.1525	-0.0003
619.3416	0.0059
619.5306	0.006
619.7196	0.0073
619.9086	0.0037
620.0976	-0.0054
620.2866	0.0113
620.4755	-0.0008
620.6645	0.0047
620.8534	0.0118
621.0423	0.0128
621.2312	0.0001
621.42	-0.0035
621.6089	-0
621.7977	0.0113
621.9865	0.005
622.1753	-0.0022
622.3641	-0
622.5529	-0.0069
622.7416	0.0068
622.9303	0.0044
623.1191	0.0143
623.3078	0.0011
623.4964	0.0051
623.6851	0.0031
623.8737	-0.0072
624.0624	-0.0053
624.251	0.0054
624.4396	-0.0011
624.6282	0.0101
624.8167	0.0039
625.0053	0.0111
625.1938	0.0082
625.3823	0.01
625.5708	0.0012
625.7593	-0.0067
625.9477	0.0086
626.1362	-0.0064
626.3246	0.0098
626.513	0.0114
626.7014	0.0029
626.8898	0.012
627.0781	0.0108
627.2665	0.0069
627.4548	-0.0038
627.6431	0.0046
627.8314	0.0207
628.0197	0.0041
628.2079	0.0014
628.3962	0.0116
628.5844	0.0069
628.7726	0.0029
628.9608	-0.0004
629.1489	0.0098
629.3371	0.0061
629.5252	0.0146
629.7134	0.005
629.9015	0.0095
630.0895	-0.0076
630.2776	0.0037
630.4657	0.0161
630.6537	0.0136
630.8417	-0.0105
631.0297	0.0003
631.2177	0.006
631.4057	0.0002
631.5936	-0.0032
631.7815	0.0032
631.9695	0.0134
632.1574	0.0008
632.3452	0.0066
632.5331	0.0135
632.7209	0.0159
632.9088	0.0098
633.0966	0.0176
633.2844	0.0104
633.4722	0.0054
633.6599	0.0234
633.8477	0.0018
634.0354	0.0109
634.2231	-0.0136
634.4108	0.0034
634.5985	0.0069
634.7861	-0.0054
634.9738	-0.0169
635.1614	-0.0046
635.349	-0.0027
635.5366	0.0116
635.7242	0.0099
635.9117	-0.0004
636.0993	0.008
636.2868	0.0059
636.4743	0.0026
636.6618	-0.0035
636.8492	0.0026
637.0367	0.0017
637.2241	-0.0046
637.4115	0.0344
637.5989	-0.0056
637.7863	0.0104
637.9737	0.0071
638.161	0.0153
638.3484	-0.0079
638.5357	0.0172
638.723	0.017
638.9103	-0.0022
639.0975	-0.0112
639.2848	0.0217
639.472	-0.0008
639.6592	-0.0068
639.8464	0.0033
640.0336	0.0028
640.2208	-0.027
640.4079	-0.0101
640.595	-0.006
640.7821	0.0114
640.9692	-0.0079
641.1563	0.0064
641.3434	0.0121
641.5304	0.0081
641.7174	0.0096
641.9044	0.0064
642.0914	0.0331
642.2784	-0.0053
642.4653	-0.0102
642.6523	0.0145
642.8392	0.0127
643.0261	0.0021
643.213	0.0122
643.3999	0.0218
643.5867	0.0152
643.7735	0.0099
643.9604	0.0128
644.1472	0.0086
644.3339	-0.0092
644.5207	-0.0114
644.7075	0.0059
644.8942	0.0053
645.0809	-0.005
645.2676	-0.0021
645.4543	0.0121
645.6409	0.0025
645.8276	0.0062
646.0142	0.0058
646.2008	-0.0018
646.3874	-0.0132
646.574	-0.0213
646.7605	0.0171
646.9471	0.0088
647.1336	-0.0158
647.3201	0.0073
647.5066	0.0043
647.6931	-0.0038
647.8795	0.0012
648.0659	-0.0053
648.2524	0.02
648.4388	0.0009
648.6252	0.0042
648.8115	-0.0008
648.9979	0.0129
649.1842	0.0092
649.3705	0.0198
649.5568	0.0003
649.7431	0.0001
649.9294	-0.0026
650.1156	-0.0018
650.3018	-0.003
650.488	0.0173
650.6742	0.0001
650.8604	0.0214
651.0466	0.0105
651.2327	0.0082
651.4188	-0.0017
651.6049	0.0071
651.791	0.003
651.9771	0.0065
652.1632	0.0091
652.3492	-0.0065
652.5352	0.0123
652.7212	0.0078
652.9072	-0.0031
653.0932	0.0021
653.2791	0.0185
653.465	0.0124
653.651	0.0001
653.8369	0.0018
654.0227	-0.0143
654.2086	0.0101
654.3944	0.0127
654.5803	-0.0042
654.7661	0.0005
654.9519	-0.0025
655.1377	0
655.3234	0
655.5092	0
655.6949	0
655.8806	0
656.0663	0
656.2519	0
656.4376	0
656.6232	0
656.8088	0
656.9945	0
657.18	0
657.3656	0
657.5511	0
657.7367	0
657.9222	0
658.1077	0
658.2932	0
658.4786	0
658.6641	0
658.8495	0
659.0349	0
659.2203	0
659.4057	0
659.591	0.1614
659.7764	0.0242
659.9617	0.0135
660.147	0.001
660.3323	-0.0036
660.5176	0.017
660.7028	-0.0182
660.888	0.0063
661.0733	0.0328
661.2585	-0.0055
661.4436	0.0065
661.6288	0.0167
661.8139	0.0095
661.9991	-0.0042
662.1842	-0.0121
662.3693	0.008
662.5544	0.0155
662.7394	0.0059
662.9245	0.0001
663.1095	-0.0052
663.2945	-0.0151
663.4795	-0.0023
663.6644	-0.0064
663.8494	0.0117
664.0343	0.0297
664.2193	-0.0072
664.4042	0.0113
664.589	0.0105
664.7739	0.013
664.9587	-0.0087
665.1436	-0.0148
665.3284	0.0067
665.5132	-0.013
665.698	0.0162
665.8827	0.0075
666.0675	-0.0114
666.2522	0.0073
666.4369	0.0021
666.6216	-0.0022
666.8063	0.0053
666.9909	0.0039
667.1756	-0.0132
667.3602	0.0078
667.5448	0.0211
667.7294	-0.0024
667.9139	-0.0251
668.0985	0.038
668.283	-0.0083
668.4675	0.016
668.652	0.0047
668.8365	0.0015
669.0209	-0.0034
669.2054	0.0318
669.3898	-0.008
669.5742	0.0016
669.7586	-0.0034
669.943	0.037
670.1273	0.0149
670.3117	0.0103
670.496	-0.0024
670.6803	0.0145
670.8646	-0.0145
671.0488	0.0184
671.2331	-0.0136
671.4173	0.0143
671.6015	0.0147
671.7857	0.0016
671.9699	0.007
672.1541	0.0001
672.3382	0.0066
672.5223	-0.0097
672.7064	0.0008
672.8905	0.0131
673.0746	0.0135
673.2587	0.0327
673.4427	0.0093
673.6267	0.0337
673.8107	0.016
673.9947	0.0112
674.1787	0.0041
674.3626	0.0152
674.5465	0.0117
674.7304	-0.022
674.9143	0.0057
675.0982	0.0136
675.2821	0.0166
675.4659	-0.0343
675.6497	0.0147
675.8335	0.0108
676.0173	0.0051
676.2011	0.0147
676.3849	0.0123
676.5686	0.0194
676.7523	0.0187
676.936	-0.0081
677.1197	-0.0053
677.3034	0.0586
677.487	0.0074
677.6706	0.001
677.8542	-0.0119
678.0378	0.0087
678.2214	0.0069
678.405	0.0078
678.5885	0.0169
678.772	-0.0001
678.9555	-0.0011
679.139	0.0073
679.3225	-0.0033
679.5059	0.0049
679.6894	0.0286
679.8728	0.009
680.0562	0.0096
680.2395	0.006
680.4229	0.0181
680.6062	0.0006
680.7896	-0.0021
680.9729	0.019
681.1562	-0.004
681.3394	-0.0012
681.5227	0.0051
681.7059	0.0102
681.8891	0.0145
682.0723	-0.0025
682.2555	-0.01
682.4387	0.0169
682.6218	0.0323
682.805	0.0123
682.9881	0.0207
683.1712	0.0134
683.3542	0.0092
683.5373	-0.0057
683.7203	-0.0019
683.9034	-0.0014
684.0864	-0.0009
684.2694	-0.0072
684.4523	0.0121
684.6353	0.0109
684.8182	-0.0078
685.0011	0.0075
685.184	0.0149
685.3669	0.0156
685.5498	-0.0072
685.7326	-0.0107
685.9154	-0.0168
686.0982	0.0238
686.281	0.0118
686.4638	0.0229
686.6465	-0.0038
686.8293	-0.0201
687.012	0.0083
687.1947	0.0158
687.3774	0.0121
687.56	-0.0071
687.7427	0.0007
687.9253	-0.0004
688.1079	0.0091
688.2905	-0.0199
688.4731	0.0191
688.6556	0.0055
688.8382	-0.0305
689.0207	0.0024
689.2032	0.0026
689.3857	0.0144
689.5681	-0.007
689.7506	0.0337
689.933	0.0203
690.1154	0.0166
690.2978	0.0123
690.4802	0.0174
690.6626	-0.0028
690.8449	0.0308
691.0272	0.0022
691.2095	-0.0145
691.3918	0.0107
691.5741	0.017
691.7563	0.0087
691.9386	0.0259
692.1208	0.0031
692.303	0.0006
692.4852	0.0168
692.6673	0.0036
692.8495	-0.0083
693.0316	0.0093
693.2137	-0.01
693.3958	-0.0004
693.5778	-0.0208
693.7599	0.0095
693.9419	-0.0071
694.1239	0.0067
694.3059	0.0076
694.4879	0.0106
694.6699	0.0047
694.8518	0.0053
695.0337	-0.0028
695.2157	0.0244
695.3975	-0.0105
695.5794	-0.0202
695.7613	0.0217
695.9431	-0.021
696.1249	0.0213
696.3067	-0.0017
696.4885	0.025
696.6703	0.0047
696.852	-0.0035
697.0337	0.0236
697.2154	0.0042
697.3971	0.009
697.5788	0.0228
697.7605	-0.0152
697.9421	0.0018
698.1237	0.0011
698.3053	0.0004
698.4869	-0.0025
698.6685	0.0101
698.85	0.0024
699.0315	-0.014
699.213	0.0205
699.3945	0.0115
699.576	0.0012
699.7575	-0.002
699.9389	-0.0288
700.1203	-0.0006
700.3017	0.0105
700.4831	0.0105
700.6645	0.012
700.8458	-0.0084
701.0271	0.0382
701.2084	0.0264
701.3897	0.0216
701.571	-0.0125
701.7523	0.0246
701.9335	0.0159
702.1147	0.0142
702.2959	0.0113
702.4771	0.004
702.6583	-0.002
702.8394	-0.032
703.0205	0.0176
703.2016	-0.0243
703.3827	-0.0071
703.5638	-0.0047
703.7449	0.0264
703.9259	0.0149
704.1069	0.0039
704.2879	-0.0029
704.4689	-0.0136
704.6499	-0.0011
704.8308	0.0096
705.0117	0.0127
705.1927	0.0256
705.3735	0.0209
705.5544	0.0043
705.7353	0.0087
705.9161	-0.0152
706.0969	-0.0019
706.2777	0.0062
706.4585	-0.0039
706.6393	0.0188
706.82	0.0152
707.0007	-0.0062
707.1815	-0.0023
707.3621	0.0276
707.5428	0.0003
707.7235	0.0019
707.9041	0.0135
708.0847	-0.0091
708.2653	0.026
708.4459	-0.001
708.6265	-0.0032
708.807	-0.0067
708.9875	-0.0142
709.168	-0.0016
709.3485	0.0134
709.529	-0.0229
709.7095	0.0022
709.8899	0.0081
710.0703	0.0192
710.2507	0.0124
710.4311	-0.0227
710.6115	0.0137
710.7918	0.0203
710.9721	-0.0005
711.1524	-0.0147
711.3327	-0.008
711.513	0.0074
711.6932	0.0019
711.8735	0.0277
712.0537	0.0267
712.2339	0.0026
712.4141	0.0268
712.5942	-0.0246
712.7744	0.0105
712.9545	-0.0049
713.1346	0.0289
713.3147	0.0359
713.4947	-0.0116
713.6748	0.0079
713.8548	0.0092
714.0348	0.0245
714.2148	-0.0007
714.3948	0.0173
714.5748	-0.0127
714.7547	0.0352
714.9346	0.0342
715.1145	0.0116
715.2944	-0.0302
715.4743	0.0349
715.6541	-0.0011
715.834	0.0243
716.0138	0.0143
716.1936	0.0121
716.3733	0.0033
716.5531	0.003
716.7328	0.033
716.9126	-0.0003
717.0923	-0.0284
717.2719	0.008
717.4516	-0.0049
717.6312	0.0018
717.8109	0.0206
717.9905	0.0016
718.1701	0.0113
718.3496	-0.0118
718.5292	0.0009
718.7087	0.0208
718.8882	0.016
719.0677	-0.0031
719.2472	0.0082
719.4267	0.0134
719.6061	-0.0011
719.7856	0.0078
719.965	0.0015
720.1443	-0.034
720.3237	-0.0244
720.5031	0.011
720.6824	0.0082
720.8617	0.0081
721.041	0.0376
721.2203	-0.028
721.3995	-0.0051
721.5788	-0.008
721.758	0.0073
721.9372	-0.0018
722.1164	0.0186
722.2956	0.0113
722.4747	0.0153
722.6538	-0.0068
722.8329	0.0393
723.012	0.0145
723.1911	-0.0015
723.3702	0.0201
723.5492	0.015
723.7282	0.0032
723.9072	0.0292
724.0862	0.0074
724.2652	-0.0028
724.4441	0.0181
724.623	-0.0138
724.8019	0.007
724.9808	0.0364
725.1597	0.0074
725.3385	-0.0102
725.5174	0.008
725.6962	0.0032
725.875	0.0038
726.0538	0.0047
726.2325	0.0261
726.4112	-0.0256
726.59	-0.0052
726.7687	-0.0088
726.9474	0.0213
727.126	0.0316
727.3047	-0.0122
727.4833	0.0167
727.6619	-0.008
727.8405	-0.0063
728.0191	0.0309
728.1976	0.0109
728.3762	0.0265
728.5547	-0.0134
728.7332	0.0113
728.9116	0.0053
729.0901	0.0055
729.2686	0.0071
729.447	-0.0366
729.6254	-0.0017
729.8038	-0.0061
729.9821	-0.0086
730.1605	0.0132
730.3388	0.0183
730.5171	0.0226
730.6954	-0.0263
730.8737	-0.0042
731.0519	-0.0034
731.2302	0.0111
731.4084	-0.0097
731.5866	0.0004
731.7648	0.0047
731.9429	0.017
732.1211	-0.0001
732.2992	0.0048
732.4773	0.007
732.6554	0.0169
732.8335	0.0162
733.0115	0.01
733.1896	-0.0151
733.3676	0.0183
733.5456	-0.0069
733.7235	0.0023
733.9015	0.0226
734.0794	0.0022
734.2574	-0.0146
734.4353	0.0275
734.6131	0.0021
734.791	-0.0015
734.9689	-0.0108
735.1467	0.0091
735.3245	0.0261
735.5023	0.0048
735.68	-0.0012
735.8578	0.0146
736.0355	0.0115
736.2132	0.0068
736.3909	0.0084
736.5686	0.002
736.7463	-0.0152
736.9239	0.0238
737.1015	0.0037
737.2791	0.017
737.4567	0.0096
737.6343	0.0016
737.8118	0.0134
737.9894	-0.0082
738.1669	0.0035
738.3444	0.0237
738.5218	-0.0203
738.6993	0.0055
738.8767	0.0077
739.0541	0.0044
739.2315	-0.0083
739.4089	0.0024
739.5863	0.0147
739.7636	0.004
739.9409	0.0086
740.1182	-0.0021
740.2955	0.0209
740.4728	-0.0214
740.65	-0.0095
740.8272	0.0112
741.0044	-0.0309
741.1816	0.0044
741.3588	-0.0067
741.5359	-0.0155
741.7131	-0.0133
741.8902	0.0035
742.0673	-0.0055
742.2444	0.0453
742.4214	0.0032
742.5985	0.0069
742.7755	-0.0142
742.9525	-0.0022
743.1295	-0.0519
743.3064	-0.0179
743.4834	-0.0134
743.6603	0.0525
743.8372	-0.038
744.0141	0.0295
744.191	0.0026
744.3678	-0.0399
744.5446	-0.0047
744.7215	-0.0042
744.8982	0.0376
745.075	0.025
745.2518	-0.002
745.4285	0.0119
745.6052	-0.045
745.7819	0.0149
745.9586	0.0084
746.1353	0.0085
746.3119	-0.0127
746.4885	0.0218
746.6651	-0.0188
746.8417	0.0023
747.0183	0.0342
747.1948	0.0019
747.3714	0.0411
747.5479	-0.0003
747.7244	-0.0212
747.9008	0.0133
748.0773	0.0198
748.2537	0.0282
748.4301	0.0441
748.6065	-0.0349
748.7829	-0.0162
748.9593	0.0118
749.1356	0.0019
749.3119	0.0043
749.4882	0.0306
749.6645	0.0008
749.8408	0.022
750.017	0.0054
750.1933	-0.0309
750.3695	0.0107
750.5457	-0.0206
750.7218	0.0024
750.898	-0.0144
751.0741	0.0043
751.2502	0.0089
751.4263	-0.0058
751.6024	0.0037
751.7784	-0.0047
751.9545	-0.0175
752.1305	0.0187
752.3065	0.0213
752.4825	-0.0097
752.6584	0.0006
752.8344	0.0182
753.0103	-0.0105
753.1862	0.0056
753.3621	0.0021
753.5379	-0.0127
753.7138	0.0153
753.8896	0.0098
754.0654	-0.0167
754.2412	0.0082
754.417	0.0159
754.5927	0.0084
754.7685	-0.0036
754.9442	0.0137
755.1199	0.0182
755.2956	-0.013
755.4712	0.0025
755.6469	-0.0184
755.8225	0.0052
755.9981	-0.0042
756.1736	0.0023
756.3492	0.005
756.5248	0.0198
756.7003	-0.0088
756.8758	0.0055
757.0513	0.0009
757.2267	0.0059
757.4022	-0.008
757.5776	-0.0025
757.753	0.0187
757.9284	0.0099
758.1038	0.0149
758.2791	-0.0175
758.4545	-0.016
758.6298	0.0025
758.8051	-0.0004
758.9803	0.0124
759.1556	-0.0015
759.3308	0.0037
759.506	0.007
759.6812	-0.0022
759.8564	0.0079
760.0316	0.0015
760.2067	0.0098
760.3819	-0.0015
760.557	-0.0053
760.732	0.0003
760.9071	0.007
761.0821	-0.0075
761.2572	-0.0032
761.4322	0.0094
761.6072	-0.0022
761.7821	-0.0402
761.9571	0.0118
762.132	-0.0074
762.3069	0.0247
762.4818	0.0236
762.6567	-0.0103
762.8316	0.0065
763.0064	0.0179
763.1812	0.0196
763.356	0.0094
763.5308	0.0142
763.7055	-0.0148
763.8803	0.0086
764.055	-0.0011
764.2297	-0.0039
764.4044	-0.0136
764.579	0.0036
764.7537	-0.002
764.9283	0.0128
765.1029	0.0133
765.2775	0.0054
765.4521	0.0139
765.6266	-0.0033
765.8011	0.0005
765.9756	0.0071
766.1501	0.0183
766.3246	0.0169
766.4991	0.0244
766.6735	0.0363
766.8479	-0.004
767.0223	0.0164
767.1967	0.0117
767.371	0.0139
767.5454	0.0298
767.7197	0.0365
767.894	0.0079
768.0683	0.0178
768.2425	-0.0106
768.4168	0.0116
768.591	0.0173
768.7652	0.004
768.9394	-0.0135
769.1135	0.0166
769.2877	0.0256
769.4618	0.0411
769.6359	0.0309
769.81	0.0208
769.984	-0.0039
770.1581	-0.0091
770.3321	0.0242
770.5061	-0.0087
770.6801	0.0042
770.8541	0.0149
771.028	0.0391
771.202	0.0108
771.3759	0.0088
771.5498	-0.021
771.7236	-0.0296
771.8975	0.0309
772.0713	0.0099
772.2451	-0.0099
772.4189	0.0367
772.5927	-0.0291
772.7665	-0.0037
772.9402	0.0114
773.1139	0.0154
773.2876	-0.0095
773.4613	0.0071
773.635	0.0252
773.8086	0.0324
773.9822	0.0458
774.1558	0.0282
774.3294	-0.0131
774.503	0.0094
774.6765	0.0328
774.8501	0.0045
775.0236	0.0279
775.1971	-0.0087
775.3705	0.0252
775.544	-0.0118
775.7174	0.0248
775.8908	0.0192
776.0642	0.0528
776.2376	-0.0054
776.4109	-0.0147
776.5843	-0.0039
776.7576	0.044
776.9309	0.0425
777.1041	-0.0083
777.2774	0.0063
777.4506	-0.0221
777.6238	0.0156
777.797	0.0235
777.9702	0.028
778.1434	0.0135
778.3165	-0.0324
778.4896	-0.0272
778.6627	0.0013
778.8358	-0.0315
779.0089	-0.0485
779.1819	0.0084
779.3549	0.015
779.5279	-0.0243
779.7009	0.0211
779.8739	0.033
780.0468	0.0104
780.2197	0.001
780.3926	-0.0003
780.5655	0.0374
780.7384	0.0181
780.9112	0.0278
781.0841	0.0389
781.2569	0.0315
781.4297	0.0221
781.6024	0.0231
781.7752	0.0275
781.9479	0.0378
782.1206	0.0126
782.2933	-0.0065
782.466	0.0193
782.6386	-0.0054
782.8113	-0.0095
782.9839	-0.0153
783.1565	0.0126
783.329	-0.0049
783.5016	0.0171
783.6741	0.0065
783.8466	0.0556
784.0191	0.0164
784.1916	-0.0345
784.3641	-0.0226
784.5365	0.0027
784.7089	-0.0012
784.8813	0.0553
785.0537	0.0121
785.2261	-0.0199
785.3984	-0.0031
785.5707	-0.0205
785.743	0.0685
785.9153	-0.0055
786.0876	-0.0233
786.2598	-0.0004
786.432	-0.0277
786.6042	0.0848
786.7764	-0.0392
786.9486	-0.0186
787.1207	0.0528
787.2928	0.0578
787.4649	0.0082
787.637	0.0027
787.8091	-0.018
787.9811	0.0371
788.1532	0.0055
788.3252	0.0133
788.4972	0.0299
788.6691	0.011
788.8411	-0.0128
789.013	-0.0084
789.1849	-0.0018
789.3568	-0.0043
789.5287	0.048
789.7005	-0.0208
789.8723	-0.0566
790.0442	-0.0171
790.2159	0.0078
790.3877	0.0067
790.5595	-0.0148
790.7312	0.0015
790.9029	0.0078
791.0746	0.0459
791.2463	-0.0394
791.4179	-0.0201
791.5896	0.0064
791.7612	0.0338
791.9328	-0.0153
792.1044	0.0029
792.2759	-0.0235
792.4474	-0.0098
792.619	-0.0172
792.7905	0.0075
792.9619	0.0384
793.1334	0.0291
793.3048	0.0509
793.4762	-0.0079
793.6476	-0.0205
793.819	0.0257
793.9904	-0.0358
794.1617	-0.0059
794.333	0.0009
794.5043	0.0361
794.6756	0.0073
794.8469	0.0021
795.0181	0.019
795.1893	0.0214
795.3605	0.028
795.5317	0.0233
795.7029	0.022
795.874	0.0005
796.0452	0.0388
796.2163	0.1002
796.3873	0.026
796.5584	0.1311
796.7294	0.0719
796.9005	0.0374
797.0715	0.0251
797.2425	0.0133
797.4134	0.0545
797.5844	0.0944
797.7553	-0.0334
797.9262	0.0253
798.0971	0.011
798.2679	-0.0066
798.4388	0.0214
798.6096	0.0062
798.7804	-0.0054
798.9512	0.0209
799.122	-0.0057
799.2927	0.0102
799.4635	-0.0804
799.6342	-0.0231
799.8049	0.0944
799.9755	0.0024
800.1462	-0.002
800.3168	0.025
800.4874	-0.0363
800.658	0.1028
800.8286	0.0695
800.9991	0.025
801.1696	-0.0122
801.3402	0.0071
801.5106	-0.1017
801.6811	0.0117
801.8516	0.0446
802.022	0.0202
802.1924	0.0031
802.3628	0.0129
802.5332	0.0686
802.7035	0.0153
802.8739	-0.0048
803.0442	0.0162
803.2145	0.0367
803.3847	0.0118
803.555	0.0605
803.7252	0.0172
803.8954	-0.0633
804.0656	-0.0082
804.2358	0.0573
804.4059	0.0824
804.5761	0.0344
804.7462	0.0661
804.9163	0.0152
805.0864	-0.0485
805.2564	-0.0624
805.4264	-0.0201
805.5965	0.0344
805.7665	-0.0784
805.9364	0.0484
806.1064	0.0006
806.2763	0.0622
806.4462	0.0372
806.6161	0.0677
806.786	0.0593
806.9559	0.0024
807.1257	-0.0075
807.2955	0.0273
807.4653	0.076
807.6351	0.0457
807.8048	-0.0422
807.9746	0.0451
808.1443	-0.0074
808.314	0.0161
808.4837	0.0453
808.6533	-0.0309
808.8229	0.0279
808.9926	-0.0087
809.1622	-0.0133
809.3317	-0.0616
809.5013	-0.0897
809.6708	0.0008
809.8403	0.0224
810.0098	0.0419
810.1793	0.0031
810.3488	-0.0271
810.5182	0.0376
810.6876	-0.057
810.857	0.0215
811.0264	-0.077
811.1958	0.1779
811.3651	0.033
811.5344	0.0769
811.7037	0.0611
811.873	-0.0299
812.0422	-0.0378
812.2115	0.0505
812.3807	-0.1486
812.5499	-0.066
812.7191	0.1105
812.8882	-0.0965
813.0574	-0.0141
813.2265	0.0354
813.3956	0.0268
813.5646	0.0441
813.7337	-0.015
813.9027	-0.0691
814.0718	0.0007
814.2407	0.1355
814.4097	0.0249
814.5787	0.0709
814.7476	0.0125
814.9165	-0.0453
815.0854	-0.0423
815.2543	0.0508
815.4232	0.0728
815.592	-0.0419
815.7608	-0.0293
815.9296	-0.031
816.0984	-0.0189
816.2671	-0.0094
816.4359	0.1338
816.6046	0.1045
816.7733	-0.044
816.942	-0.1134
817.1106	0.0128
817.2793	-0.032
817.4479	-0.0457
817.6165	0.1087
817.785	0.0243
817.9536	-0.0667
818.1221	0.1245
818.2906	-0.0244
818.4591	0.0287
818.6276	-0.0061
818.7961	0.0706
818.9645	-0.047
819.1329	-0.0888
819.3013	0.0632
819.4697	-0.1289
819.638	0.0814
819.8064	0.0577
819.9747	-0.0301
820.143	-0.1004
820.3113	0.0275
820.4795	0.0354
820.6477	0.0934
820.816	-0.0144
820.9842	0.0963
821.1523	-0.0674
821.3205	0.0959
821.4886	0.0397
821.6567	-0.0616
821.8248	0.0769
821.9929	-0.1096
822.1609	-0.0213
822.329	0.0355
822.497	0.1261
822.665	0.0423
822.833	0.0372
823.0009	0.1231
823.1688	0.3475
823.3367	-0.3036
823.5046	0.2532
823.6725	-0.0538
823.8404	0.0272
824.0082	-0.0636
824.176	-0.0267
824.3438	0.2521
824.5116	0.075
824.6793	-0.0251
824.847	0.2919
825.0147	0.1221
825.1824	0.0601
825.3501	0.0232
825.5177	-0.0287
825.6854	-0.0172
825.853	-0.0086
826.0206	-0.0124
826.1881	0.0561
826.3557	-0.0224
826.5232	0.1473
826.6907	0.0156
826.8582	-0.1173
827.0257	0.1727
827.1931	-0.0306
827.3605	0.0097
827.528	-0.1716
827.6953	-0.1852
827.8627	-0.1296
828.03	0.0325
828.1974	0.0051
828.3647	-0.0498
828.532	-0.0264
828.6992	0.0961
828.8665	-0.3007
829.0337	0.1035
829.2009	-0.166
829.3681	0.0417
829.5352	-0.18
829.7024	-0.142
829.8695	0.1344
830.0366	0.1234
830.2037	0.0589
830.3707	0.1142
830.5378	-0.0735
830.7048	0.0263
830.8718	0.0109
831.0388	-0.1494
831.2057	0.0049
831.3727	-0.0741
831.5396	0.1256
831.7065	-0
831.8734	0.2395
832.0402	0.2068
832.2071	0.4528
832.3739	-0.2451
832.5407	-1.3828
832.7075	0.0893
832.8742	0.3553
833.041	0.1544
833.2077	0.2032
833.3744	0.023
833.541	-0.042
833.7077	-0.207
833.8743	0.0063
834.0409	-0.1521
834.2075	0.0252
834.3741	0.1865
834.5407	0.2162
834.7072	-0.0401
834.8737	0.021
835.0402	-0.0199
835.2067	-0.0702
835.3731	-0.1622
835.5395	-0.0505
835.706	-0.3349
835.8723	-0.1021
836.0387	-0.0213
836.2051	0.0947
836.3714	0.3108
836.5377	0.083
836.704	0.4879
836.8703	0.3609
837.0365	-0.8021
837.2027	0.393
837.3689	0.1189
837.5351	0.0634
837.7013	-0.1017
837.8674	0.3121
838.0335	-0.1156
838.1997	0.6168
838.3657	-0
838.5318	0.1922
838.6978	-0
838.8639	-0.6064
839.0299	0.0034
839.1958	0.2509
839.3618	0.1689
839.5277	0.2226
839.6937	0.0382
839.8596	-0.1984
840.0254	-0.1856
840.1913	-0.3659
840.3571	-0.2476
840.523	-0
840.6888	-0.0439
840.8545	-0.0934
841.0203	0.2979
841.186	-0.0321
841.3517	-0.246
841.5174	0.1838
841.6831	0.0446
841.8488	0.0042
842.0144	0.0684
842.18	1.1824
842.3456	-0.6333
842.5112	-0
842.6767	0.2761
842.8422	0.223
843.0077	0.0393
843.1732	-0.3948
843.3387	0.4308
843.5042	-0
843.6696	0.4114
843.835	-0.3537
844.0004	-0.3157
844.1657	-1.033
844.3311	0.044
844.4964	-0.4104
844.6617	1.2861
844.827	-0
844.9923	0.5528
845.1575	-0.2092
845.3227	-0.3294
845.4879	-0.0578
845.6531	0.0638
845.8183	0.1324
845.9834	0.7378
846.1485	0.3192
846.3136	-0.2768
846.4787	-0
846.6438	0.0067
846.8088	-0
846.9738	-0
847.1388	0.2755
847.3038	0.4655
847.4687	-0
847.6337	-0.7955
847.7986	0.9965
847.9635	0.245
848.1284	0.3901
848.2932	0.1106
848.458	-0
848.6228	1.2445
848.7876	-0
848.9524	0.2828
849.1172	-1.9829
849.2819	0.3424
849.4466	0.106
849.6113	0.3657
849.7759	-0
849.9406	-0.1172
850.1052	-1.1821
850.2698	0.2029
850.4344	-1.0127
850.599	-0.1142
850.7635	0.0131
850.928	-0.1205
851.0925	0.3879
851.257	1.4782
851.4215	0.0528
851.5859	-0.0035
851.7503	-0
851.9147	-0.4902
852.0791	-0.0525
852.2434	0.3749
852.4078	-0
852.5721	0.1578
852.7364	-0.321
852.9007	0.332
853.0649	-0
853.2291	0.586
853.3934	-0
853.5575	-0.3497
853.7217	0.2078
853.8859	-0.5327
854.05	0.461
854.2141	0.991
854.3782	0.0086
854.5423	0.0666
854.7063	0.5515
854.8703	0.0694
855.0343	-0.2309
855.1983	0.052
855.3623	0.0884
855.5262	-0
855.6901	0.3623
855.854	0.2325
856.0179	-0.2924
856.1818	-0
856.3456	0.7929
856.5094	0.6149
856.6732	-0.4968
856.837	-0.9319
857.0008	-0
857.1645	0.2472
857.3282	0.6748
857.4919	-0.19
857.6556	-0.3686
857.8192	-0.322
857.9828	0.0801
858.1465	0.0777
858.31	-0
858.4736	0.1778
858.6372	0.1869
858.8007	0.4942
858.9642	0.2755
859.1277	-0
859.2911	-0.3765
859.4546	-0
859.618	1.4103
859.7814	-0.4354
859.9448	-0
860.1081	-0
860.2715	-0
860.4348	-0.0875
860.5981	0.7715
860.7614	-0
860.9246	-0.1736
861.0879	0.1081
861.2511	-0
861.4143	-0.8025
861.5774	-0.2014
861.7406	0.55
861.9037	-0.607
862.0668	-0.6829
862.2299	0.3394
862.393	-0
862.556	-0.3525
862.7191	-0.5933
862.8821	0.1003
863.0451	-0.0593
863.208	-0.0787
863.371	-0.111
863.5339	0.4604
863.6968	0.8242
863.8597	-0.1514
864.0225	-0.219
864.1854	-0.2349
864.3482	-1.1798
864.511	-0.1891
864.6737	-0
864.8365	-0.2496
864.9992	0.0107
865.1619	-0.6404
865.3246	-0
865.4873	-0
865.65	0.6899
865.8126	-0
865.9752	0.1581
866.1378	0.2012
866.3004	-0.1131
866.4629	-1.4914
866.6254	2.143
866.7879	-0.0498
866.9504	-0
867.1129	-0.4281
867.2753	-0.066
867.4377	-0.168
867.6001	-0.6053
867.7625	-0.0934
867.9249	-0.1245
868.0872	1.4214
868.2495	0.5939
868.4118	-0
868.5741	-0.1831
868.7363	-0
868.8986	-0.186
869.0608	-0
869.223	-0.459
869.3851	-0
869.5473	-0.1161
869.7094	-0.0078
869.8715	-0
870.0336	-0.0818
870.1957	-0
870.3577	0.1998
870.5197	-0.2949
870.6817	-1.1551
870.8437	0.3085
871.0057	0.2047
871.1676	0.2654
871.3295	-0.1243
871.4914	-0
871.6533	-0.2131
871.8151	0.282
871.977	-0.1706
872.1388	0.3336
872.3006	-0.0787
872.4623	-0.4388
872.6241	0.0524
872.7858	-0.2312
872.9475	-0
873.1092	-0.0808
873.2709	0.2133
873.4325	-1.4405
873.5941	-0
873.7557	-0
873.9173	-0.1732
874.0789	0.0768
874.2404	-0
874.4019	-0.0541
874.5634	-0
874.7249	-0
874.8863	-0.2202
875.0478	-0.2658
875.2092	1.1116
875.3706	0.2726
875.5319	0.3949
875.6933	0.2791
875.8546	-0.139
876.0159	0.0707
876.1772	-0
876.3385	0.294
876.4997	2.5786
876.6609	2.4518
876.8221	-0
876.9833	-0
877.1445	0.5374
877.3056	-0.67
877.4667	-0
877.6278	-0
877.7889	0.2765
877.9499	-0
878.111	-0.5611
878.272	0.3424
878.433	0.2239
878.5939	0.3085
878.7549	-0.2532
878.9158	-0
879.0767	-0
879.2376	-0.0489
879.3984	0.4649
879.5593	0.3037
879.7201	-1.7404
879.8809	-0.3495
880.0417	-0.0645
880.2024	0.4711
880.3632	-0.1934
880.5239	-0
880.6846	0.8989
880.8452	-0.0772
881.0059	-0
881.1665	-0.2252
881.3271	-0
881.4877	0.1757
881.6483	-0.5404
881.8088	-0
881.9693	-0
882.1298	-0
882.2903	-0
