Data from D4ACN5uM440nmA_Absorbance_13-50-24-757.txt Node
Date: Fri Feb 21 13:50:24 GMT 2025
User: LASERRRRR
Spectrometer: FLMT03099
Trigger mode: 0
Integration Time (sec): 1.500000E-2
Scans to average: 1
Electric dark correction enabled: true
Nonlinearity correction enabled: false
Boxcar width: 0
XAxis mode: Wavelengths
Number of Pixels in Spectrum: 3648
>>>>>Begin Spectral Data<<<<<
179.3399	-0.4139
179.5586	-0.4139
179.7771	-0.4139
179.9957	-0.2975
180.2143	-0
180.4329	-0.1223
180.6514	-0
180.8699	-0
181.0885	-0
181.307	0.7223
181.5255	0.0948
181.744	-0
181.9625	0.5306
182.181	0.5355
182.3994	-0.3675
182.6179	-0
182.8363	0.9081
183.0547	0.8437
183.2732	0.0959
183.4916	0.3181
183.71	0.3877
183.9284	0.1144
184.1467	0.2094
184.3651	0.2311
184.5835	0.2749
184.8018	0.1007
185.0201	0.116
185.2385	0.1343
185.4568	0.1879
185.6751	0.1763
185.8934	0.1335
186.1117	-0.1113
186.3299	0.1915
186.5482	0.266
186.7664	0.4061
186.9847	-0.0527
187.2029	0.0303
187.4211	0.0182
187.6393	0.0431
187.8575	0.1764
188.0757	0.1348
188.2939	0.1842
188.512	0.7146
188.7302	0.1957
188.9483	0.1036
189.1665	0.5627
189.3846	0.0506
189.6027	0.378
189.8208	0.5851
190.0389	0.1833
190.257	0.1166
190.475	0.2476
190.6931	0.1048
190.9111	0.0437
191.1292	0.2829
191.3472	0.0045
191.5652	0.5141
191.7832	0.089
192.0012	0.1082
192.2192	0.3016
192.4371	0.1493
192.6551	0.3085
192.873	0.1555
193.091	0.2014
193.3089	0.0902
193.5268	0.2346
193.7447	0.1634
193.9626	0.2623
194.1805	0.256
194.3984	0.2856
194.6162	0.3038
194.8341	0.3081
195.0519	0.2462
195.2697	0.324
195.4875	0.3278
195.7054	0.2776
195.9231	0.2455
196.1409	0.442
196.3587	0.3061
196.5765	0.3551
196.7942	0.3112
197.012	0.3164
197.2297	0.3539
197.4474	0.4742
197.6651	0.3725
197.8828	0.4041
198.1005	0.3854
198.3182	0.4311
198.5358	0.3494
198.7535	0.3952
198.9711	0.3747
199.1888	0.4124
199.4064	0.4265
199.624	0.3785
199.8416	0.4187
200.0592	0.3936
200.2767	0.418
200.4943	0.4472
200.7119	0.4278
200.9294	0.4619
201.1469	0.386
201.3645	0.4656
201.582	0.3867
201.7995	0.4334
202.017	0.4149
202.2344	0.3749
202.4519	0.3695
202.6694	0.4078
202.8868	0.3979
203.1042	0.4001
203.3217	0.3851
203.5391	0.3954
203.7565	0.354
203.9739	0.3747
204.1913	0.3748
204.4086	0.361
204.626	0.3685
204.8433	0.3582
205.0607	0.3506
205.278	0.3674
205.4953	0.3561
205.7126	0.3611
205.9299	0.3247
206.1472	0.305
206.3644	0.3584
206.5817	0.321
206.7989	0.3285
207.0162	0.3246
207.2334	0.3279
207.4506	0.3013
207.6678	0.307
207.885	0.3186
208.1022	0.2795
208.3194	0.29
208.5365	0.3002
208.7537	0.2905
208.9708	0.2865
209.1879	0.29
209.405	0.2889
209.6222	0.2835
209.8392	0.2953
210.0563	0.28
210.2734	0.2886
210.4905	0.2705
210.7075	0.2821
210.9245	0.2815
211.1416	0.2637
211.3586	0.2582
211.5756	0.244
211.7926	0.2702
212.0096	0.2811
212.2265	0.2629
212.4435	0.2929
212.6604	0.245
212.8774	0.2499
213.0943	0.2697
213.3112	0.2402
213.5281	0.2669
213.745	0.2522
213.9619	0.2518
214.1788	0.2772
214.3956	0.2492
214.6125	0.2589
214.8293	0.2595
215.0461	0.2492
215.2629	0.258
215.4798	0.2478
215.6965	0.2408
215.9133	0.2442
216.1301	0.2696
216.3469	0.2482
216.5636	0.2415
216.7803	0.2445
216.9971	0.2494
217.2138	0.2494
217.4305	0.2525
217.6472	0.2557
217.8639	0.2572
218.0805	0.2603
218.2972	0.2581
218.5138	0.2592
218.7305	0.2652
218.9471	0.241
219.1637	0.274
219.3803	0.2631
219.5969	0.2502
219.8135	0.2731
220.0301	0.2668
220.2466	0.2643
220.4632	0.2557
220.6797	0.2592
220.8962	0.2547
221.1127	0.2563
221.3292	0.2731
221.5457	0.2711
221.7622	0.2754
221.9787	0.2747
222.1951	0.2683
222.4116	0.2697
222.628	0.2867
222.8444	0.2769
223.0608	0.2727
223.2772	0.2863
223.4936	0.273
223.71	0.2732
223.9264	0.2907
224.1427	0.2978
224.3591	0.2824
224.5754	0.2969
224.7917	0.2869
225.008	0.2888
225.2243	0.3005
225.4406	0.2966
225.6569	0.306
225.8732	0.3176
226.0894	0.3186
226.3057	0.3101
226.5219	0.3107
226.7381	0.329
226.9543	0.3153
227.1705	0.3077
227.3867	0.3141
227.6029	0.3341
227.8191	0.3286
228.0352	0.3404
228.2513	0.3526
228.4675	0.3412
228.6836	0.3324
228.8997	0.3531
229.1158	0.3476
229.3319	0.3614
229.548	0.3557
229.764	0.3597
229.9801	0.37
230.1961	0.3679
230.4121	0.3718
230.6282	0.3832
230.8442	0.3872
231.0602	0.3878
231.2761	0.386
231.4921	0.384
231.7081	0.4014
231.924	0.4031
232.14	0.3978
232.3559	0.3945
232.5718	0.4052
232.7877	0.4079
233.0036	0.4068
233.2195	0.4115
233.4353	0.4094
233.6512	0.4158
233.867	0.4303
234.0829	0.4291
234.2987	0.4307
234.5145	0.4298
234.7303	0.4273
234.9461	0.43
235.1619	0.4431
235.3776	0.434
235.5934	0.4385
235.8091	0.445
236.0249	0.4475
236.2406	0.4444
236.4563	0.4475
236.672	0.4408
236.8877	0.4524
237.1034	0.4422
237.319	0.449
237.5347	0.4539
237.7503	0.4477
237.966	0.464
238.1816	0.4524
238.3972	0.4582
238.6128	0.4587
238.8284	0.4621
239.0439	0.4627
239.2595	0.4639
239.475	0.4576
239.6906	0.4607
239.9061	0.4586
240.1216	0.4765
240.3371	0.4568
240.5526	0.4652
240.7681	0.4614
240.9836	0.4473
241.199	0.4575
241.4145	0.4462
241.6299	0.4597
241.8453	0.4429
242.0607	0.4399
242.2761	0.4433
242.4915	0.417
242.7069	0.4135
242.9223	0.4129
243.1376	0.4083
243.353	0.4032
243.5683	0.4016
243.7836	0.387
243.9989	0.3725
244.2142	0.3723
244.4295	0.3675
244.6448	0.3644
244.86	0.3552
245.0753	0.34
245.2905	0.341
245.5057	0.3282
245.721	0.3293
245.9362	0.3226
246.1514	0.3156
246.3665	0.3008
246.5817	0.3023
246.7969	0.297
247.012	0.2867
247.2271	0.2829
247.4423	0.2811
247.6574	0.2774
247.8725	0.2732
248.0876	0.2653
248.3026	0.268
248.5177	0.2526
248.7328	0.2504
248.9478	0.2552
249.1628	0.2478
249.3779	0.2396
249.5929	0.2409
249.8079	0.2358
250.0228	0.2281
250.2378	0.233
250.4528	0.225
250.6677	0.2217
250.8827	0.2145
251.0976	0.2135
251.3125	0.2184
251.5274	0.2139
251.7423	0.2036
251.9572	0.2103
252.172	0.2037
252.3869	0.2076
252.6017	0.2011
252.8166	0.203
253.0314	0.1951
253.2462	0.1964
253.461	0.1946
253.6758	0.2016
253.8906	0.1923
254.1053	0.1909
254.3201	0.192
254.5348	0.1831
254.7496	0.1881
254.9643	0.1983
255.179	0.1893
255.3937	0.1861
255.6083	0.1915
255.823	0.1844
256.0377	0.1829
256.2523	0.1849
256.467	0.1834
256.6816	0.1802
256.8962	0.1795
257.1108	0.1855
257.3254	0.1844
257.54	0.1782
257.7545	0.1819
257.9691	0.1786
258.1836	0.1766
258.3981	0.1832
258.6127	0.1738
258.8272	0.1774
259.0417	0.1726
259.2561	0.1799
259.4706	0.1762
259.6851	0.1799
259.8995	0.1757
260.114	0.1828
260.3284	0.1729
260.5428	0.1769
260.7572	0.1737
260.9716	0.1771
261.186	0.1767
261.4003	0.1732
261.6147	0.1742
261.829	0.1746
262.0433	0.1765
262.2577	0.1775
262.472	0.1798
262.6863	0.1755
262.9005	0.1718
263.1148	0.1764
263.3291	0.1759
263.5433	0.1756
263.7576	0.1803
263.9718	0.1768
264.186	0.1788
264.4002	0.1814
264.6144	0.1863
264.8286	0.1766
265.0427	0.1838
265.2569	0.1852
265.471	0.1799
265.6851	0.1771
265.8993	0.1725
266.1134	0.1811
266.3275	0.1778
266.5415	0.182
266.7556	0.1835
266.9697	0.1818
267.1837	0.1763
267.3978	0.1768
267.6118	0.1719
267.8258	0.1822
268.0398	0.1807
268.2538	0.1815
268.4677	0.1772
268.6817	0.1793
268.8957	0.1765
269.1096	0.1727
269.3235	0.1765
269.5374	0.1784
269.7514	0.1801
269.9652	0.1757
270.1791	0.1742
270.393	0.1769
270.6068	0.1731
270.8207	0.1694
271.0345	0.1732
271.2483	0.1638
271.4622	0.1725
271.676	0.1702
271.8897	0.1686
272.1035	0.1768
272.3173	0.1742
272.531	0.17
272.7448	0.1654
272.9585	0.1663
273.1722	0.1623
273.3859	0.1744
273.5996	0.1685
273.8133	0.1757
274.0269	0.1666
274.2406	0.1724
274.4542	0.1721
274.6679	0.1707
274.8815	0.1772
275.0951	0.1745
275.3087	0.1742
275.5223	0.1706
275.7358	0.1751
275.9494	0.1732
276.1629	0.1737
276.3765	0.1703
276.59	0.1729
276.8035	0.1714
277.017	0.1772
277.2305	0.1754
277.444	0.1784
277.6574	0.1784
277.8709	0.1825
278.0843	0.1763
278.2978	0.1804
278.5112	0.1758
278.7246	0.1721
278.938	0.178
279.1513	0.1787
279.3647	0.1737
279.5781	0.1827
279.7914	0.179
280.0047	0.1744
280.2181	0.1788
280.4314	0.1786
280.6447	0.1776
280.8579	0.1755
281.0712	0.1801
281.2845	0.1758
281.4977	0.1826
281.711	0.1725
281.9242	0.1776
282.1374	0.1756
282.3506	0.1757
282.5638	0.1796
282.7769	0.1714
282.9901	0.1795
283.2033	0.1813
283.4164	0.1814
283.6295	0.1801
283.8426	0.1748
284.0557	0.1837
284.2688	0.1839
284.4819	0.1809
284.695	0.1896
284.908	0.1805
285.1211	0.1801
285.3341	0.177
285.5471	0.1882
285.7601	0.1887
285.9731	0.1856
286.1861	0.1934
286.3991	0.1881
286.612	0.1876
286.825	0.1868
287.0379	0.1868
287.2508	0.188
287.4637	0.1921
287.6766	0.186
287.8895	0.1897
288.1024	0.1925
288.3152	0.1863
288.5281	0.1813
288.7409	0.1957
288.9538	0.1889
289.1666	0.1926
289.3794	0.1923
289.5922	0.1852
289.8049	0.1895
290.0177	0.1905
290.2304	0.192
290.4432	0.202
290.6559	0.1919
290.8686	0.1888
291.0813	0.1946
291.294	0.1962
291.5067	0.191
291.7194	0.1905
291.932	0.1931
292.1447	0.1928
292.3573	0.1977
292.5699	0.1912
292.7825	0.1872
292.9951	0.1924
293.2077	0.1938
293.4203	0.1951
293.6328	0.1935
293.8454	0.1932
294.0579	0.1894
294.2704	0.1931
294.4829	0.19
294.6954	0.195
294.9079	0.1893
295.1204	0.1911
295.3328	0.1954
295.5453	0.1943
295.7577	0.1894
295.9701	0.1985
296.1825	0.1973
296.3949	0.1941
296.6073	0.1907
296.8197	0.1949
297.0321	0.1917
297.2444	0.1895
297.4567	0.1956
297.6691	0.1923
297.8814	0.196
298.0937	0.1918
298.306	0.1941
298.5182	0.1926
298.7305	0.1922
298.9428	0.1926
299.155	0.1851
299.3672	0.1953
299.5794	0.1948
299.7916	0.195
300.0038	0.19
300.216	0.1881
300.4282	0.1984
300.6403	0.1987
300.8525	0.1906
301.0646	0.2001
301.2767	0.1895
301.4888	0.1931
301.7009	0.1985
301.913	0.1948
302.125	0.1877
302.3371	0.195
302.5491	0.1903
302.7612	0.1957
302.9732	0.1944
303.1852	0.1967
303.3972	0.1954
303.6092	0.1951
303.8211	0.191
304.0331	0.1904
304.245	0.1945
304.457	0.1917
304.6689	0.1901
304.8808	0.1932
305.0927	0.1928
305.3046	0.1895
305.5164	0.184
305.7283	0.1875
305.9401	0.1798
306.152	0.1759
306.3638	0.1832
306.5756	0.184
306.7874	0.1815
306.9992	0.176
307.2109	0.1777
307.4227	0.171
307.6344	0.1754
307.8462	0.1665
308.0579	0.1708
308.2696	0.1695
308.4813	0.1683
308.693	0.1648
308.9046	0.1645
309.1163	0.1655
309.328	0.1602
309.5396	0.1514
309.7512	0.1516
309.9628	0.1568
310.1744	0.1491
310.386	0.1504
310.5976	0.1479
310.8091	0.1564
311.0207	0.1455
311.2322	0.142
311.4437	0.1408
311.6552	0.1438
311.8667	0.1448
312.0782	0.1422
312.2897	0.1414
312.5012	0.1327
312.7126	0.1322
312.924	0.1392
313.1355	0.1331
313.3469	0.1366
313.5583	0.1326
313.7696	0.13
313.981	0.1368
314.1924	0.1272
314.4037	0.1274
314.6151	0.1247
314.8264	0.1393
315.0377	0.126
315.249	0.1334
315.4603	0.1215
315.6716	0.126
315.8828	0.1276
316.0941	0.1268
316.3053	0.1243
316.5165	0.1282
316.7277	0.1173
316.9389	0.1227
317.1501	0.1214
317.3613	0.1252
317.5724	0.124
317.7836	0.117
317.9947	0.1197
318.2058	0.1249
318.417	0.1191
318.6281	0.1212
318.8391	0.1256
319.0502	0.1238
319.2613	0.1211
319.4723	0.1187
319.6834	0.1239
319.8944	0.1213
320.1054	0.1215
320.3164	0.1169
320.5274	0.1191
320.7383	0.1231
320.9493	0.1183
321.1602	0.1162
321.3712	0.1263
321.5821	0.1204
321.793	0.1281
322.0039	0.1249
322.2148	0.1198
322.4257	0.1164
322.6365	0.1159
322.8474	0.1258
323.0582	0.129
323.269	0.1252
323.4798	0.1239
323.6906	0.1167
323.9014	0.1165
324.1122	0.1149
324.3229	0.1283
324.5337	0.1216
324.7444	0.1281
324.9551	0.1275
325.1658	0.1255
325.3765	0.1253
325.5872	0.1254
325.7979	0.13
326.0085	0.1233
326.2192	0.1247
326.4298	0.1238
326.6404	0.1362
326.851	0.122
327.0616	0.1282
327.2722	0.1308
327.4828	0.1288
327.6933	0.131
327.9039	0.1264
328.1144	0.124
328.3249	0.1237
328.5354	0.1281
328.7459	0.1285
328.9564	0.1269
329.1669	0.125
329.3773	0.1313
329.5878	0.1274
329.7982	0.1341
330.0086	0.1269
330.219	0.1233
330.4294	0.1308
330.6398	0.1336
330.8502	0.1345
331.0605	0.1272
331.2708	0.1258
331.4812	0.1252
331.6915	0.1345
331.9018	0.1284
332.1121	0.1348
332.3224	0.1362
332.5326	0.1287
332.7429	0.1291
332.9531	0.1395
333.1633	0.1254
333.3735	0.1269
333.5837	0.1363
333.7939	0.1307
334.0041	0.1357
334.2143	0.1312
334.4244	0.1411
334.6346	0.1298
334.8447	0.135
335.0548	0.139
335.2649	0.1397
335.475	0.1374
335.685	0.1398
335.8951	0.1307
336.1051	0.1317
336.3152	0.134
336.5252	0.1371
336.7352	0.1373
336.9452	0.1365
337.1552	0.1358
337.3652	0.1406
337.5751	0.1356
337.7851	0.134
337.995	0.1395
338.2049	0.1395
338.4148	0.141
338.6247	0.1356
338.8346	0.1408
339.0445	0.1383
339.2543	0.1342
339.4642	0.1348
339.674	0.1339
339.8838	0.1404
340.0936	0.1423
340.3034	0.1392
340.5132	0.1364
340.7229	0.1477
340.9327	0.1519
341.1424	0.1466
341.3522	0.1339
341.5619	0.1416
341.7716	0.1428
341.9813	0.1462
342.1909	0.1462
342.4006	0.1447
342.6102	0.1428
342.8199	0.1479
343.0295	0.1466
343.2391	0.1498
343.4487	0.1494
343.6583	0.1566
343.8679	0.1516
344.0774	0.1502
344.287	0.1539
344.4965	0.1521
344.706	0.1595
344.9155	0.1493
345.125	0.1502
345.3345	0.1625
345.544	0.1559
345.7534	0.1578
345.9629	0.1568
346.1723	0.1538
346.3817	0.1542
346.5911	0.1654
346.8005	0.1658
347.0099	0.1569
347.2193	0.1605
347.4286	0.1684
347.638	0.1618
347.8473	0.1706
348.0566	0.1596
348.2659	0.1671
348.4752	0.169
348.6845	0.1647
348.8937	0.1645
349.103	0.1709
349.3122	0.1663
349.5214	0.1782
349.7306	0.1713
349.9398	0.1666
350.149	0.1611
350.3582	0.1702
350.5674	0.1691
350.7765	0.1729
350.9856	0.1705
351.1948	0.1692
351.4039	0.1733
351.613	0.1757
351.822	0.1715
352.0311	0.1707
352.2402	0.1683
352.4492	0.1798
352.6582	0.1853
352.8672	0.1806
353.0762	0.1776
353.2852	0.1761
353.4942	0.1796
353.7032	0.1785
353.9121	0.1831
354.1211	0.1815
354.33	0.1897
354.5389	0.1806
354.7478	0.1832
354.9567	0.1854
355.1655	0.1839
355.3744	0.1836
355.5833	0.1804
355.7921	0.1895
356.0009	0.1971
356.2097	0.1847
356.4185	0.1875
356.6273	0.1876
356.8361	0.1917
357.0448	0.1863
357.2536	0.1882
357.4623	0.19
357.671	0.1935
357.8797	0.1892
358.0884	0.1885
358.2971	0.1924
358.5057	0.1911
358.7144	0.1988
358.923	0.2023
359.1316	0.2019
359.3402	0.1963
359.5488	0.1993
359.7574	0.2046
359.966	0.2043
360.1746	0.1995
360.3831	0.2061
360.5916	0.2048
360.8002	0.2146
361.0087	0.2056
361.2172	0.2093
361.4256	0.208
361.6341	0.2178
361.8426	0.2128
362.051	0.2111
362.2594	0.2134
362.4678	0.218
362.6762	0.2182
362.8846	0.2195
363.093	0.2192
363.3014	0.2237
363.5097	0.2214
363.718	0.2189
363.9264	0.2162
364.1347	0.2155
364.343	0.2221
364.5513	0.2252
364.7595	0.2355
364.9678	0.216
365.176	0.2328
365.3842	0.2296
365.5925	0.227
365.8007	0.2362
366.0089	0.2397
366.217	0.2368
366.4252	0.231
366.6333	0.2332
366.8415	0.2348
367.0496	0.2348
367.2577	0.2433
367.4658	0.237
367.6739	0.2368
367.882	0.242
368.09	0.2388
368.2981	0.2455
368.5061	0.2462
368.7141	0.2455
368.9221	0.2509
369.1301	0.2473
369.3381	0.2437
369.5461	0.2418
369.754	0.2556
369.962	0.2432
370.1699	0.2585
370.3778	0.255
370.5857	0.2525
370.7936	0.2562
371.0015	0.2506
371.2093	0.2582
371.4172	0.2568
371.625	0.2509
371.8328	0.2471
372.0406	0.2618
372.2484	0.259
372.4562	0.258
372.664	0.2648
372.8717	0.2617
373.0795	0.2667
373.2872	0.2661
373.4949	0.2691
373.7026	0.2599
373.9103	0.2626
374.118	0.2627
374.3256	0.2681
374.5333	0.2654
374.7409	0.2692
374.9485	0.2777
375.1561	0.2763
375.3637	0.2666
375.5713	0.2759
375.7789	0.2673
375.9864	0.2843
376.194	0.2832
376.4015	0.2773
376.609	0.2715
376.8165	0.2848
377.024	0.2774
377.2315	0.2782
377.4389	0.2831
377.6464	0.2899
377.8538	0.2823
378.0612	0.2847
378.2686	0.281
378.476	0.2912
378.6834	0.2848
378.8908	0.2814
379.0981	0.2832
379.3055	0.2949
379.5128	0.2896
379.7201	0.2871
379.9274	0.2895
380.1347	0.2948
380.342	0.3035
380.5492	0.3007
380.7565	0.2968
380.9637	0.2974
381.1709	0.2894
381.3781	0.2991
381.5853	0.2995
381.7925	0.305
381.9997	0.2988
382.2068	0.2957
382.4139	0.3004
382.6211	0.3001
382.8282	0.3012
383.0353	0.308
383.2424	0.2982
383.4494	0.3046
383.6565	0.3016
383.8635	0.3091
384.0706	0.3015
384.2776	0.2952
384.4846	0.3062
384.6916	0.3108
384.8986	0.3059
385.1055	0.3166
385.3125	0.3156
385.5194	0.3041
385.7263	0.2994
385.9333	0.312
386.1402	0.3114
386.347	0.303
386.5539	0.3051
386.7608	0.3021
386.9676	0.3025
387.1744	0.2938
387.3813	0.3103
387.5881	0.3019
387.7948	0.3113
388.0016	0.3123
388.2084	0.3092
388.4151	0.3049
388.6219	0.3054
388.8286	0.3087
389.0353	0.3071
389.242	0.3173
389.4487	0.2928
389.6553	0.2917
389.862	0.2923
390.0686	0.3074
390.2753	0.2979
390.4819	0.3006
390.6885	0.3016
390.8951	0.2917
391.1016	0.2928
391.3082	0.2986
391.5147	0.2916
391.7213	0.2911
391.9278	0.296
392.1343	0.2949
392.3408	0.2953
392.5473	0.284
392.7537	0.2857
392.9602	0.2883
393.1666	0.2845
393.373	0.2838
393.5794	0.283
393.7858	0.2863
393.9922	0.29
394.1986	0.2721
394.4049	0.2867
394.6113	0.2849
394.8176	0.2808
395.0239	0.2695
395.2302	0.275
395.4365	0.2755
395.6428	0.274
395.8491	0.2757
396.0553	0.2697
396.2615	0.2719
396.4678	0.2753
396.674	0.2652
396.8802	0.261
397.0863	0.2704
397.2925	0.2717
397.4987	0.2684
397.7048	0.2727
397.9109	0.2638
398.117	0.261
398.3231	0.261
398.5292	0.2572
398.7353	0.2591
398.9413	0.263
399.1474	0.2737
399.3534	0.2644
399.5594	0.2719
399.7654	0.2561
399.9714	0.265
400.1774	0.2569
400.3833	0.2674
400.5893	0.2584
400.7952	0.2695
401.0011	0.2543
401.207	0.2633
401.4129	0.2581
401.6188	0.2555
401.8247	0.266
402.0305	0.2627
402.2364	0.2611
402.4422	0.2663
402.648	0.2657
402.8538	0.2633
403.0596	0.2605
403.2654	0.2603
403.4711	0.2482
403.6768	0.2563
403.8826	0.2584
404.0883	0.2591
404.294	0.2627
404.4997	0.2611
404.7054	0.26
404.911	0.2572
405.1167	0.266
405.3223	0.2545
405.5279	0.2683
405.7335	0.2505
405.9391	0.2565
406.1447	0.2638
406.3502	0.2626
406.5558	0.2515
406.7613	0.2563
406.9668	0.2558
407.1724	0.2624
407.3778	0.2606
407.5833	0.2485
407.7888	0.25
407.9942	0.2649
408.1997	0.2628
408.4051	0.2619
408.6105	0.2698
408.8159	0.2575
409.0213	0.2612
409.2267	0.2736
409.432	0.2515
409.6374	0.2671
409.8427	0.2741
410.048	0.2684
410.2533	0.2599
410.4586	0.2561
410.6639	0.2685
410.8691	0.2557
411.0744	0.2543
411.2796	0.2603
411.4848	0.265
411.69	0.2497
411.8952	0.2573
412.1004	0.2551
412.3056	0.2603
412.5107	0.2641
412.7158	0.2596
412.921	0.2592
413.1261	0.2597
413.3312	0.2573
413.5362	0.2711
413.7413	0.262
413.9464	0.2524
414.1514	0.2522
414.3564	0.2561
414.5614	0.2535
414.7664	0.2549
414.9714	0.2517
415.1764	0.27
415.3813	0.2522
415.5863	0.2714
415.7912	0.2494
415.9961	0.2532
416.201	0.2533
416.4059	0.2528
416.6108	0.2551
416.8156	0.2435
417.0205	0.2523
417.2253	0.2487
417.4301	0.2534
417.6349	0.2432
417.8397	0.2514
418.0445	0.2515
418.2492	0.2433
418.454	0.2505
418.6587	0.2497
418.8634	0.252
419.0681	0.2467
419.2728	0.2452
419.4775	0.2559
419.6822	0.2423
419.8868	0.2435
420.0915	0.2347
420.2961	0.2322
420.5007	0.2411
420.7053	0.2487
420.9099	0.2507
421.1144	0.2387
421.319	0.2394
421.5235	0.2339
421.728	0.2386
421.9325	0.2441
422.137	0.2376
422.3415	0.2418
422.546	0.2243
422.7504	0.2295
422.9549	0.237
423.1593	0.2284
423.3637	0.2338
423.5681	0.2256
423.7725	0.2272
423.9769	0.2326
424.1812	0.2168
424.3856	0.2244
424.5899	0.2156
424.7942	0.2283
424.9985	0.2228
425.2028	0.2265
425.4071	0.2303
425.6113	0.2248
425.8156	0.2195
426.0198	0.2222
426.224	0.2284
426.4282	0.2126
426.6324	0.2112
426.8366	0.2056
427.0407	0.2296
427.2449	0.2063
427.449	0.211
427.6531	0.2213
427.8572	0.2117
428.0613	0.2163
428.2654	0.2166
428.4694	0.1996
428.6735	0.198
428.8775	0.2081
429.0815	0.2014
429.2855	0.1997
429.4895	0.2061
429.6935	0.192
429.8975	0.1956
430.1014	0.198
430.3053	0.2046
430.5093	0.1905
430.7132	0.1871
430.9171	0.1898
431.1209	0.1894
431.3248	0.1822
431.5286	0.1809
431.7325	0.1933
431.9363	0.1877
432.1401	0.1748
432.3439	0.1813
432.5477	0.1715
432.7514	0.1795
432.9552	0.1724
433.1589	0.1696
433.3627	0.1666
433.5664	0.1633
433.7701	0.1632
433.9737	0.1694
434.1774	0.1742
434.3811	0.1578
434.5847	0.164
434.7883	0.1599
434.9919	0.1577
435.1955	0.1551
435.3991	0.1573
435.6027	0.1489
435.8062	0.1616
436.0098	0.1467
436.2133	0.1493
436.4168	0.1502
436.6203	0.1385
436.8238	0.1394
437.0272	0.1434
437.2307	0.1406
437.4341	0.1236
437.6375	0.135
437.841	0.1243
438.0443	0.1365
438.2477	0.1243
438.4511	0.1214
438.6545	0.1288
438.8578	0.1258
439.0611	0.1199
439.2644	0.1308
439.4677	0.1189
439.671	0.1098
439.8743	0.1172
440.0775	0.1156
440.2808	0.1119
440.484	0.108
440.6872	0.115
440.8904	0.1001
441.0936	0.1117
441.2967	0.0976
441.4999	0.1014
441.703	0.0979
441.9062	0.1047
442.1093	0.1106
442.3124	0.0987
442.5155	0.0979
442.7185	0.0856
442.9216	0.0937
443.1246	0.0952
443.3276	0.0908
443.5307	0.0787
443.7337	0.0913
443.9366	0.0879
444.1396	0.0753
444.3426	0.0783
444.5455	0.0809
444.7484	0.0794
444.9513	0.0764
445.1542	0.0757
445.3571	0.0796
445.56	0.0662
445.7628	0.0724
445.9657	0.0812
446.1685	0.0849
446.3713	0.0695
446.5741	0.0806
446.7769	0.0756
446.9797	0.069
447.1824	0.0574
447.3852	0.0525
447.5879	0.0651
447.7906	0.0511
447.9933	0.0686
448.196	0.0542
448.3986	0.0509
448.6013	0.0438
448.8039	0.0588
449.0066	0.0677
449.2092	0.0608
449.4118	0.0514
449.6143	0.0551
449.8169	0.0472
450.0195	0.0496
450.222	0.0576
450.4245	0.0515
450.627	0.0453
450.8295	0.0448
451.032	0.0459
451.2345	0.0343
451.4369	0.0467
451.6394	0.0434
451.8418	0.0374
452.0442	0.0469
452.2466	0.0384
452.449	0.0387
452.6513	0.0354
452.8537	0.0435
453.056	0.0305
453.2583	0.0303
453.4607	0.0289
453.663	0.0388
453.8652	0.0439
454.0675	0.045
454.2697	0.0348
454.472	0.0219
454.6742	0.0354
454.8764	0.0338
455.0786	0.037
455.2808	0.0226
455.4829	0.0316
455.6851	0.0276
455.8872	0.023
456.0893	0.0302
456.2915	0.0215
456.4935	0.032
456.6956	0.0263
456.8977	0.0288
457.0997	0.0281
457.3018	0.0228
457.5038	0.0334
457.7058	0.0241
457.9078	0.0209
458.1098	0.0244
458.3117	0.03
458.5137	0.0055
458.7156	0.0272
458.9175	0.0273
459.1194	0.02
459.3213	0.0159
459.5232	0.0266
459.725	0.0208
459.9269	0.0297
460.1287	0.0142
460.3305	0.0226
460.5323	0.0129
460.7341	0.0246
460.9359	0.0159
461.1376	0.0222
461.3394	0.0248
461.5411	0.0124
461.7428	0.0154
461.9445	0.0129
462.1462	0.0198
462.3479	0.0108
462.5495	0.02
462.7512	0.0218
462.9528	0.0088
463.1544	0.0127
463.356	0.0094
463.5576	0.0174
463.7592	0.0086
463.9607	0.0009
464.1623	0.0139
464.3638	0.009
464.5653	0.017
464.7668	0.0164
464.9683	0.0185
465.1697	0.0094
465.3712	0.0033
465.5726	0.0112
465.7741	0.0139
465.9755	0.0117
466.1769	0.0074
466.3782	0.0107
466.5796	0.0107
466.7809	0.0204
466.9823	0.0017
467.1836	0.0123
467.3849	0.016
467.5862	-0.0001
467.7875	0.0169
467.9887	0.0107
468.19	0.0075
468.3912	0.0152
468.5924	0.0065
468.7936	0.0103
468.9948	0.0077
469.196	0.0111
469.3972	0.0036
469.5983	-0
469.7994	0.0108
470.0006	0.0102
470.2017	0.0128
470.4027	0.0251
470.6038	0.0098
470.8049	0.0145
471.0059	0.0095
471.2069	0.0125
471.408	0.0151
471.6089	0.0118
471.8099	0.0109
472.0109	0.0089
472.2119	0.0182
472.4128	0.0066
472.6137	0.0121
472.8146	-0
473.0155	0.0154
473.2164	0.0149
473.4173	0.0042
473.6181	-0.0049
473.819	0.0095
474.0198	-0.0036
474.2206	-0.0021
474.4214	0.0105
474.6222	0.0017
474.8229	0.0014
475.0237	0.0138
475.2244	0.0075
475.4251	0.0088
475.6258	0.0018
475.8265	0.0042
476.0272	-0.0023
476.2278	0.0145
476.4285	0.0041
476.6291	0.0075
476.8297	0.0066
477.0303	-0.0021
477.2309	0.0018
477.4315	0.0088
477.632	-0.0075
477.8326	0.0074
478.0331	0.0062
478.2336	-0.0007
478.4341	0.0059
478.6346	0.0013
478.8351	0.0008
479.0355	0.0133
479.236	0.0092
479.4364	0.0033
479.6368	0.0031
479.8372	0.0068
480.0376	0.0056
480.2379	0.0032
480.4383	0.0122
480.6386	0.0019
480.8389	0.0031
481.0392	0.0006
481.2395	0.0127
481.4398	0.0032
481.6401	0.0061
481.8403	0.0003
482.0405	0.0036
482.2408	0.0074
482.441	0.0083
482.6411	-0.0005
482.8413	-0.0016
483.0415	0.0121
483.2416	0.003
483.4417	0.0013
483.6419	-0.0069
483.8419	0.0031
484.042	0.0051
484.2421	-0.0052
484.4422	-0.0014
484.6422	0.0008
484.8422	0.0062
485.0422	0.0059
485.2422	0.0021
485.4422	0.0042
485.6422	0.0043
485.8421	0.0045
486.042	0.0132
486.242	-0.0005
486.4419	0.003
486.6417	-0.0007
486.8416	0.0045
487.0415	0.0013
487.2413	-0.0069
487.4411	0.0026
487.641	0.0021
487.8408	0.0057
488.0405	0.0044
488.2403	0.0044
488.4401	0.0005
488.6398	0.0062
488.8395	0.0037
489.0392	0.0105
489.2389	0.0058
489.4386	0.0016
489.6383	0.0066
489.8379	0.0019
490.0376	0.0058
490.2372	-0.0042
490.4368	0.0008
490.6364	-0.0021
490.836	-0.0063
491.0355	-0.0126
491.2351	-0.005
491.4346	-0.0049
491.6341	0.0002
491.8336	0.0023
492.0331	-0.0031
492.2326	0.0069
492.432	0.005
492.6315	0.0068
492.8309	0.0012
493.0303	0.005
493.2297	-0.0023
493.4291	-0.008
493.6284	0.0087
493.8278	-0.0078
494.0271	0.0022
494.2264	0.0011
494.4257	0.0001
494.625	0.008
494.8243	0.002
495.0236	0.0037
495.2228	0.0075
495.422	0.0024
495.6213	0.0027
495.8205	0.0037
496.0196	0.0042
496.2188	0.0006
496.418	0.0003
496.6171	-0.0064
496.8162	0.0016
497.0153	0.004
497.2144	0.0023
497.4135	0.0059
497.6126	-0.0009
497.8116	0.0002
498.0107	-0.0018
498.2097	0.0022
498.4087	0.0013
498.6077	-0.0025
498.8067	-0.0004
499.0056	-0.0019
499.2046	0.0042
499.4035	0.0014
499.6024	-0.0082
499.8013	0.0023
500.0002	-0.0011
500.199	0.0098
500.3979	-0.0051
500.5967	0.0042
500.7956	0.0064
500.9944	0.0053
501.1932	0.0061
501.3919	0.0029
501.5907	0.0044
501.7895	0.0039
501.9882	-0.0033
502.1869	-0.0011
502.3856	0.0017
502.5843	0.0022
502.783	0.0001
502.9816	0.004
503.1803	0.0008
503.3789	0.0054
503.5775	-0.001
503.7761	-0.0031
503.9747	0.0105
504.1732	-0.002
504.3718	0.0048
504.5703	0.0056
504.7689	-0.0003
504.9674	-0.001
505.1658	-0.0042
505.3643	0.01
505.5628	0.0132
505.7612	0.0055
505.9597	-0.0068
506.1581	-0.0033
506.3565	-0.0029
506.5549	-0.0023
506.7532	-0.0065
506.9516	-0.0036
507.1499	0.0018
507.3482	-0.0004
507.5465	0.0039
507.7448	0.0079
507.9431	-0.0048
508.1414	-0.0086
508.3396	-0
508.5379	0.0025
508.7361	0.0025
508.9343	0.0068
509.1325	0.0102
509.3306	0.0013
509.5288	-0.007
509.7269	0.0057
509.9251	0.0127
510.1232	0.0109
510.3213	-0.0003
510.5193	-0.0022
510.7174	-0.0063
510.9154	-0.0009
511.1135	-0.0056
511.3115	0.0062
511.5095	0.0008
511.7075	-0.008
511.9055	0.001
512.1034	-0.0069
512.3014	-0.0073
512.4993	-0.0001
512.6972	-0.0065
512.8951	0.0063
513.093	-0.0018
513.2908	0.0117
513.4887	0.0029
513.6865	-0.001
513.8844	-0.0018
514.0822	0.0059
514.2799	-0.0005
514.4777	-0.0095
514.6755	-0.0077
514.8732	-0.0053
515.0709	0.0045
515.2687	-0.0074
515.4664	-0.0033
515.664	0.0055
515.8617	0.0086
516.0594	0.0044
516.257	0.0036
516.4546	0.0154
516.6522	-0.0001
516.8498	0.0015
517.0474	-0.0053
517.2449	-0.0009
517.4425	-0.0021
517.64	-0.0028
517.8375	-0.0011
518.035	-0.0079
518.2325	-0.0089
518.43	-0.0073
518.6274	0.0038
518.8249	-0.0028
519.0223	0.0101
519.2197	-0.0033
519.4171	-0.0145
519.6145	-0.0032
519.8118	-0.0159
520.0092	-0.0151
520.2065	0.0105
520.4038	-0.0052
520.6011	0.0061
520.7984	0.0001
520.9956	-0.0007
521.1929	-0.002
521.3901	0.0027
521.5874	0.0015
521.7846	-0.0085
521.9818	-0.0066
522.1789	-0.0007
522.3761	0.007
522.5732	-0.0063
522.7704	-0.0139
522.9675	-0.0159
523.1646	-0.0093
523.3617	0.0056
523.5587	-0.0063
523.7558	0.001
523.9528	0.0057
524.1498	-0.0064
524.3468	0.0016
524.5438	0.0072
524.7408	-0.0137
524.9378	0.0029
525.1347	-0.0049
525.3316	0.006
525.5285	0.003
525.7254	-0
525.9223	0.0025
526.1192	-0.0004
526.316	0.0092
526.5129	-0
526.7097	0.007
526.9065	0.0055
527.1033	-0.0048
527.3	0.0052
527.4968	0.0025
527.6935	-0.0008
527.8903	-0.0064
528.087	-0.0088
528.2837	0.0055
528.4804	-0.0107
528.677	-0.004
528.8737	-0.0017
529.0703	-0.002
529.2669	0.0036
529.4635	-0.0011
529.6601	-0.0119
529.8567	0.0056
530.0532	0.0014
530.2498	0.001
530.4463	-0.01
530.6428	0.0091
530.8393	0.0037
531.0358	-0.0036
531.2322	-0.0083
531.4287	-0.0016
531.6251	-0.0103
531.8215	-0.0013
532.0179	-0.0013
532.2143	-0.0042
532.4107	0.007
532.607	-0.0056
532.8034	-0.0018
532.9997	-0.0089
533.196	-0.0014
533.3923	0.0047
533.5886	0.0038
533.7848	-0.0025
533.9811	-0.0009
534.1773	0.0001
534.3735	0.0051
534.5697	-0.0007
534.7659	-0.0046
534.9621	0.0017
535.1582	0.0045
535.3544	0.0101
535.5505	0.0001
535.7466	0.0068
535.9427	0.0001
536.1387	-0.0053
536.3348	-0.0005
536.5308	0.0016
536.7269	-0.0016
536.9229	0.0047
537.1189	0.0059
537.3148	0.0023
537.5108	-0.002
537.7068	0.0034
537.9027	-0.019
538.0986	0.0015
538.2945	-0.0058
538.4904	-0.0071
538.6863	0.0016
538.8821	0.002
539.078	-0.0012
539.2738	-0.0143
539.4696	-0.0035
539.6654	0.0043
539.8611	-0.0002
540.0569	-0.0046
540.2526	0.0087
540.4484	-0.005
540.6441	0.0005
540.8398	0.0014
541.0355	-0.0007
541.2311	0.0003
541.4268	0.0074
541.6224	0.0053
541.818	0.001
542.0136	0.0091
542.2092	0.0058
542.4048	-0.0072
542.6003	0.0002
542.7959	0.0015
542.9914	0.0008
543.1869	0.0006
543.3824	-0.0009
543.5779	0.0054
543.7734	0.0017
543.9688	0.0054
544.1642	-0.0049
544.3596	0.0028
544.555	0.0006
544.7504	0.0093
544.9458	0.0016
545.1411	0.0015
545.3365	0.0018
545.5318	0.0061
545.7271	0.0072
545.9224	-0.001
546.1177	0.0024
546.3129	-0.0055
546.5081	-0.0057
546.7034	-0.0002
546.8986	0.0003
547.0938	0.0055
547.289	0.0085
547.4841	0.0047
547.6793	-0.0021
547.8744	0.0045
548.0695	-0.0047
548.2646	0.0075
548.4597	0.0092
548.6548	0.0043
548.8498	0.0029
549.0448	0.0062
549.2399	0.0132
549.4349	-0.0073
549.6298	0.0078
549.8248	0.0008
550.0198	0.0024
550.2147	0.0097
550.4096	-0.0097
550.6045	-0.0047
550.7994	0.0002
550.9943	-0.0011
551.1892	-0.0131
551.384	0.0059
551.5788	0.0061
551.7737	0.0074
551.9685	0.0046
552.1632	0.0038
552.358	0.0036
552.5528	0.0009
552.7475	0.0041
552.9422	0.0002
553.1369	0.0023
553.3316	0.0002
553.5263	0.0194
553.7209	-0.004
553.9156	0.0114
554.1102	0.0024
554.3048	-0.0036
554.4994	0.0024
554.694	0.0066
554.8885	0.0029
555.0831	0.0042
555.2776	0.0132
555.4721	0.0025
555.6666	0.0083
555.8611	0.0003
556.0555	0.0044
556.25	0.0042
556.4444	-0.0032
556.6388	-0.0058
556.8332	-0.0033
557.0276	-0.0028
557.222	-0.0075
557.4163	-0.0015
557.6107	0.0047
557.805	0.0009
557.9993	0.0004
558.1936	-0.0002
558.3879	0.0039
558.5821	-0.0026
558.7764	0.0005
558.9706	-0.0056
559.1648	0.0086
559.359	-0.003
559.5532	-0.0012
559.7473	-0.0012
559.9415	-0.0051
560.1356	0.0068
560.3297	-0.0082
560.5238	0.0001
560.7179	0.0067
560.9119	-0.0067
561.106	-0.0084
561.3	-0.0001
561.494	-0.0081
561.688	-0.0011
561.882	-0.0064
562.076	0.0034
562.2699	0.0079
562.4639	0.0102
562.6578	0.0012
562.8517	0.0019
563.0456	-0.0018
563.2395	0.0059
563.4333	0.0029
563.6272	-0.0013
563.821	0.0012
564.0148	-0.0051
564.2086	0.0007
564.4024	0.0095
564.5961	-0.0044
564.7899	0.004
564.9836	0.0044
565.1773	0.006
565.371	0.0071
565.5647	-0.0025
565.7584	0.0093
565.952	0.0007
566.1456	0.0041
566.3393	0.0047
566.5329	0.0009
566.7264	-0.0042
566.92	0.0066
567.1136	-0.0029
567.3071	-0.0071
567.5006	0.0119
567.6941	-0.0012
567.8876	0.0027
568.0811	0.0235
568.2745	0.0013
568.468	0.0025
568.6614	0.0072
568.8548	0.0008
569.0482	0.0004
569.2416	0.0094
569.4349	-0.0002
569.6283	-0.0008
569.8216	0.0094
570.0149	0.0005
570.2082	0.0072
570.4015	0.0041
570.5947	0.006
570.788	0.0071
570.9812	0.0008
571.1744	0.0022
571.3676	0.0018
571.5608	0.0033
571.754	0.006
571.9471	0.0062
572.1402	0.0043
572.3333	0.003
572.5264	0.0071
572.7195	-0.0014
572.9126	-0.0011
573.1057	0.0074
573.2987	0.0036
573.4917	0.0061
573.6847	0.005
573.8777	0.0058
574.0707	0.0014
574.2636	0.0059
574.4566	0.0033
574.6495	0.0037
574.8424	0.0048
575.0353	0.0082
575.2281	0.0072
575.421	0.0067
575.6138	0.0017
575.8067	0.0054
575.9995	-0.0005
576.1923	0.0064
576.385	0.0053
576.5778	0.0074
576.7706	0.0049
576.9633	0.0063
577.156	-0.003
577.3487	0.0058
577.5414	0.0025
577.734	0.0012
577.9267	0.0058
578.1193	0.0039
578.3119	0.0013
578.5045	0.0062
578.6971	0.002
578.8897	0.0023
579.0822	0.0022
579.2747	0.0016
579.4673	0.0077
579.6598	0.0022
579.8522	0.0014
580.0447	0.0041
580.2372	0.0079
580.4296	0.0097
580.622	0.0046
580.8144	0.0049
581.0068	0.0039
581.1992	0.0074
581.3915	0.0001
581.5839	0.0039
581.7762	0.0027
581.9685	0.0037
582.1608	0.0049
582.353	0.0054
582.5453	0.0069
582.7375	0.0025
582.9298	0.0017
583.122	0.002
583.3142	0.0059
583.5063	-0.0018
583.6985	0.0013
583.8906	0.002
584.0827	0.0088
584.2749	0.0029
584.4669	0.0021
584.659	0.0089
584.8511	0.0083
585.0431	0.0099
585.2352	0.0041
585.4272	0.0029
585.6192	0.007
585.8111	0.0024
586.0031	0.0035
586.195	-0.0009
586.387	0.0011
586.5789	0.0046
586.7708	0.005
586.9627	0.0031
587.1545	0.0024
587.3464	0.0042
587.5382	0.0036
587.73	0.0114
587.9218	0.0043
588.1136	0.0013
588.3053	0.0031
588.4971	0.0017
588.6888	-0.0004
588.8805	0.0017
589.0722	0.0095
589.2639	0.0051
589.4556	0.0035
589.6472	0.0098
589.8389	0.0065
590.0305	0.0089
590.2221	0.0075
590.4137	0.0066
590.6052	-0.0041
590.7968	0.0019
590.9883	0.0059
591.1798	0.003
591.3713	0.0034
591.5628	0.0071
591.7543	0.0106
591.9458	0.0015
592.1372	0.0063
592.3286	0.0028
592.52	0.0028
592.7114	0.001
592.9028	0.0086
593.0941	0.0079
593.2855	0.0029
593.4768	0.0086
593.6681	0.0073
593.8594	0.0088
594.0506	0.0068
594.2419	0.0065
594.4331	0.0028
594.6244	0.0056
594.8156	0.0035
595.0067	0.0056
595.1979	-0.0005
595.3891	0.0045
595.5802	0.0069
595.7713	0.0049
595.9624	0.0047
596.1535	0.0025
596.3446	0.0023
596.5357	0.0046
596.7267	0.0024
596.9177	-0.0027
597.1087	-0.0036
597.2997	0.0075
597.4907	0.0044
597.6817	0.0079
597.8726	0.0024
598.0635	0.0032
598.2544	0.0079
598.4453	0.0053
598.6362	0.0064
598.827	0.0018
599.0179	0.0062
599.2087	0.0034
599.3995	0.005
599.5903	0.0055
599.7811	0.0098
599.9718	-0.0033
600.1626	-0.0056
600.3533	0.0022
600.544	0.0024
600.7347	0.0027
600.9254	0.0086
601.116	0.0062
601.3067	0.0066
601.4973	0.0097
601.6879	0.0019
601.8785	0.005
602.0691	0.0064
602.2596	0.0036
602.4502	0.0068
602.6407	0.0034
602.8312	0.0035
603.0217	0.0055
603.2122	0.0029
603.4027	0.0045
603.5931	0.0012
603.7835	0.0041
603.9739	0.0037
604.1643	0.0114
604.3547	0.0062
604.5451	0.0019
604.7354	0.0017
604.9257	0.0088
605.116	-0.0003
605.3063	0.0017
605.4966	0.0045
605.6869	0.0104
605.8771	0.0073
606.0673	0.0041
606.2575	0.0023
606.4477	0.0095
606.6379	-0.0006
606.8281	0.0093
607.0182	0.0057
607.2083	-0.0007
607.3985	0.0023
607.5885	0.0067
607.7786	0.0055
607.9687	0.0114
608.1587	0.0114
608.3488	0.0002
608.5388	-0.0011
608.7288	-0.0006
608.9187	0.004
609.1087	0.0046
609.2986	0.0047
609.4886	0.0008
609.6785	0.0013
609.8684	-0.0012
610.0582	0.0012
610.2481	-0.0053
610.4379	0.0062
610.6278	0.0016
610.8176	0.0055
611.0074	0.0034
611.1971	0.0046
611.3869	0.0083
611.5766	-0.0062
611.7664	0.0023
611.9561	0.0093
612.1458	0.0078
612.3354	0.0094
612.5251	0.0107
612.7147	0.0074
612.9044	0.0025
613.094	0.0028
613.2836	0.002
613.4731	0.0079
613.6627	0.0098
613.8522	0.0075
614.0417	0.0094
614.2313	0.0078
614.4207	0.005
614.6102	0.0156
614.7997	0.0134
614.9891	0.0021
615.1785	0.0034
615.3679	0.007
615.5573	0.005
615.7467	-0.0019
615.9361	0.0063
616.1254	0.0023
616.3147	0.0021
616.504	0.001
616.6933	0.0049
616.8826	0.0018
617.0718	0.0029
617.2611	0.0061
617.4503	0.0051
617.6395	-0.0037
617.8287	0.0104
618.0179	0.0002
618.207	0.0105
618.3961	0.0011
618.5853	0.005
618.7744	0.0106
618.9634	0.0151
619.1525	0.0005
619.3416	-0.0008
619.5306	0.0093
619.7196	0.0106
619.9086	-0.0017
620.0976	0.0031
620.2866	0.0119
620.4755	-0.0088
620.6645	0.0058
620.8534	0.0172
621.0423	0.0034
621.2312	-0.0037
621.42	0.0001
621.6089	-0
621.7977	0.0083
621.9865	0.0008
622.1753	0.0015
622.3641	-0.0065
622.5529	0.0053
622.7416	0.0011
622.9303	0.0062
623.1191	0.0089
623.3078	-0.0002
623.4964	-0.0085
623.6851	0.0019
623.8737	-0.0035
624.0624	-0.0075
624.251	0.0007
624.4396	-0.0042
624.6282	0.0053
624.8167	-0.0003
625.0053	0.0111
625.1938	0.0094
625.3823	0.0092
625.5708	-0.0085
625.7593	0.0015
625.9477	0.0086
626.1362	0.0007
626.3246	-0.002
626.513	0.0142
626.7014	0.0176
626.8898	0.0119
627.0781	0.0055
627.2665	0.005
627.4548	-0.0081
627.6431	0.0129
627.8314	0.0244
628.0197	0.0134
628.2079	0.0033
628.3962	0.0063
628.5844	-0
628.7726	0.001
628.9608	0.0146
629.1489	0.0023
629.3371	-0.0089
629.5252	0.0098
629.7134	-0.0097
629.9015	0.0117
630.0895	-0.0166
630.2776	0.0106
630.4657	0.003
630.6537	0.0048
630.8417	-0.0046
631.0297	0.0005
631.2177	0.0083
631.4057	0.0062
631.5936	0.0003
631.7815	0.0088
631.9695	0.0182
632.1574	0.0189
632.3452	0.01
632.5331	0.0048
632.7209	0.0096
632.9088	-0.002
633.0966	0.034
633.2844	0.0092
633.4722	0.0004
633.6599	0.0187
633.8477	0.0097
634.0354	0.004
634.2231	-0.0033
634.4108	0.0072
634.5985	0.0015
634.7861	0.0077
634.9738	-0.0106
635.1614	-0.0147
635.349	-0.0125
635.5366	0.0171
635.7242	0.0049
635.9117	0.0072
636.0993	0.0082
636.2868	0.0054
636.4743	0.0015
636.6618	-0.0071
636.8492	0.0163
637.0367	0.0006
637.2241	0.0133
637.4115	0.0126
637.5989	0.0094
637.7863	0.0303
637.9737	-0.0079
638.161	0.0093
638.3484	-0.0111
638.5357	0.0058
638.723	0.01
638.9103	-0.0039
639.0975	0.0018
639.2848	0.0101
639.472	0.0147
639.6592	-0.0097
639.8464	0.0057
640.0336	-0.0004
640.2208	0.0021
640.4079	0.0087
640.595	0.002
640.7821	-0.001
640.9692	-0.0058
641.1563	0.0022
641.3434	0.0099
641.5304	0.0252
641.7174	0.0089
641.9044	-0.0086
642.0914	0.0153
642.2784	-0.0052
642.4653	0.0004
642.6523	0.0081
642.8392	0.0038
643.0261	0.0119
643.213	0.0044
643.3999	0.0146
643.5867	0.0122
643.7735	-0.0043
643.9604	-0.0066
644.1472	0.0046
644.3339	0.0002
644.5207	0.0011
644.7075	0.0079
644.8942	-0.0077
645.0809	-0.0003
645.2676	-0.0087
645.4543	0.0009
645.6409	-0.0058
645.8276	-0.0032
646.0142	0.0002
646.2008	0.0085
646.3874	-0.0093
646.574	0.0083
646.7605	0.0088
646.9471	0.0028
647.1336	-0.0031
647.3201	0.0104
647.5066	0.0093
647.6931	-0.001
647.8795	0.0002
648.0659	0.0036
648.2524	0.0217
648.4388	0.0034
648.6252	0.0107
648.8115	-0.0047
648.9979	0.0125
649.1842	0.0064
649.3705	0.0149
649.5568	-0.0004
649.7431	0.0017
649.9294	-0.0095
650.1156	-0.0058
650.3018	0.0275
650.488	0.0131
650.6742	0.0066
650.8604	0.0077
651.0466	-0.0066
651.2327	0.0035
651.4188	0.0022
651.6049	0.0341
651.791	0.0035
651.9771	0.0075
652.1632	0.0106
652.3492	-0.0026
652.5352	0.0104
652.7212	0.0135
652.9072	0.0024
653.0932	0.0241
653.2791	0.0022
653.465	-0.006
653.651	0.0012
653.8369	0.0105
654.0227	-0.0116
654.2086	0.0058
654.3944	0.0155
654.5803	0.0067
654.7661	0.0081
654.9519	0.0009
655.1377	0.0001
655.3234	0.0001
655.5092	0.0001
655.6949	0.0001
655.8806	0.0001
656.0663	0.0001
656.2519	0.0001
656.4376	0.0001
656.6232	0.0001
656.8088	0.0001
656.9945	0.0001
657.18	0.0001
657.3656	0.0001
657.5511	0.0001
657.7367	0.0001
657.9222	0.0001
658.1077	0.0001
658.2932	0.0001
658.4786	0.0001
658.6641	0.0001
658.8495	0.0001
659.0349	0.0001
659.2203	0.0001
659.4057	0.0001
659.591	0.1393
659.7764	0.0262
659.9617	0.0086
660.147	0.0077
660.3323	0.0085
660.5176	-0.002
660.7028	0.007
660.888	0.0092
661.0733	0.0134
661.2585	-0.0056
661.4436	0.0061
661.6288	0.0223
661.8139	-0.0003
661.9991	-0.0252
662.1842	0.008
662.3693	0.0035
662.5544	0.0102
662.7394	0.0329
662.9245	-0.0057
663.1095	-0.0175
663.2945	-0.015
663.4795	-0.0019
663.6644	-0.0016
663.8494	0.0183
664.0343	-0.0116
664.2193	-0.0026
664.4042	-0.0097
664.589	0.0081
664.7739	0.0054
664.9587	-0.0084
665.1436	0.0054
665.3284	0.0022
665.5132	-0.0212
665.698	0.0212
665.8827	0.0293
666.0675	-0.0182
666.2522	0.0113
666.4369	0.0059
666.6216	0.0023
666.8063	0.0027
666.9909	0.0006
667.1756	-0.0023
667.3602	-0.0078
667.5448	0.023
667.7294	0.0013
667.9139	-0.0123
668.0985	-0.0054
668.283	0.003
668.4675	0.0161
668.652	0.0327
668.8365	0.0063
669.0209	0.0234
669.2054	0.0006
669.3898	-0.024
669.5742	0.0271
669.7586	0.0082
669.943	-0.0003
670.1273	-0.0118
670.3117	0.0108
670.496	-0.0083
670.6803	0.0158
670.8646	-0.0052
671.0488	0.029
671.2331	-0.0041
671.4173	0.0024
671.6015	0.0055
671.7857	0.001
671.9699	0.0198
672.1541	-0.0037
672.3382	0.0035
672.5223	0.004
672.7064	0.0077
672.8905	0.0053
673.0746	0.0071
673.2587	0.0033
673.4427	0.0092
673.6267	0.0246
673.8107	0.0169
673.9947	0.011
674.1787	-0.0049
674.3626	0.0111
674.5465	0.0057
674.7304	-0.0007
674.9143	-0.0035
675.0982	0.0031
675.2821	0.027
675.4659	0.0084
675.6497	0.0216
675.8335	0.0152
676.0173	-0.0009
676.2011	0.0248
676.3849	0.0177
676.5686	0.0108
676.7523	-0.0092
676.936	-0.0094
677.1197	0.0022
677.3034	0.0271
677.487	0.0042
677.6706	-0.0005
677.8542	-0.0009
678.0378	0.022
678.2214	-0.0014
678.405	0.0032
678.5885	0.0042
678.772	0.0041
678.9555	-0.0138
679.139	0.0124
679.3225	0.0118
679.5059	-0.0074
679.6894	-0.01
679.8728	0.0137
680.0562	-0.0015
680.2395	0.01
680.4229	-0.0089
680.6062	0.0072
680.7896	-0.0015
680.9729	0.0189
681.1562	-0.011
681.3394	0.0077
681.5227	0.0035
681.7059	-0.0081
681.8891	0.0059
682.0723	-0.0018
682.2555	0.0136
682.4387	0.0029
682.6218	0.0099
682.805	0.0104
682.9881	0.0086
683.1712	0.008
683.3542	0.0049
683.5373	0.0007
683.7203	0.0105
683.9034	-0.0038
684.0864	0.0064
684.2694	-0.0016
684.4523	0.0036
684.6353	0.0091
684.8182	0.0023
685.0011	0.0219
685.184	0.0067
685.3669	0.0374
685.5498	0.005
685.7326	-0.0004
685.9154	-0.0077
686.0982	0.0187
686.281	-0.0011
686.4638	0.0188
686.6465	-0.0078
686.8293	0.0042
687.012	0.0272
687.1947	0.0161
687.3774	0.016
687.56	-0.0158
687.7427	0.0147
687.9253	-0.0138
688.1079	0.0068
688.2905	0.0129
688.4731	0.0208
688.6556	0.0036
688.8382	-0.008
689.0207	0.0213
689.2032	0.0232
689.3857	0.0034
689.5681	-0.021
689.7506	0.0303
689.933	-0.0178
690.1154	0.0089
690.2978	0.0067
690.4802	0.0255
690.6626	0.0126
690.8449	0.0123
691.0272	-0.0023
691.2095	-0.0031
691.3918	0.0035
691.5741	-0.0034
691.7563	0.0109
691.9386	0.0377
692.1208	0.0069
692.303	-0.005
692.4852	-0.0052
692.6673	0.0116
692.8495	0.0111
693.0316	0.0007
693.2137	-0.001
693.3958	0.0075
693.5778	0.0161
693.7599	0.0236
693.9419	0.0137
694.1239	-0.0048
694.3059	0.011
694.4879	0.0088
694.6699	0.0042
694.8518	0.0078
695.0337	-0.0027
695.2157	0.0245
695.3975	0.0029
695.5794	-0.0207
695.7613	-0
695.9431	-0.0136
696.1249	0.0153
696.3067	-0.0068
696.4885	0.0191
696.6703	-0.0036
696.852	-0.0057
697.0337	0.0179
697.2154	0.0087
697.3971	0.0039
697.5788	0.0063
697.7605	0.0012
697.9421	0.0099
698.1237	0.0179
698.3053	-0.0082
698.4869	0.0032
698.6685	-0
698.85	0.0157
699.0315	-0.0374
699.213	0.0117
699.3945	0.001
699.576	0.0237
699.7575	0.0344
699.9389	-0.0081
700.1203	-0.0149
700.3017	0.0139
700.4831	0.0118
700.6645	0.0102
700.8458	-0.0059
701.0271	0.0292
701.2084	0.0082
701.3897	0.0056
701.571	-0.0138
701.7523	0.0183
701.9335	0.0284
702.1147	0.0254
702.2959	-0.0003
702.4771	0.0298
702.6583	0.0089
702.8394	-0.0107
703.0205	0.0168
703.2016	-0.0061
703.3827	-0.0016
703.5638	-0.0112
703.7449	0.0099
703.9259	0.0084
704.1069	-0.0358
704.2879	0.0253
704.4689	0.0102
704.6499	0.046
704.8308	0.0292
705.0117	0.0145
705.1927	0.029
705.3735	0.0004
705.5544	-0.0027
705.7353	0.0033
705.9161	-0.0071
706.0969	0.0164
706.2777	0.0156
706.4585	-0.0106
706.6393	0.0153
706.82	0.0046
707.0007	-0.0013
707.1815	-0.0082
707.3621	0.021
707.5428	0.02
707.7235	-0.004
707.9041	0.0131
708.0847	0.0042
708.2653	0.0442
708.4459	0.0105
708.6265	-0.01
708.807	0.0031
708.9875	-0.0044
709.168	0.0122
709.3485	0.0107
709.529	0.0184
709.7095	-0.0089
709.8899	0.0156
710.0703	0.0365
710.2507	0.0116
710.4311	-0.0191
710.6115	0.0361
710.7918	0.017
710.9721	0.0242
711.1524	-0.0022
711.3327	-0.0024
711.513	0.0072
711.6932	0.022
711.8735	0.004
712.0537	-0.0176
712.2339	0.0143
712.4141	0.0136
712.5942	-0.0154
712.7744	-0
712.9545	-0.0095
713.1346	0.0274
713.3147	0.021
713.4947	-0.0017
713.6748	0.0077
713.8548	0.0282
714.0348	0.0121
714.2148	0.0033
714.3948	0.0178
714.5748	0.0064
714.7547	0.0262
714.9346	0.0464
715.1145	-0.0017
715.2944	-0.0182
715.4743	0.0408
715.6541	-0.0201
715.834	0.0236
716.0138	0.0351
716.1936	-0.0048
716.3733	-0.0055
716.5531	-0.0011
716.7328	0.0212
716.9126	0.0055
717.0923	-0.0407
717.2719	0.0233
717.4516	0.0108
717.6312	-0.0137
717.8109	0.0283
717.9905	0.034
718.1701	0.0134
718.3496	-0.0043
718.5292	-0.0053
718.7087	0.0098
718.8882	0.0228
719.0677	0.021
719.2472	-0.0266
719.4267	0.0052
719.6061	0.0095
719.7856	0.0219
719.965	0.0132
720.1443	-0.0024
720.3237	0.014
720.5031	0.0219
720.6824	-0.0113
720.8617	0.0003
721.041	0.0275
721.2203	0.0118
721.3995	-0.0299
721.5788	-0.0098
721.758	-0.0017
721.9372	-0.0008
722.1164	-0.0135
722.2956	0.0066
722.4747	0.0192
722.6538	0.012
722.8329	0.0283
723.012	0.0021
723.1911	-0.0005
723.3702	0.0232
723.5492	0.0073
723.7282	0.0117
723.9072	0.0345
724.0862	-0.0076
724.2652	0.0121
724.4441	-0.0176
724.623	0.0235
724.8019	-0.0039
724.9808	0.0003
725.1597	0.0209
725.3385	0.0071
725.5174	0.0158
725.6962	-0.0007
725.875	0.0134
726.0538	0.0191
726.2325	0.0316
726.4112	-0.0111
726.59	-0.0189
726.7687	-0.0082
726.9474	0.0135
727.126	-0.0019
727.3047	0.0031
727.4833	0.0307
727.6619	-0.0061
727.8405	0.0132
728.0191	0.0172
728.1976	-0.005
728.3762	0.0127
728.5547	0.0062
728.7332	0.0262
728.9116	0.0382
729.0901	0.0038
729.2686	-0.0003
729.447	0.0148
729.6254	0.0085
729.8038	-0.0118
729.9821	-0.017
730.1605	0.0163
730.3388	-0.0024
730.5171	0.0261
730.6954	-0.0101
730.8737	0.0145
731.0519	-0.0056
731.2302	0.0291
731.4084	0.0092
731.5866	-0.0003
731.7648	0.013
731.9429	0.0132
732.1211	-0.0053
732.2992	-0.0069
732.4773	0.0135
732.6554	-0.0142
732.8335	0.0058
733.0115	0.0161
733.1896	-0.009
733.3676	0.0293
733.5456	0.0041
733.7235	-0.0058
733.9015	0.0074
734.0794	-0.0116
734.2574	-0.0109
734.4353	0.0216
734.6131	0.0003
734.791	-0.0006
734.9689	-0.0085
735.1467	-0.0074
735.3245	0.0236
735.5023	0.0273
735.68	-0.0148
735.8578	-0.0067
736.0355	0.0246
736.2132	0.0005
736.3909	0.0165
736.5686	-0.0102
736.7463	-0.0047
736.9239	0.0268
737.1015	0.0029
737.2791	0.0181
737.4567	0.018
737.6343	0.0097
737.8118	0.0099
737.9894	-0.0077
738.1669	0.0118
738.3444	0.029
738.5218	-0.0252
738.6993	0.0066
738.8767	0.0086
739.0541	0.0007
739.2315	0.022
739.4089	0.025
739.5863	0.006
739.7636	-0.0076
739.9409	0.0121
740.1182	-0
740.2955	0.0549
740.4728	-0.0048
740.65	-0.0219
740.8272	-0.0088
741.0044	0.0134
741.1816	0.0052
741.3588	-0.0252
741.5359	-0.003
741.7131	0.0139
741.8902	-0.0033
742.0673	-0.015
742.2444	0.0288
742.4214	0.0154
742.5985	-0.0005
742.7755	-0.0082
742.9525	-0.0284
743.1295	-0.0325
743.3064	-0.0382
743.4834	-0.0084
743.6603	0.0693
743.8372	-0.0257
744.0141	0.0425
744.191	-0.0047
744.3678	-0.0307
744.5446	0.0207
744.7215	0.0044
744.8982	0.0419
745.075	0.0412
745.2518	-0.0059
745.4285	0.0255
745.6052	-0.0313
745.7819	0.0108
745.9586	0.0184
746.1353	-0.0146
746.3119	0.008
746.4885	0.0328
746.6651	0.0021
746.8417	-0.0262
747.0183	0.0482
747.1948	0.0185
747.3714	0.0128
747.5479	0.0335
747.7244	0.0011
747.9008	-0.0143
748.0773	0.0145
748.2537	0.0208
748.4301	0.0168
748.6065	0.0189
748.7829	-0.0184
748.9593	-0.0035
749.1356	-0.0041
749.3119	0.0122
749.4882	0.0095
749.6645	0.0045
749.8408	0.0262
750.017	0.0186
750.1933	-0.001
750.3695	0.0152
750.5457	-0.0024
750.7218	0.0025
750.898	-0.001
751.0741	-0.0064
751.2502	0.0227
751.4263	0.0057
751.6024	0.0035
751.7784	0.0007
751.9545	-0.0117
752.1305	0.0209
752.3065	0.0082
752.4825	0.0068
752.6584	-0.0135
752.8344	0.0165
753.0103	0.0029
753.1862	0.0335
753.3621	-0.0084
753.5379	-0.01
753.7138	0.0095
753.8896	0.0249
754.0654	-0.0055
754.2412	0.0271
754.417	0.0054
754.5927	0.0096
754.7685	0.0201
754.9442	0.038
755.1199	0.0049
755.2956	0.009
755.4712	-0.0118
755.6469	-0.0077
755.8225	0.0279
755.9981	0.0046
756.1736	0.0196
756.3492	-0.0087
756.5248	0.0304
756.7003	-0.007
756.8758	-0.0043
757.0513	0.0077
757.2267	0.0147
757.4022	-0.0077
757.5776	0.0042
757.753	0.017
757.9284	0.0078
758.1038	0.0137
758.2791	0.018
758.4545	-0.0175
758.6298	0.004
758.8051	0.0083
758.9803	0.0096
759.1556	-0.0061
759.3308	0.0066
759.506	-0.0081
759.6812	0.0051
759.8564	0.0065
760.0316	0.0099
760.2067	0.0339
760.3819	-0.0038
760.557	0.0044
760.732	0.0056
760.9071	0.0164
761.0821	0.0016
761.2572	0.0016
761.4322	0.0193
761.6072	-0
761.7821	-0.0205
761.9571	0.0127
762.132	0.0026
762.3069	0.0082
762.4818	-0.0072
762.6567	-0.0214
762.8316	0.0253
763.0064	-0.001
763.1812	0.0038
763.356	-0.0104
763.5308	0.026
763.7055	0.0091
763.8803	0.0039
764.055	-0.0038
764.2297	0.0069
764.4044	-0.0031
764.579	0.006
764.7537	0.0045
764.9283	0.0153
765.1029	0.0046
765.2775	0.0191
765.4521	0.0157
765.6266	0.0053
765.8011	0.0229
765.9756	0.0229
766.1501	-0.0034
766.3246	0.0266
766.4991	-0.001
766.6735	0.0445
766.8479	-0.009
767.0223	0.0088
767.1967	-0
767.371	-0.0092
767.5454	0.0235
767.7197	0.0113
767.894	0.0378
768.0683	0.0083
768.2425	0.006
768.4168	0.0149
768.591	0.0031
768.7652	-0.0049
768.9394	-0.011
769.1135	-0.012
769.2877	0.011
769.4618	0.0417
769.6359	-0.0095
769.81	0.027
769.984	0.0199
770.1581	0.0302
770.3321	0.0316
770.5061	-0
770.6801	0.003
770.8541	0.0094
771.028	0.0158
771.202	0.0092
771.3759	0.0101
771.5498	-0.0083
771.7236	-0.0023
771.8975	0.0115
772.0713	0.023
772.2451	-0.0015
772.4189	0.0063
772.5927	-0.0137
772.7665	0.0267
772.9402	0.0498
773.1139	0.0044
773.2876	-0.0055
773.4613	0.0364
773.635	0.0333
773.8086	0.0296
773.9822	0.0171
774.1558	0.0537
774.3294	-0.0128
774.503	0.033
774.6765	0.0651
774.8501	0.0259
775.0236	0.0585
775.1971	-0.0209
775.3705	-0.0101
775.544	-0.0654
775.7174	0.0065
775.8908	-0.0001
776.0642	0.0279
776.2376	0.0446
776.4109	0.0025
776.5843	0.0088
776.7576	0.0137
776.9309	-0.0017
777.1041	-0.0132
777.2774	0.0371
777.4506	-0.0152
777.6238	-0.0105
777.797	0.0049
777.9702	0.0146
778.1434	0.0394
778.3165	-0.0269
778.4896	-0.036
778.6627	0.0187
778.8358	-0.0154
779.0089	-0.0223
779.1819	0.0158
779.3549	0.0099
779.5279	-0.0344
779.7009	0.0626
779.8739	0.0727
780.0468	0.0028
780.2197	0.0094
780.3926	0.0052
780.5655	0.0211
780.7384	0.0298
780.9112	0.0371
781.0841	0.0208
781.2569	0.016
781.4297	0.0176
781.6024	0.0124
781.7752	0.0451
781.9479	0.0773
782.1206	-0.013
782.2933	-0.0096
782.466	0.0179
782.6386	-0.0085
782.8113	0.0244
782.9839	-0.0018
783.1565	0.0105
783.329	-0.0081
783.5016	0.0282
783.6741	-0.0097
783.8466	0.0653
784.0191	0.0103
784.1916	-0.0268
784.3641	-0.0495
784.5365	0.0258
784.7089	-0.0452
784.8813	0.01
785.0537	0.0282
785.2261	0.0394
785.3984	0.0013
785.5707	-0.0095
785.743	0.0439
785.9153	-0.0124
786.0876	-0.0069
786.2598	-0.0427
786.432	0.0097
786.6042	0.0556
786.7764	-0.0404
786.9486	0.0062
787.1207	0.0373
787.2928	0.0295
787.4649	-0.0103
787.637	0.0017
787.8091	-0.0035
787.9811	0.044
788.1532	0.0283
788.3252	-0.0132
788.4972	0.0185
788.6691	0.0185
788.8411	-0.0154
789.013	0.0172
789.1849	0.01
789.3568	0.0259
789.5287	0.0112
789.7005	-0.0113
789.8723	-0.0047
790.0442	0.0245
790.2159	-0.0535
790.3877	0.0578
790.5595	0.0322
790.7312	-0.0167
790.9029	-0.0336
791.0746	-0.0113
791.2463	-0.0747
791.4179	-0.0043
791.5896	-0.0069
791.7612	0.0386
791.9328	0.0177
792.1044	-0.0287
792.2759	-0.0558
792.4474	0.0337
792.619	-0.0329
792.7905	0.0293
792.9619	0.0062
793.1334	0.0253
793.3048	0.0795
793.4762	0.0025
793.6476	-0.0186
793.819	0.0404
793.9904	-0.0001
794.1617	-0.0165
794.333	0.0017
794.5043	0.0122
794.6756	0.0128
794.8469	0.0193
795.0181	0.014
795.1893	0.0452
795.3605	0.0436
795.5317	0.0416
795.7029	0.0042
795.874	0.0074
796.0452	-0.0121
796.2163	0.0742
796.3873	0.1135
796.5584	0.0656
796.7294	0.0323
796.9005	0.024
797.0715	-0.0844
797.2425	0.0904
797.4134	0.0411
797.5844	0.0784
797.7553	-0.0547
797.9262	0.071
798.0971	0.072
798.2679	0.0147
798.4388	0.045
798.6096	0.0383
798.7804	0.0543
798.9512	0.0492
799.122	-0.0486
799.2927	0.0649
799.4635	-0.019
799.6342	-0.0311
799.8049	0.0215
799.9755	0.0284
800.1462	0.0223
800.3168	-0.0414
800.4874	-0.0989
800.658	0.0072
800.8286	-0.0242
800.9991	-0.0156
801.1696	-0.0073
801.3402	0.0599
801.5106	-0.0227
801.6811	0.0198
801.8516	0.0314
802.022	0.025
802.1924	-0.0225
802.3628	0.0366
802.5332	0.0355
802.7035	0.0591
802.8739	-0.0479
803.0442	-0.0659
803.2145	0.0268
803.3847	0.0524
803.555	0.0198
803.7252	-0.0705
803.8954	0.0269
804.0656	-0.0046
804.2358	0.0053
804.4059	0.0908
804.5761	0.0969
804.7462	-0.0104
804.9163	0.0224
805.0864	0.0122
805.2564	-0.0433
805.4264	0.0323
805.5965	-0.0247
805.7665	-0.0195
805.9364	0.0338
806.1064	0.1052
806.2763	0.0302
806.4462	0.0561
806.6161	0.0413
806.786	0.008
806.9559	0.0471
807.1257	0.0282
807.2955	-0.0347
807.4653	0.0612
807.6351	0.011
807.8048	0.0013
807.9746	-0.0136
808.1443	-0.0314
808.314	0.0736
808.4837	0.0229
808.6533	-0.0274
808.8229	0.0083
808.9926	0.0382
809.1622	0.0215
809.3317	0.0174
809.5013	-0.0215
809.6708	-0.0116
809.8403	-0.0298
810.0098	0.0273
810.1793	0.0235
810.3488	-0.0227
810.5182	0.1424
810.6876	0.0533
810.857	0.011
811.0264	-0.0633
811.1958	0.1458
811.3651	-0.0834
811.5344	0.0954
811.7037	0.1166
811.873	0.0886
812.0422	-0.0652
812.2115	0.0759
812.3807	-0.1591
812.5499	-0.0374
812.7191	0.0166
812.8882	-0.0449
813.0574	0.0184
813.2265	-0.075
813.3956	0.0576
813.5646	0.0902
813.7337	0.0372
813.9027	-0.0523
814.0718	0.0766
814.2407	0.0402
814.4097	0.0558
814.5787	0.0849
814.7476	0.0238
814.9165	0.0722
815.0854	-0.0169
815.2543	-0.0318
815.4232	0.0422
815.592	0.1627
815.7608	-0.064
815.9296	-0.0246
816.0984	0.0519
816.2671	-0.0251
816.4359	0.0925
816.6046	0.009
816.7733	0.0467
816.942	-0.0029
817.1106	0.0856
817.2793	-0.0227
817.4479	0.0069
817.6165	0.0112
817.785	0.0159
817.9536	-0.1576
818.1221	0.0297
818.2906	-0.0655
818.4591	-0.0717
818.6276	-0.0263
818.7961	0.0061
818.9645	0.0995
819.1329	-0.0127
819.3013	-0.0189
819.4697	-0.0977
819.638	-0.1379
819.8064	0.0233
819.9747	0.0945
820.143	-0.1206
820.3113	0.0977
820.4795	0.0337
820.6477	0.143
820.816	0.0474
820.9842	0.1356
821.1523	0.026
821.3205	0.0582
821.4886	0.0208
821.6567	-0.1006
821.8248	0.1909
821.9929	-0.1856
822.1609	-0.0167
822.329	0.0368
822.497	0.0689
822.665	-0.0461
822.833	0.06
823.0009	-0.0624
823.1688	0.2004
823.3367	-0.0899
823.5046	0.077
823.6725	0.0233
823.8404	-0.0191
824.0082	-0.0889
824.176	0.0702
824.3438	0.2606
824.5116	0.0804
824.6793	-0.0029
824.847	0.0826
825.0147	0.0969
825.1824	0.0618
825.3501	0.2778
825.5177	-0.0174
825.6854	-0.0567
825.853	0.1332
826.0206	0.0143
826.1881	0.0145
826.3557	0.0645
826.5232	0.2239
826.6907	-0.0049
826.8582	0.0352
827.0257	0.0785
827.1931	0.0053
827.3605	-0.0153
827.528	-0.0977
827.6953	-0.2096
827.8627	0.0035
828.03	0.0882
828.1974	-0.0852
828.3647	0.0483
828.532	0.0295
828.6992	0.0112
828.8665	-0.32
829.0337	0.0268
829.2009	-0.1226
829.3681	-0.0309
829.5352	-0.2904
829.7024	0.2526
829.8695	0.027
830.0366	0.2021
830.2037	0.1341
830.3707	0.2051
830.5378	-0.0324
830.7048	-0.0486
830.8718	-0.0131
831.0388	0.1287
831.2057	0.0849
831.3727	-0.3463
831.5396	0.1349
831.7065	-0.2558
831.8734	-0
832.0402	0.2192
832.2071	-0.1311
832.3739	-0.094
832.5407	-1.81
832.7075	-0.2162
832.8742	0.3629
833.041	-0.0004
833.2077	0.4408
833.3744	0.0038
833.541	0.258
833.7077	-0.0953
833.8743	-0.0326
834.0409	-0.0235
834.2075	0.289
834.3741	-0.1775
834.5407	0.2656
834.7072	0.0243
834.8737	0.2982
835.0402	0.5173
835.2067	-0.0505
835.3731	0.1765
835.5395	0.1226
835.706	-0.2321
835.8723	0.1795
836.0387	0.4684
836.2051	0.3031
836.3714	-0.014
836.5377	0.1848
836.704	0.3022
836.8703	0.0731
837.0365	-0.944
837.2027	0.2648
837.3689	0.1085
837.5351	0.1275
837.7013	0.1974
837.8674	-0.3677
838.0335	0.0101
838.1997	0.2597
838.3657	0.0939
838.5318	-0.1221
838.6978	-0.1645
838.8639	-0.5739
839.0299	-0.0006
839.1958	0.1391
839.3618	0.2193
839.5277	-0.2117
839.6937	-0.0009
839.8596	-0.2763
840.0254	0.3384
840.1913	-0.1967
840.3571	-0.2935
840.523	-0
840.6888	0.119
840.8545	-0
841.0203	0.2616
841.186	0.0631
841.3517	0.0182
841.5174	0.4302
841.6831	0.6284
841.8488	0.4188
842.0144	0.1093
842.18	0.4393
842.3456	-0.8381
842.5112	-0
842.6767	0.1839
842.8422	0.0092
843.0077	-0.1244
843.1732	-0.4694
843.3387	-0.1831
843.5042	-0
843.6696	-0.058
843.835	1.317
844.0004	-0.2138
844.1657	-0
844.3311	0.4393
844.4964	-0
844.6617	0.3332
844.827	-0
844.9923	0.2145
845.1575	-0.3809
845.3227	-0.1665
845.4879	-0.1366
845.6531	0.0474
845.8183	-0.0441
845.9834	-0
846.1485	0.282
846.3136	-0.2863
846.4787	-0
846.6438	-0.1466
846.8088	-0
846.9738	-0
847.1388	0.1487
847.3038	0.0847
847.4687	0.299
847.6337	-0
847.7986	-0.2361
847.9635	-0.145
848.1284	-0
848.2932	-0.016
848.458	-0
848.6228	0.3683
848.7876	-0
848.9524	-0.4762
849.1172	-1.8937
849.2819	-0
849.4466	0.6077
849.6113	0.0075
849.7759	-0
849.9406	0.0092
850.1052	-1.5905
850.2698	0.7181
850.4344	-0.1054
850.599	0.4325
850.7635	0.5377
850.928	0.8279
851.0925	0.1017
851.257	-0
851.4215	-0.0788
851.5859	0.4411
851.7503	-0
851.9147	-0
852.0791	-0.1806
852.2434	0.3511
852.4078	-0
852.5721	0.7396
852.7364	0.0546
852.9007	-0.135
853.0649	-0
853.2291	0.141
853.3934	-0
853.5575	-0
853.7217	0.9045
853.8859	-0.7363
854.05	-0.3747
854.2141	0.3177
854.3782	-0.1061
854.5423	-0
854.7063	-0.317
854.8703	-0.0436
855.0343	0.0079
855.1983	0.0147
855.3623	0.1141
855.5262	-0
855.6901	0.3407
855.854	1.1135
856.0179	0.556
856.1818	0.6211
856.3456	0.0207
856.5094	-0
856.6732	-0
856.837	-1.0884
857.0008	-0.169
857.1645	-0.4614
857.3282	-0.3502
857.4919	0.4739
857.6556	1.4212
857.8192	0.0969
857.9828	0.0858
858.1465	-0.0261
858.31	1.1632
858.4736	-0.4028
858.6372	-0.105
858.8007	0.3439
858.9642	0.523
859.1277	-0
859.2911	-0.3079
859.4546	-0
859.618	0.1891
859.7814	-0.1485
859.9448	0.5507
860.1081	-0
860.2715	-0
860.4348	-0.0612
860.5981	0.528
860.7614	0.1792
860.9246	-0.1521
861.0879	0.2711
861.2511	-0.7586
861.4143	-0.2234
861.5774	-0.4883
861.7406	-0
861.9037	-0.0679
862.0668	-1.0435
862.2299	0.185
862.393	-0
862.556	-0.272
862.7191	-0.1011
862.8821	0.2074
863.0451	0.4723
863.208	0.0718
863.371	0.1803
863.5339	0.3056
863.6968	1.7844
863.8597	0.9708
864.0225	-0
864.1854	-0.2948
864.3482	-0
864.511	0.0744
864.6737	-0
864.8365	0.4482
864.9992	-0
865.1619	-0.5683
865.3246	-1.9159
865.4873	-0.4354
865.65	0.8442
865.8126	0.318
865.9752	-0.0015
866.1378	-0.0247
866.3004	-0.4867
866.4629	-1.8937
866.6254	-0
866.7879	0.5602
866.9504	-0
867.1129	0.4949
867.2753	-0.0117
867.4377	0.0301
867.6001	-0.3612
867.7625	0.1556
867.9249	0.3685
868.0872	-0.1198
868.2495	0.7736
868.4118	-0
868.5741	-0.2613
868.7363	-0
868.8986	-0.4039
869.0608	-0.0034
869.223	0.0303
869.3851	-0.5972
869.5473	-0.1452
869.7094	-0
869.8715	-0
870.0336	0.0336
870.1957	-0
870.3577	0.7169
870.5197	0.0221
870.6817	-0.3172
870.8437	0.4054
871.0057	-0
871.1676	0.2096
871.3295	-0
871.4914	-0
871.6533	0.0366
871.8151	0.1843
871.977	-0
872.1388	-0.4458
872.3006	-0.6049
872.4623	-0.6538
872.6241	-0
872.7858	0.0281
872.9475	0.1395
873.1092	-0
873.2709	-0
873.4325	-1.9556
873.5941	-0
873.7557	-0
873.9173	-0.0932
874.0789	0.1918
874.2404	-0
874.4019	-0.0512
874.5634	-0
874.7249	1.2492
874.8863	-0
875.0478	-0.1742
875.2092	-0
875.3706	-0.0404
875.5319	-0
875.6933	-0.1343
875.8546	0.4105
876.0159	0.0931
876.1772	-0
876.3385	-0
876.4997	-0
876.6609	-0
876.8221	-0
876.9833	-0.0174
877.1445	0.3305
877.3056	-0
877.4667	-0
877.6278	-0
877.7889	-0.0646
877.9499	-0
878.111	-0.3228
878.272	-0
878.433	-0.4447
878.5939	1.1688
878.7549	0.1256
878.9158	-0
879.0767	-0.051
879.2376	-0
879.3984	0.2672
879.5593	0.3496
879.7201	-0.058
879.8809	-0
880.0417	-0.2409
880.2024	0.5111
880.3632	-0.0388
880.5239	-0
880.6846	1.1097
880.8452	0.5539
881.0059	-0.5257
881.1665	-0.0809
881.3271	0.2136
881.4877	-0.0007
881.6483	-0.9031
881.8088	-0.8299
881.9693	-0
882.1298	-0
882.2903	-0
