Data from D4ACN5uM440nmA_Absorbance_13-50-25-342.txt Node
Date: Fri Feb 21 13:50:25 GMT 2025
User: LASERRRRR
Spectrometer: FLMT03099
Trigger mode: 0
Integration Time (sec): 1.500000E-2
Scans to average: 1
Electric dark correction enabled: true
Nonlinearity correction enabled: false
Boxcar width: 0
XAxis mode: Wavelengths
Number of Pixels in Spectrum: 3648
>>>>>Begin Spectral Data<<<<<
179.3399	-0.59
179.5586	-0.59
179.7771	-0.59
179.9957	-0.153
180.2143	-0
180.4329	-0
180.6514	-0
180.8699	-0
181.0885	0.2149
181.307	-0.1706
181.5255	0.0094
181.744	-0.2253
181.9625	0.3545
182.181	-0.3235
182.3994	-0.67
182.6179	0.7978
182.8363	-0
183.0547	0.1179
183.2732	-0.0151
183.4916	0.4152
183.71	0.466
183.9284	0.0751
184.1467	0.0491
184.3651	0.0904
184.5835	0.2115
184.8018	0.0829
185.0201	0.0415
185.2385	0.2022
185.4568	0.0594
185.6751	0.2001
185.8934	0.1105
186.1117	0.0896
186.3299	0.0409
186.5482	0.0723
186.7664	0.1431
186.9847	0.2855
187.2029	0.1754
187.4211	-0.0638
187.6393	0.1332
187.8575	0.2778
188.0757	0.2114
188.2939	0.1793
188.512	0.2716
188.7302	0.1224
188.9483	0.4819
189.1665	0.5645
189.3846	0.2429
189.6027	0.1167
189.8208	0.3415
190.0389	0.1593
190.257	0.0441
190.475	0.1045
190.6931	0.1189
190.9111	0.2632
191.1292	0.1369
191.3472	0.0945
191.5652	0.5271
191.7832	0.2261
192.0012	0.1836
192.2192	0.1549
192.4371	0.2497
192.6551	0.2139
192.873	0.1585
193.091	0.1452
193.3089	0.1487
193.5268	0.2694
193.7447	0.166
193.9626	0.3019
194.1805	0.2878
194.3984	0.2674
194.6162	0.206
194.8341	0.3365
195.0519	0.2427
195.2697	0.3532
195.4875	0.311
195.7054	0.355
195.9231	0.2522
196.1409	0.3256
196.3587	0.3452
196.5765	0.3428
196.7942	0.3376
197.012	0.4084
197.2297	0.3101
197.4474	0.3942
197.6651	0.2788
197.8828	0.3856
198.1005	0.4272
198.3182	0.417
198.5358	0.3554
198.7535	0.3659
198.9711	0.3867
199.1888	0.3606
199.4064	0.4079
199.624	0.3742
199.8416	0.3377
200.0592	0.4622
200.2767	0.4003
200.4943	0.4586
200.7119	0.4354
200.9294	0.4414
201.1469	0.4224
201.3645	0.4322
201.582	0.4054
201.7995	0.4024
202.017	0.4183
202.2344	0.4056
202.4519	0.387
202.6694	0.4143
202.8868	0.4319
203.1042	0.4198
203.3217	0.3789
203.5391	0.4188
203.7565	0.3483
203.9739	0.3656
204.1913	0.367
204.4086	0.3441
204.626	0.3613
204.8433	0.352
205.0607	0.3343
205.278	0.3625
205.4953	0.3358
205.7126	0.3261
205.9299	0.3423
206.1472	0.3432
206.3644	0.3386
206.5817	0.345
206.7989	0.3401
207.0162	0.3296
207.2334	0.3452
207.4506	0.327
207.6678	0.3093
207.885	0.3009
208.1022	0.2915
208.3194	0.285
208.5365	0.3012
208.7537	0.2662
208.9708	0.282
209.1879	0.2875
209.405	0.2706
209.6222	0.2491
209.8392	0.2883
210.0563	0.2776
210.2734	0.2698
210.4905	0.2758
210.7075	0.2737
210.9245	0.2627
211.1416	0.2699
211.3586	0.2812
211.5756	0.255
211.7926	0.2599
212.0096	0.252
212.2265	0.2761
212.4435	0.2618
212.6604	0.249
212.8774	0.2522
213.0943	0.2567
213.3112	0.241
213.5281	0.2588
213.745	0.2289
213.9619	0.2436
214.1788	0.2479
214.3956	0.2571
214.6125	0.2734
214.8293	0.2534
215.0461	0.2634
215.2629	0.2578
215.4798	0.2518
215.6965	0.2483
215.9133	0.2257
216.1301	0.2422
216.3469	0.2511
216.5636	0.2441
216.7803	0.2432
216.9971	0.2578
217.2138	0.2622
217.4305	0.2488
217.6472	0.2276
217.8639	0.2362
218.0805	0.248
218.2972	0.2487
218.5138	0.2636
218.7305	0.2706
218.9471	0.2359
219.1637	0.2787
219.3803	0.2564
219.5969	0.2491
219.8135	0.2605
220.0301	0.2539
220.2466	0.2659
220.4632	0.2494
220.6797	0.2562
220.8962	0.2486
221.1127	0.2716
221.3292	0.2636
221.5457	0.2697
221.7622	0.2612
221.9787	0.2793
222.1951	0.2817
222.4116	0.2763
222.628	0.2884
222.8444	0.2829
223.0608	0.2766
223.2772	0.2719
223.4936	0.288
223.71	0.2745
223.9264	0.2903
224.1427	0.2935
224.3591	0.2942
224.5754	0.2856
224.7917	0.2957
225.008	0.2934
225.2243	0.3055
225.4406	0.2931
225.6569	0.3188
225.8732	0.3153
226.0894	0.2964
226.3057	0.3122
226.5219	0.3124
226.7381	0.3143
226.9543	0.3121
227.1705	0.3179
227.3867	0.3237
227.6029	0.3239
227.8191	0.34
228.0352	0.3325
228.2513	0.3611
228.4675	0.341
228.6836	0.3392
228.8997	0.3326
229.1158	0.3588
229.3319	0.3578
229.548	0.3487
229.764	0.3577
229.9801	0.3681
230.1961	0.3756
230.4121	0.36
230.6282	0.38
230.8442	0.3857
231.0602	0.3815
231.2761	0.3765
231.4921	0.3971
231.7081	0.4007
231.924	0.3984
232.14	0.4109
232.3559	0.4011
232.5718	0.4144
232.7877	0.4122
233.0036	0.4144
233.2195	0.4196
233.4353	0.4153
233.6512	0.4129
233.867	0.4271
234.0829	0.4182
234.2987	0.4283
234.5145	0.4356
234.7303	0.4306
234.9461	0.4301
235.1619	0.4391
235.3776	0.4294
235.5934	0.4364
235.8091	0.4375
236.0249	0.4512
236.2406	0.4381
236.4563	0.438
236.672	0.4369
236.8877	0.4491
237.1034	0.4479
237.319	0.4578
237.5347	0.4473
237.7503	0.4421
237.966	0.4611
238.1816	0.4561
238.3972	0.4611
238.6128	0.4717
238.8284	0.4617
239.0439	0.4628
239.2595	0.4581
239.475	0.4537
239.6906	0.4701
239.9061	0.4578
240.1216	0.4496
240.3371	0.4593
240.5526	0.4505
240.7681	0.4613
240.9836	0.4601
241.199	0.4588
241.4145	0.453
241.6299	0.4483
241.8453	0.4413
242.0607	0.4342
242.2761	0.4281
242.4915	0.4367
242.7069	0.4177
242.9223	0.429
243.1376	0.4134
243.353	0.4051
243.5683	0.3959
243.7836	0.3911
243.9989	0.3741
244.2142	0.3805
244.4295	0.3708
244.6448	0.3649
244.86	0.3526
245.0753	0.3437
245.2905	0.3339
245.5057	0.3367
245.721	0.3383
245.9362	0.3271
246.1514	0.32
246.3665	0.3093
246.5817	0.3038
246.7969	0.2976
247.012	0.2863
247.2271	0.2969
247.4423	0.2905
247.6574	0.2841
247.8725	0.2743
248.0876	0.2678
248.3026	0.2647
248.5177	0.2596
248.7328	0.2496
248.9478	0.2505
249.1628	0.2522
249.3779	0.2389
249.5929	0.2415
249.8079	0.2374
250.0228	0.2285
250.2378	0.2303
250.4528	0.2304
250.6677	0.2216
250.8827	0.2131
251.0976	0.2115
251.3125	0.2194
251.5274	0.2047
251.7423	0.2083
251.9572	0.2154
252.172	0.2066
252.3869	0.2046
252.6017	0.2044
252.8166	0.1965
253.0314	0.1939
253.2462	0.1955
253.461	0.1947
253.6758	0.1984
253.8906	0.1988
254.1053	0.1959
254.3201	0.1946
254.5348	0.1938
254.7496	0.1857
254.9643	0.1878
255.179	0.1873
255.3937	0.1903
255.6083	0.1888
255.823	0.185
256.0377	0.1801
256.2523	0.1841
256.467	0.185
256.6816	0.1819
256.8962	0.185
257.1108	0.1815
257.3254	0.1799
257.54	0.1874
257.7545	0.1854
257.9691	0.1767
258.1836	0.1742
258.3981	0.1792
258.6127	0.1727
258.8272	0.1803
259.0417	0.1738
259.2561	0.1745
259.4706	0.1705
259.6851	0.1794
259.8995	0.1795
260.114	0.1762
260.3284	0.1743
260.5428	0.1739
260.7572	0.1778
260.9716	0.1838
261.186	0.1754
261.4003	0.1742
261.6147	0.1784
261.829	0.1797
262.0433	0.1775
262.2577	0.1747
262.472	0.1796
262.6863	0.1853
262.9005	0.1783
263.1148	0.1801
263.3291	0.1773
263.5433	0.1748
263.7576	0.1773
263.9718	0.1786
264.186	0.1791
264.4002	0.1821
264.6144	0.1852
264.8286	0.1811
265.0427	0.1772
265.2569	0.1833
265.471	0.1808
265.6851	0.1852
265.8993	0.1781
266.1134	0.1811
266.3275	0.1803
266.5415	0.1841
266.7556	0.1857
266.9697	0.1861
267.1837	0.182
267.3978	0.1797
267.6118	0.1795
267.8258	0.178
268.0398	0.1814
268.2538	0.1818
268.4677	0.1764
268.6817	0.1807
268.8957	0.1751
269.1096	0.1761
269.3235	0.1739
269.5374	0.1801
269.7514	0.1807
269.9652	0.179
270.1791	0.1729
270.393	0.1712
270.6068	0.178
270.8207	0.1747
271.0345	0.17
271.2483	0.1702
271.4622	0.1709
271.676	0.1731
271.8897	0.1732
272.1035	0.1775
272.3173	0.1752
272.531	0.1693
272.7448	0.1738
272.9585	0.1703
273.1722	0.1708
273.3859	0.1746
273.5996	0.1754
273.8133	0.1792
274.0269	0.1679
274.2406	0.1753
274.4542	0.1753
274.6679	0.1805
274.8815	0.1843
275.0951	0.1764
275.3087	0.1801
275.5223	0.1745
275.7358	0.1829
275.9494	0.1804
276.1629	0.1822
276.3765	0.1715
276.59	0.1797
276.8035	0.1851
277.017	0.1831
277.2305	0.1865
277.444	0.1827
277.6574	0.1845
277.8709	0.1844
278.0843	0.1848
278.2978	0.188
278.5112	0.1772
278.7246	0.1821
278.938	0.1814
279.1513	0.189
279.3647	0.1798
279.5781	0.1839
279.7914	0.183
280.0047	0.1837
280.2181	0.1843
280.4314	0.1811
280.6447	0.1839
280.8579	0.1836
281.0712	0.1834
281.2845	0.1804
281.4977	0.1856
281.711	0.1774
281.9242	0.1815
282.1374	0.1839
282.3506	0.1857
282.5638	0.1809
282.7769	0.1825
282.9901	0.1767
283.2033	0.1834
283.4164	0.1844
283.6295	0.1786
283.8426	0.1792
284.0557	0.191
284.2688	0.1851
284.4819	0.1786
284.695	0.1834
284.908	0.1829
285.1211	0.1891
285.3341	0.1825
285.5471	0.1879
285.7601	0.1851
285.9731	0.1911
286.1861	0.1911
286.3991	0.192
286.612	0.1849
286.825	0.1904
287.0379	0.1873
287.2508	0.1811
287.4637	0.1859
287.6766	0.1888
287.8895	0.186
288.1024	0.1899
288.3152	0.184
288.5281	0.1825
288.7409	0.1893
288.9538	0.1885
289.1666	0.1891
289.3794	0.1853
289.5922	0.1841
289.8049	0.1858
290.0177	0.1927
290.2304	0.188
290.4432	0.1921
290.6559	0.1924
290.8686	0.1934
291.0813	0.188
291.294	0.1923
291.5067	0.1888
291.7194	0.1946
291.932	0.1886
292.1447	0.1857
292.3573	0.19
292.5699	0.1947
292.7825	0.1881
292.9951	0.1907
293.2077	0.1868
293.4203	0.193
293.6328	0.1909
293.8454	0.1946
294.0579	0.1886
294.2704	0.1929
294.4829	0.1885
294.6954	0.1903
294.9079	0.189
295.1204	0.1848
295.3328	0.1944
295.5453	0.193
295.7577	0.1895
295.9701	0.1916
296.1825	0.1927
296.3949	0.1894
296.6073	0.1852
296.8197	0.1885
297.0321	0.1949
297.2444	0.1923
297.4567	0.1909
297.6691	0.1903
297.8814	0.1931
298.0937	0.1876
298.306	0.1882
298.5182	0.1967
298.7305	0.1898
298.9428	0.1846
299.155	0.1891
299.3672	0.1933
299.5794	0.192
299.7916	0.1893
300.0038	0.1877
300.216	0.1872
300.4282	0.1934
300.6403	0.1938
300.8525	0.1948
301.0646	0.1882
301.2767	0.1916
301.4888	0.1861
301.7009	0.1947
301.913	0.1938
302.125	0.1887
302.3371	0.1929
302.5491	0.1898
302.7612	0.1969
302.9732	0.1901
303.1852	0.1868
303.3972	0.1974
303.6092	0.1916
303.8211	0.1875
304.0331	0.1908
304.245	0.1861
304.457	0.1896
304.6689	0.1895
304.8808	0.186
305.0927	0.1915
305.3046	0.1854
305.5164	0.1856
305.7283	0.1782
305.9401	0.1792
306.152	0.1824
306.3638	0.1844
306.5756	0.1767
306.7874	0.1754
306.9992	0.1715
307.2109	0.1739
307.4227	0.168
307.6344	0.1746
307.8462	0.1672
308.0579	0.174
308.2696	0.1678
308.4813	0.1708
308.693	0.1694
308.9046	0.1658
309.1163	0.162
309.328	0.1582
309.5396	0.1598
309.7512	0.1536
309.9628	0.1549
310.1744	0.1509
310.386	0.1473
310.5976	0.1486
310.8091	0.1525
311.0207	0.149
311.2322	0.144
311.4437	0.1427
311.6552	0.1467
311.8667	0.1478
312.0782	0.1432
312.2897	0.1383
312.5012	0.1417
312.7126	0.1351
312.924	0.1376
313.1355	0.1383
313.3469	0.1379
313.5583	0.1325
313.7696	0.1317
313.981	0.1359
314.1924	0.1366
314.4037	0.1345
314.6151	0.1302
314.8264	0.1336
315.0377	0.1312
315.249	0.1375
315.4603	0.1305
315.6716	0.1332
315.8828	0.1272
316.0941	0.1281
316.3053	0.1277
316.5165	0.1289
316.7277	0.1234
316.9389	0.1311
317.1501	0.1291
317.3613	0.1254
317.5724	0.1274
317.7836	0.1215
317.9947	0.1234
318.2058	0.1305
318.417	0.124
318.6281	0.1247
318.8391	0.1307
319.0502	0.1252
319.2613	0.1267
319.4723	0.1229
319.6834	0.127
319.8944	0.1279
320.1054	0.1256
320.3164	0.121
320.5274	0.1251
320.7383	0.1261
320.9493	0.1256
321.1602	0.1221
321.3712	0.1215
321.5821	0.1207
321.793	0.1277
322.0039	0.1198
322.2148	0.1254
322.4257	0.1246
322.6365	0.1195
322.8474	0.1295
323.0582	0.1324
323.269	0.1223
323.4798	0.1253
323.6906	0.1242
323.9014	0.1256
324.1122	0.1183
324.3229	0.1326
324.5337	0.1318
324.7444	0.1262
324.9551	0.1291
325.1658	0.1281
325.3765	0.1303
325.5872	0.1318
325.7979	0.1279
326.0085	0.1264
326.2192	0.1236
326.4298	0.1339
326.6404	0.1285
326.851	0.131
327.0616	0.1355
327.2722	0.129
327.4828	0.1315
327.6933	0.1394
327.9039	0.131
328.1144	0.1352
328.3249	0.1308
328.5354	0.1294
328.7459	0.1359
328.9564	0.1338
329.1669	0.134
329.3773	0.1315
329.5878	0.1331
329.7982	0.1355
330.0086	0.134
330.219	0.1327
330.4294	0.1346
330.6398	0.1361
330.8502	0.1423
331.0605	0.1269
331.2708	0.1351
331.4812	0.1388
331.6915	0.1349
331.9018	0.134
332.1121	0.1406
332.3224	0.1318
332.5326	0.1319
332.7429	0.136
332.9531	0.1364
333.1633	0.1341
333.3735	0.1298
333.5837	0.1406
333.7939	0.1356
334.0041	0.1422
334.2143	0.1361
334.4244	0.1432
334.6346	0.1395
334.8447	0.131
335.0548	0.1423
335.2649	0.1409
335.475	0.1392
335.685	0.1369
335.8951	0.1393
336.1051	0.1419
336.3152	0.1458
336.5252	0.1362
336.7352	0.1396
336.9452	0.1396
337.1552	0.1387
337.3652	0.1371
337.5751	0.1409
337.7851	0.1376
337.995	0.1442
338.2049	0.1372
338.4148	0.1416
338.6247	0.14
338.8346	0.1364
339.0445	0.1416
339.2543	0.145
339.4642	0.142
339.674	0.1372
339.8838	0.1474
340.0936	0.1468
340.3034	0.1486
340.5132	0.1439
340.7229	0.1368
340.9327	0.1529
341.1424	0.1476
341.3522	0.1409
341.5619	0.1518
341.7716	0.1519
341.9813	0.1517
342.1909	0.1523
342.4006	0.1481
342.6102	0.1488
342.8199	0.1514
343.0295	0.1468
343.2391	0.1505
343.4487	0.1519
343.6583	0.1646
343.8679	0.1487
344.0774	0.1565
344.287	0.149
344.4965	0.1586
344.706	0.16
344.9155	0.1563
345.125	0.1538
345.3345	0.1676
345.544	0.1532
345.7534	0.1615
345.9629	0.1645
346.1723	0.1609
346.3817	0.162
346.5911	0.1641
346.8005	0.1678
347.0099	0.1656
347.2193	0.1647
347.4286	0.1768
347.638	0.1694
347.8473	0.1734
348.0566	0.1625
348.2659	0.1731
348.4752	0.1634
348.6845	0.1716
348.8937	0.1683
349.103	0.1684
349.3122	0.1777
349.5214	0.1723
349.7306	0.1829
349.9398	0.1676
350.149	0.1659
350.3582	0.1743
350.5674	0.1748
350.7765	0.1757
350.9856	0.1694
351.1948	0.1821
351.4039	0.182
351.613	0.1747
351.822	0.1868
352.0311	0.1773
352.2402	0.1773
352.4492	0.1823
352.6582	0.1788
352.8672	0.1783
353.0762	0.1845
353.2852	0.1788
353.4942	0.1796
353.7032	0.18
353.9121	0.1857
354.1211	0.1839
354.33	0.1852
354.5389	0.1797
354.7478	0.183
354.9567	0.1804
355.1655	0.1911
355.3744	0.1822
355.5833	0.1917
355.7921	0.1885
356.0009	0.1909
356.2097	0.184
356.4185	0.1834
356.6273	0.1928
356.8361	0.186
357.0448	0.1867
357.2536	0.1909
357.4623	0.1927
357.671	0.1906
357.8797	0.1938
358.0884	0.1895
358.2971	0.1905
358.5057	0.1891
358.7144	0.1993
358.923	0.1927
359.1316	0.1957
359.3402	0.1916
359.5488	0.1945
359.7574	0.206
359.966	0.1997
360.1746	0.1942
360.3831	0.2029
360.5916	0.2051
360.8002	0.2083
361.0087	0.2069
361.2172	0.2059
361.4256	0.206
361.6341	0.2081
361.8426	0.2091
362.051	0.2134
362.2594	0.1999
362.4678	0.2134
362.6762	0.2161
362.8846	0.2096
363.093	0.2136
363.3014	0.2121
363.5097	0.2134
363.718	0.2166
363.9264	0.2219
364.1347	0.2181
364.343	0.2186
364.5513	0.22
364.7595	0.2243
364.9678	0.2196
365.176	0.2283
365.3842	0.2298
365.5925	0.2279
365.8007	0.2232
366.0089	0.2312
366.217	0.2256
366.4252	0.2308
366.6333	0.2385
366.8415	0.226
367.0496	0.2264
367.2577	0.2379
367.4658	0.2331
367.6739	0.2294
367.882	0.2304
368.09	0.2316
368.2981	0.2415
368.5061	0.2396
368.7141	0.233
368.9221	0.2417
369.1301	0.2491
369.3381	0.2458
369.5461	0.2412
369.754	0.2467
369.962	0.2404
370.1699	0.2522
370.3778	0.248
370.5857	0.2476
370.7936	0.2402
371.0015	0.2485
371.2093	0.2537
371.4172	0.2515
371.625	0.2419
371.8328	0.2443
372.0406	0.2614
372.2484	0.2479
372.4562	0.2565
372.664	0.2568
372.8717	0.2548
373.0795	0.2574
373.2872	0.2574
373.4949	0.2581
373.7026	0.2566
373.9103	0.2522
374.118	0.2601
374.3256	0.2621
374.5333	0.2647
374.7409	0.2577
374.9485	0.2592
375.1561	0.2651
375.3637	0.2492
375.5713	0.2701
375.7789	0.2633
375.9864	0.2642
376.194	0.2806
376.4015	0.2699
376.609	0.2728
376.8165	0.2729
377.024	0.2701
377.2315	0.2776
377.4389	0.2663
377.6464	0.2768
377.8538	0.2731
378.0612	0.2863
378.2686	0.2702
378.476	0.2831
378.6834	0.2743
378.8908	0.2783
379.0981	0.2815
379.3055	0.2803
379.5128	0.2728
379.7201	0.2741
379.9274	0.2906
380.1347	0.2833
380.342	0.2867
380.5492	0.2847
380.7565	0.2818
380.9637	0.2923
381.1709	0.2858
381.3781	0.2867
381.5853	0.2875
381.7925	0.2876
381.9997	0.2934
382.2068	0.291
382.4139	0.2883
382.6211	0.2832
382.8282	0.2952
383.0353	0.2926
383.2424	0.2939
383.4494	0.2889
383.6565	0.291
383.8635	0.298
384.0706	0.3084
384.2776	0.2932
384.4846	0.2917
384.6916	0.2961
384.8986	0.2986
385.1055	0.3021
385.3125	0.2967
385.5194	0.3021
385.7263	0.2928
385.9333	0.3029
386.1402	0.2932
386.347	0.2864
386.5539	0.3048
386.7608	0.2973
386.9676	0.2876
387.1744	0.2998
387.3813	0.2902
387.5881	0.2901
387.7948	0.3026
388.0016	0.3057
388.2084	0.2888
388.4151	0.2949
388.6219	0.2874
388.8286	0.2833
389.0353	0.2997
389.242	0.2881
389.4487	0.2775
389.6553	0.2824
389.862	0.2932
390.0686	0.2984
390.2753	0.2921
390.4819	0.2849
390.6885	0.2849
390.8951	0.2829
391.1016	0.2898
391.3082	0.2876
391.5147	0.2819
391.7213	0.2879
391.9278	0.2798
392.1343	0.2842
392.3408	0.2815
392.5473	0.2797
392.7537	0.2814
392.9602	0.2733
393.1666	0.2744
393.373	0.2715
393.5794	0.2807
393.7858	0.2863
393.9922	0.2774
394.1986	0.2656
394.4049	0.2757
394.6113	0.2758
394.8176	0.2669
395.0239	0.27
395.2302	0.273
395.4365	0.2627
395.6428	0.2667
395.8491	0.2604
396.0553	0.2622
396.2615	0.2625
396.4678	0.259
396.674	0.2604
396.8802	0.2575
397.0863	0.2524
397.2925	0.2611
397.4987	0.2459
397.7048	0.2616
397.9109	0.2518
398.117	0.2507
398.3231	0.2515
398.5292	0.2509
398.7353	0.2521
398.9413	0.2457
399.1474	0.2544
399.3534	0.2555
399.5594	0.2636
399.7654	0.2502
399.9714	0.2498
400.1774	0.2428
400.3833	0.2568
400.5893	0.25
400.7952	0.2566
401.0011	0.2477
401.207	0.2583
401.4129	0.2532
401.6188	0.2415
401.8247	0.2602
402.0305	0.2462
402.2364	0.2545
402.4422	0.2418
402.648	0.2572
402.8538	0.2457
403.0596	0.2452
403.2654	0.2523
403.4711	0.2464
403.6768	0.2516
403.8826	0.2532
404.0883	0.2511
404.294	0.251
404.4997	0.2563
404.7054	0.2568
404.911	0.2457
405.1167	0.2533
405.3223	0.237
405.5279	0.2436
405.7335	0.2532
405.9391	0.2506
406.1447	0.2503
406.3502	0.2566
406.5558	0.25
406.7613	0.2559
406.9668	0.2542
407.1724	0.2509
407.3778	0.2438
407.5833	0.2449
407.7888	0.2476
407.9942	0.2434
408.1997	0.2513
408.4051	0.2604
408.6105	0.2634
408.8159	0.2512
409.0213	0.2501
409.2267	0.252
409.432	0.2531
409.6374	0.2534
409.8427	0.256
410.048	0.2511
410.2533	0.2437
410.4586	0.2419
410.6639	0.2463
410.8691	0.2387
411.0744	0.2447
411.2796	0.249
411.4848	0.2533
411.69	0.2425
411.8952	0.2548
412.1004	0.2582
412.3056	0.2443
412.5107	0.2499
412.7158	0.2579
412.921	0.2503
413.1261	0.2516
413.3312	0.2473
413.5362	0.2521
413.7413	0.2399
413.9464	0.237
414.1514	0.2422
414.3564	0.2363
414.5614	0.2437
414.7664	0.2461
414.9714	0.2424
415.1764	0.2547
415.3813	0.2447
415.5863	0.2486
415.7912	0.2404
415.9961	0.2351
416.201	0.2555
416.4059	0.2387
416.6108	0.236
416.8156	0.2422
417.0205	0.251
417.2253	0.2446
417.4301	0.2464
417.6349	0.2366
417.8397	0.2345
418.0445	0.2391
418.2492	0.228
418.454	0.237
418.6587	0.2438
418.8634	0.2406
419.0681	0.2391
419.2728	0.2409
419.4775	0.2451
419.6822	0.2278
419.8868	0.2318
420.0915	0.2334
420.2961	0.2219
420.5007	0.2401
420.7053	0.2312
420.9099	0.2343
421.1144	0.2334
421.319	0.2242
421.5235	0.2315
421.728	0.2309
421.9325	0.2209
422.137	0.2265
422.3415	0.2241
422.546	0.2206
422.7504	0.2132
422.9549	0.2347
423.1593	0.2152
423.3637	0.2165
423.5681	0.2353
423.7725	0.2169
423.9769	0.2287
424.1812	0.2137
424.3856	0.2087
424.5899	0.2174
424.7942	0.2139
424.9985	0.2129
425.2028	0.2098
425.4071	0.2123
425.6113	0.2092
425.8156	0.2088
426.0198	0.2102
426.224	0.2109
426.4282	0.2019
426.6324	0.2067
426.8366	0.2047
427.0407	0.2018
427.2449	0.1999
427.449	0.1968
427.6531	0.2098
427.8572	0.201
428.0613	0.1989
428.2654	0.194
428.4694	0.2034
428.6735	0.1916
428.8775	0.1926
429.0815	0.1986
429.2855	0.19
429.4895	0.1945
429.6935	0.1945
429.8975	0.1836
430.1014	0.1969
430.3053	0.1873
430.5093	0.1834
430.7132	0.1805
430.9171	0.1746
431.1209	0.1778
431.3248	0.17
431.5286	0.1764
431.7325	0.1861
431.9363	0.1704
432.1401	0.1715
432.3439	0.1711
432.5477	0.1657
432.7514	0.1685
432.9552	0.164
433.1589	0.1602
433.3627	0.1653
433.5664	0.1569
433.7701	0.154
433.9737	0.1611
434.1774	0.1564
434.3811	0.1501
434.5847	0.1606
434.7883	0.1614
434.9919	0.1441
435.1955	0.1415
435.3991	0.1529
435.6027	0.1425
435.8062	0.1551
436.0098	0.1411
436.2133	0.1353
436.4168	0.1306
436.6203	0.1293
436.8238	0.134
437.0272	0.1311
437.2307	0.1202
437.4341	0.1424
437.6375	0.1282
437.841	0.1161
438.0443	0.1247
438.2477	0.1172
438.4511	0.1089
438.6545	0.1226
438.8578	0.1215
439.0611	0.1234
439.2644	0.129
439.4677	0.1147
439.671	0.1109
439.8743	0.1152
440.0775	0.1112
440.2808	0.1094
440.484	0.1074
440.6872	0.1053
440.8904	0.0897
441.0936	0.1007
441.2967	0.088
441.4999	0.0983
441.703	0.0935
441.9062	0.1014
442.1093	0.1098
442.3124	0.0916
442.5155	0.0902
442.7185	0.0892
442.9216	0.0893
443.1246	0.0928
443.3276	0.0896
443.5307	0.085
443.7337	0.0795
443.9366	0.0766
444.1396	0.0773
444.3426	0.0792
444.5455	0.0769
444.7484	0.0786
444.9513	0.0772
445.1542	0.0766
445.3571	0.0802
445.56	0.068
445.7628	0.0622
445.9657	0.0714
446.1685	0.0729
446.3713	0.0811
446.5741	0.0712
446.7769	0.0693
446.9797	0.0653
447.1824	0.065
447.3852	0.056
447.5879	0.0683
447.7906	0.0601
447.9933	0.0602
448.196	0.0487
448.3986	0.0524
448.6013	0.0466
448.8039	0.0576
449.0066	0.0626
449.2092	0.0583
449.4118	0.0526
449.6143	0.0542
449.8169	0.0505
450.0195	0.0457
450.222	0.0548
450.4245	0.0505
450.627	0.0454
450.8295	0.0481
451.032	0.0445
451.2345	0.0369
451.4369	0.0422
451.6394	0.0319
451.8418	0.0453
452.0442	0.0454
452.2466	0.03
452.449	0.0379
452.6513	0.0266
452.8537	0.0291
453.056	0.0394
453.2583	0.0414
453.4607	0.0224
453.663	0.0366
453.8652	0.022
454.0675	0.0404
454.2697	0.0283
454.472	0.0319
454.6742	0.0347
454.8764	0.0346
455.0786	0.0275
455.2808	0.0246
455.4829	0.0269
455.6851	0.0302
455.8872	0.0188
456.0893	0.0257
456.2915	0.0264
456.4935	0.03
456.6956	0.0136
456.8977	0.0292
457.0997	0.0259
457.3018	0.0148
457.5038	0.0334
457.7058	0.0274
457.9078	0.0261
458.1098	0.0306
458.3117	0.0339
458.5137	0.0156
458.7156	0.0207
458.9175	0.0208
459.1194	0.0171
459.3213	0.0165
459.5232	0.027
459.725	0.0188
459.9269	0.0155
460.1287	0.0127
460.3305	0.0208
460.5323	0.0173
460.7341	0.0192
460.9359	0.0068
461.1376	0.0198
461.3394	0.0156
461.5411	0.023
461.7428	0.0142
461.9445	0.0131
462.1462	0.0095
462.3479	0.016
462.5495	0.0117
462.7512	0.0181
462.9528	0.0176
463.1544	0.0048
463.356	0.0123
463.5576	0.0341
463.7592	0.0106
463.9607	0.0195
464.1623	0.0132
464.3638	0.0062
464.5653	0.0086
464.7668	0.0176
464.9683	0.017
465.1697	0.0112
465.3712	0.0006
465.5726	0.0045
465.7741	0.0163
465.9755	0.0082
466.1769	0.0061
466.3782	0.0116
466.5796	0.0133
466.7809	0.024
466.9823	0.0056
467.1836	0.0157
467.3849	0.0099
467.5862	0.0058
467.7875	0.0127
467.9887	0.0082
468.19	0.0053
468.3912	0.0145
468.5924	0.0075
468.7936	0.0135
468.9948	0.0056
469.196	0.0138
469.3972	0.0023
469.5983	0.005
469.7994	0.0138
470.0006	0.0104
470.2017	0.0082
470.4027	0.0209
470.6038	0.0148
470.8049	0.0115
471.0059	0.0127
471.2069	0.0132
471.408	0.0185
471.6089	0.0108
471.8099	0.0105
472.0109	0.0145
472.2119	0.0236
472.4128	0.0103
472.6137	0.0192
472.8146	0.0137
473.0155	0.0158
473.2164	0.0073
473.4173	0.0023
473.6181	0.0018
473.819	0.0061
474.0198	0.0066
474.2206	-0.0011
474.4214	0.002
474.6222	-0.0059
474.8229	-0.0025
475.0237	0.0155
475.2244	0.0126
475.4251	0.0059
475.6258	0.0056
475.8265	0.0125
476.0272	0.0003
476.2278	0.0105
476.4285	0.0059
476.6291	0.0085
476.8297	0.0098
477.0303	0.0037
477.2309	0.0128
477.4315	0.0093
477.632	0.0026
477.8326	0.0088
478.0331	0.0128
478.2336	0.0066
478.4341	0.0063
478.6346	0.0073
478.8351	0.0088
479.0355	0.0129
479.236	0.0181
479.4364	0.0069
479.6368	0.0113
479.8372	0.004
480.0376	0.0065
480.2379	0.0076
480.4383	0.0075
480.6386	-0.0049
480.8389	-0.001
481.0392	0.005
481.2395	0.0091
481.4398	0.0107
481.6401	0.0093
481.8403	0.0052
482.0405	0.0071
482.2408	0.0118
482.441	0.01
482.6411	0.0046
482.8413	-0.0036
483.0415	0.0142
483.2416	0.0094
483.4417	0.0046
483.6419	-0.0044
483.8419	0.0095
484.042	-0.0044
484.2421	-0.005
484.4422	0.0044
484.6422	0.0005
484.8422	0.0039
485.0422	0.0041
485.2422	0.0047
485.4422	0.0058
485.6422	0.0019
485.8421	0.0038
486.042	0.0105
486.242	0.0023
486.4419	0.0067
486.6417	-0.0007
486.8416	0.0037
487.0415	0.0068
487.2413	-0.0041
487.4411	0.0053
487.641	0.0019
487.8408	0.0129
488.0405	0.0095
488.2403	0.0009
488.4401	0.0051
488.6398	0.0104
488.8395	0.0077
489.0392	0.0118
489.2389	0.0074
489.4386	0.0001
489.6383	0.0094
489.8379	0.0017
490.0376	0.01
490.2372	0.0022
490.4368	-0.0012
490.6364	0.004
490.836	-0.0001
491.0355	-0.0004
491.2351	0.0104
491.4346	0.0034
491.6341	0.0008
491.8336	0.0047
492.0331	-0.0061
492.2326	0.0038
492.432	0.0137
492.6315	0.0129
492.8309	0.0069
493.0303	0.0033
493.2297	0.0054
493.4291	0.0038
493.6284	0.015
493.8278	-0.0032
494.0271	0.0033
494.2264	0.0012
494.4257	0.0021
494.625	0.0028
494.8243	0.0075
495.0236	0.0176
495.2228	0.0068
495.422	0.0046
495.6213	0.002
495.8205	0.007
496.0196	0.0051
496.2188	0.0057
496.418	0.0044
496.6171	0.0044
496.8162	0.0014
497.0153	0.0041
497.2144	0.0082
497.4135	0.0083
497.6126	0.0072
497.8116	-0.0012
498.0107	0.0076
498.2097	0.0019
498.4087	-0.0002
498.6077	-0.0008
498.8067	0.0057
499.0056	0.0017
499.2046	0.0056
499.4035	0.0079
499.6024	-0.0032
499.8013	0.0125
500.0002	0.0018
500.199	0.0105
500.3979	0.0008
500.5967	0.0113
500.7956	0.0077
500.9944	0.0062
501.1932	0.0084
501.3919	0.0122
501.5907	0.0106
501.7895	0.0034
501.9882	0.0048
502.1869	0.0104
502.3856	0.0059
502.5843	0.0053
502.783	0.0016
502.9816	0.0127
503.1803	0.0083
503.3789	0.0049
503.5775	0.0048
503.7761	-0.0012
503.9747	0.0116
504.1732	-0.0031
504.3718	0.0156
504.5703	0.0037
504.7689	-0.0035
504.9674	0.005
505.1658	0.0064
505.3643	0.0119
505.5628	0.0156
505.7612	0.0063
505.9597	-0.0057
506.1581	0.0025
506.3565	0.0038
506.5549	0.0088
506.7532	0.0035
506.9516	0.0072
507.1499	-0.0014
507.3482	0.0104
507.5465	0.0093
507.7448	0.0068
507.9431	0.0012
508.1414	-0.006
508.3396	0.0106
508.5379	0.0044
508.7361	0.0117
508.9343	0.0093
509.1325	0.0155
509.3306	0.0057
509.5288	-0.0058
509.7269	0.0065
509.9251	0.0083
510.1232	0.0074
510.3213	0.0131
510.5193	0.0109
510.7174	-0.0038
510.9154	0.0106
511.1135	0.0029
511.3115	0.0027
511.5095	0.0072
511.7075	0.0053
511.9055	0.0017
512.1034	0.0045
512.3014	0.0025
512.4993	0.0029
512.6972	0.0027
512.8951	0.0051
513.093	0.0026
513.2908	0.0148
513.4887	0.011
513.6865	0.0053
513.8844	0.0106
514.0822	0.0076
514.2799	-0.0028
514.4777	-0.0012
514.6755	-0.0057
514.8732	0.006
515.0709	0.0116
515.2687	0.004
515.4664	0.0187
515.664	0.0065
515.8617	0.0157
516.0594	0.0105
516.257	0.0114
516.4546	0.0154
516.6522	0.009
516.8498	0.0046
517.0474	0.0062
517.2449	0.0084
517.4425	0.0018
517.64	0.0052
517.8375	0.0197
518.035	-0.0008
518.2325	0.0034
518.43	0
518.6274	0.0054
518.8249	0.0026
519.0223	0.0131
519.2197	0.0046
519.4171	0.0066
519.6145	0.0036
519.8118	0.0006
520.0092	0.0061
520.2065	0.0157
520.4038	0.0037
520.6011	0.0077
520.7984	0.0142
520.9956	0.0123
521.1929	0.0062
521.3901	0.0142
521.5874	0.0116
521.7846	-0.0089
521.9818	0.0044
522.1789	0.004
522.3761	0.0182
522.5732	0.0083
522.7704	-0.0066
522.9675	-0.0004
523.1646	-0.0029
523.3617	0.011
523.5587	0.0034
523.7558	0.0075
523.9528	0.0094
524.1498	-0.0005
524.3468	0.0037
524.5438	0.0057
524.7408	0.0039
524.9378	0.0193
525.1347	0.006
525.3316	0.0135
525.5285	0.0079
525.7254	0.0165
525.9223	0.0177
526.1192	0.0057
526.316	0.0036
526.5129	0.0101
526.7097	0.0153
526.9065	0.0113
527.1033	0.0068
527.3	0.0055
527.4968	0.0002
527.6935	-0.0018
527.8903	0.0108
528.087	0.0032
528.2837	0.0114
528.4804	0.0013
528.677	0.0042
528.8737	0.0071
529.0703	-0.0006
529.2669	0.0148
529.4635	0.0057
529.6601	0.0042
529.8567	0.0014
530.0532	0.0025
530.2498	0.0046
530.4463	-0.007
530.6428	0.0085
530.8393	0.0096
531.0358	0.0075
531.2322	-0.0021
531.4287	0.0027
531.6251	0.0002
531.8215	0.002
532.0179	0.0028
532.2143	0.0135
532.4107	0.0092
532.607	-0.0003
532.8034	0.0091
532.9997	0.0044
533.196	-0.0001
533.3923	0.009
533.5886	0.0108
533.7848	0.0115
533.9811	0.0014
534.1773	0.0104
534.3735	0.0127
534.5697	0.0113
534.7659	0.0049
534.9621	0.0016
535.1582	0.0087
535.3544	0.0058
535.5505	0.0132
535.7466	0.0102
535.9427	-0.0035
536.1387	0.0021
536.3348	-0.0049
536.5308	-0.0004
536.7269	0.0014
536.9229	0.0103
537.1189	0.0031
537.3148	0.0042
537.5108	0.0021
537.7068	0.0111
537.9027	-0.0048
538.0986	0.0149
538.2945	-0.003
538.4904	-0.0041
538.6863	0.0026
538.8821	0.0154
539.078	0.0026
539.2738	0.0049
539.4696	0.0013
539.6654	0.0027
539.8611	-0.0006
540.0569	0.0018
540.2526	0.0115
540.4484	-0.0049
540.6441	0.0145
540.8398	0.0147
541.0355	0.0074
541.2311	-0.0042
541.4268	0.0087
541.6224	0.0134
541.818	0.0055
542.0136	0.0031
542.2092	0.0135
542.4048	0.0048
542.6003	0.0019
542.7959	0.0112
542.9914	0.0088
543.1869	0.0062
543.3824	0.0126
543.5779	0.0155
543.7734	0.0065
543.9688	0.0115
544.1642	0.0063
544.3596	0.0066
544.555	0.0065
544.7504	0.0201
544.9458	0.0063
545.1411	-0.0065
545.3365	-0.0018
545.5318	0.0038
545.7271	0.0055
545.9224	0.0032
546.1177	0.0087
546.3129	-0.002
546.5081	0.0026
546.7034	0.007
546.8986	0.0049
547.0938	0.0081
547.289	0.007
547.4841	0.012
547.6793	0.0017
547.8744	0.0126
548.0695	-0.0059
548.2646	0.0072
548.4597	0.0052
548.6548	0.013
548.8498	0.0054
549.0448	0.0046
549.2399	0.0123
549.4349	0.0052
549.6298	0.0091
549.8248	0.0008
550.0198	0.0119
550.2147	0.0036
550.4096	-0.0004
550.6045	0.0037
550.7994	0.0101
550.9943	0.0131
551.1892	-0.0118
551.384	0.0082
551.5788	0.0091
551.7737	0.0094
551.9685	-0.0008
552.1632	0.0008
552.358	0.0007
552.5528	0.0003
552.7475	0.0038
552.9422	0.0166
553.1369	0.0101
553.3316	0.0071
553.5263	0.0103
553.7209	-0.0038
553.9156	0.0036
554.1102	0.0139
554.3048	0.0003
554.4994	0.006
554.694	0.0069
554.8885	0.0143
555.0831	0.0046
555.2776	0.0045
555.4721	0.0115
555.6666	0.0036
555.8611	0.0061
556.0555	0.0026
556.25	0.0095
556.4444	0.0097
556.6388	0.0047
556.8332	0.01
557.0276	0.0116
557.222	0.0008
557.4163	0.0083
557.6107	0.0025
557.805	0.0103
557.9993	0.0046
558.1936	-0.0085
558.3879	0.0097
558.5821	-0.0046
558.7764	0.0011
558.9706	-0.0014
559.1648	0.0099
559.359	-0.0006
559.5532	0.0046
559.7473	0.0079
559.9415	0.0017
560.1356	0.0113
560.3297	-0.0005
560.5238	0.0148
560.7179	0.0053
560.9119	0.0096
561.106	0.0007
561.3	0.0068
561.494	-0.009
561.688	0.0065
561.882	0.004
562.076	0.0104
562.2699	0.0169
562.4639	0.0215
562.6578	0.0121
562.8517	0.0025
563.0456	0.0101
563.2395	0.0123
563.4333	0.0048
563.6272	0.0062
563.821	-0.0005
564.0148	0.007
564.2086	0.0077
564.4024	0.0108
564.5961	0.0134
564.7899	0.0115
564.9836	-0.0025
565.1773	0.0118
565.371	0.0052
565.5647	0.0061
565.7584	0.0129
565.952	0.007
566.1456	0.0077
566.3393	0.0194
566.5329	0.0078
566.7264	0.0073
566.92	0.005
567.1136	-0.0046
567.3071	-0.0028
567.5006	-0.0017
567.6941	0.0017
567.8876	-0.0003
568.0811	0.0195
568.2745	0.001
568.468	0.0068
568.6614	0.01
568.8548	0.0075
569.0482	0.0104
569.2416	0.0101
569.4349	0.0045
569.6283	0.001
569.8216	0.0074
570.0149	0.0076
570.2082	0.0087
570.4015	0.0038
570.5947	0.008
570.788	0.0082
570.9812	-0.0017
571.1744	0.0042
571.3676	0.0038
571.5608	0.003
571.754	0.0077
571.9471	0.006
572.1402	-0
572.3333	0.0083
572.5264	0.0042
572.7195	0.0044
572.9126	0.0017
573.1057	0.0075
573.2987	0.0021
573.4917	0.0029
573.6847	0.0052
573.8777	0.0074
574.0707	0.0039
574.2636	0.0073
574.4566	0.0058
574.6495	0.0009
574.8424	0.0054
575.0353	0.0049
575.2281	0.0089
575.421	0.0033
575.6138	0.0035
575.8067	0.0098
575.9995	0.0042
576.1923	0.0071
576.385	0.0082
576.5778	0.0102
576.7706	0.008
576.9633	0.006
577.156	0.0019
577.3487	0.0038
577.5414	0.0018
577.734	0.0012
577.9267	0.0045
578.1193	0.0062
578.3119	0.0004
578.5045	0.0048
578.6971	0.0024
578.8897	0.0007
579.0822	0.0087
579.2747	0.0012
579.4673	0.0078
579.6598	0.0024
579.8522	0.0062
580.0447	0.0063
580.2372	0.0121
580.4296	0.009
580.622	0.004
580.8144	0.0065
581.0068	0.004
581.1992	0.0034
581.3915	0
581.5839	0.0066
581.7762	0.0047
581.9685	0.0069
582.1608	0.0011
582.353	0.0052
582.5453	0.0072
582.7375	0.0041
582.9298	0.0001
583.122	0.0048
583.3142	0.0087
583.5063	0.0059
583.6985	0.0038
583.8906	0.003
584.0827	0.0074
584.2749	0.0036
584.4669	0.0036
584.659	0.0047
584.8511	0.0072
585.0431	0.0105
585.2352	0.0041
585.4272	0.0064
585.6192	0.0047
585.8111	-0.0035
586.0031	0.0041
586.195	0.0002
586.387	0.0004
586.5789	0.0036
586.7708	0.0086
586.9627	0.0086
587.1545	0.0065
587.3464	0.0036
587.5382	0.0054
587.73	0.0065
587.9218	-0.0007
588.1136	0.0024
588.3053	0.0089
588.4971	-0.0004
588.6888	0.0018
588.8805	0.002
589.0722	0.0071
589.2639	0.0047
589.4556	0.0055
589.6472	0.0111
589.8389	0.0033
590.0305	0.0097
590.2221	0.0095
590.4137	0.0051
590.6052	0.0037
590.7968	0.0051
590.9883	0.0012
591.1798	0.006
591.3713	0.0037
591.5628	0.0096
591.7543	0.0058
591.9458	0.007
592.1372	0.0033
592.3286	0.0038
592.52	0.0056
592.7114	0.0072
592.9028	0.0072
593.0941	0.0004
593.2855	0.0092
593.4768	0.0124
593.6681	0.0093
593.8594	0.0114
594.0506	0.0014
594.2419	0.0052
594.4331	0.006
594.6244	-0.0001
594.8156	-0.0035
595.0067	0.0004
595.1979	-0.0008
595.3891	0.003
595.5802	0.0111
595.7713	0.0085
595.9624	0.0094
596.1535	0.0004
596.3446	-0.0041
596.5357	0.0029
596.7267	0.0031
596.9177	0.0008
597.1087	-0.0028
597.2997	0.0087
597.4907	-0.0022
597.6817	0.0073
597.8726	0.0106
598.0635	0.0055
598.2544	0.012
598.4453	0.0077
598.6362	0.004
598.827	0.0041
599.0179	0.0011
599.2087	0.0077
599.3995	0.0074
599.5903	0.0105
599.7811	0.0122
599.9718	0.0064
600.1626	0.0005
600.3533	0.0001
600.544	0.0047
600.7347	0.0066
600.9254	0.0126
601.116	0.0072
601.3067	0.0059
601.4973	0.0051
601.6879	0.0086
601.8785	0.0029
602.0691	0.0026
602.2596	0.009
602.4502	0.0077
602.6407	0.0073
602.8312	0.0072
603.0217	0.007
603.2122	0.0071
603.4027	0.004
603.5931	-0.0003
603.7835	0.0089
603.9739	0.0012
604.1643	0.0057
604.3547	0.0045
604.5451	0.0044
604.7354	-0.0075
604.9257	0.003
605.116	0.0001
605.3063	0.0096
605.4966	0.0027
605.6869	0.0093
605.8771	0.0042
606.0673	0.0033
606.2575	0.009
606.4477	0.0118
606.6379	-0.0011
606.8281	0.0084
607.0182	0.0066
607.2083	0.008
607.3985	0.0032
607.5885	0.0048
607.7786	0.0087
607.9687	0.0143
608.1587	0.0056
608.3488	0.0107
608.5388	-0.0017
608.7288	0.0026
608.9187	0.0048
609.1087	0.0073
609.2986	0.0062
609.4886	0.005
609.6785	0.0077
609.8684	0.0017
610.0582	0.006
610.2481	0.0002
610.4379	0.0019
610.6278	0.0027
610.8176	0.0177
611.0074	-0.0003
611.1971	0.0022
611.3869	0.0058
611.5766	-0.0005
611.7664	0.0075
611.9561	0.0049
612.1458	0.0144
612.3354	0.0074
612.5251	0.0015
612.7147	0.0085
612.9044	0.0058
613.094	-0.0018
613.2836	0.0037
613.4731	0.0007
613.6627	0.0079
613.8522	0.0068
614.0417	0.0103
614.2313	0.0009
614.4207	0.0063
614.6102	0.0043
614.7997	0.0111
614.9891	0.0042
615.1785	-0.0013
615.3679	0.0019
615.5573	0.0011
615.7467	-0.0011
615.9361	0.0047
616.1254	0.0056
616.3147	0.0099
616.504	0.0075
616.6933	0.0073
616.8826	0.0094
617.0718	0.0072
617.2611	0.0017
617.4503	0.0134
617.6395	0.0134
617.8287	0.0054
618.0179	0.003
618.207	0.0085
618.3961	0.0014
618.5853	0.0027
618.7744	0.0056
618.9634	0.0108
619.1525	0.0005
619.3416	0.004
619.5306	0.0116
619.7196	0.0099
619.9086	0.0084
620.0976	0.0079
620.2866	0.0153
620.4755	0.0016
620.6645	0.0096
620.8534	0.003
621.0423	0.0062
621.2312	0.0027
621.42	0.0008
621.6089	0.0032
621.7977	0.0064
621.9865	0.0005
622.1753	-0.0028
622.3641	-0.0032
622.5529	0.0033
622.7416	0.0046
622.9303	0.0069
623.1191	0.0038
623.3078	0.0033
623.4964	0.0073
623.6851	0.0041
623.8737	0.0063
624.0624	-0.0063
624.251	0.0025
624.4396	0.0057
624.6282	0.0137
624.8167	0.0024
625.0053	0.0109
625.1938	0.0052
625.3823	0.0094
625.5708	-0.0027
625.7593	0.0079
625.9477	0.0123
626.1362	0.0066
626.3246	-0.0026
626.513	0.0047
626.7014	0.0094
626.8898	0.0115
627.0781	-0.0003
627.2665	0.0008
627.4548	-0.0108
627.6431	0.0173
627.8314	0.0127
628.0197	0.0065
628.2079	-0.0019
628.3962	0.0043
628.5844	0.0095
628.7726	0.0044
628.9608	-0.0038
629.1489	0.0062
629.3371	-0.0021
629.5252	0.0055
629.7134	-0.0089
629.9015	0.014
630.0895	-0.0147
630.2776	0.0164
630.4657	0.002
630.6537	0.0162
630.8417	-0.0034
631.0297	-0.0012
631.2177	0.004
631.4057	0.0056
631.5936	0.004
631.7815	0.0088
631.9695	0.0224
632.1574	0.0115
632.3452	0.0006
632.5331	0.0002
632.7209	0.0058
632.9088	0.0008
633.0966	0.0183
633.2844	0.0092
633.4722	-0.0039
633.6599	0.0253
633.8477	0.0052
634.0354	0.0088
634.2231	-0.0108
634.4108	0.0018
634.5985	0.0197
634.7861	-0.0017
634.9738	0.0105
635.1614	0.0064
635.349	0.0007
635.5366	0.0077
635.7242	0.0024
635.9117	0.0025
636.0993	0.0127
636.2868	0.0061
636.4743	0.0036
636.6618	-0.0035
636.8492	0.0064
637.0367	0.0079
637.2241	0.0044
637.4115	0.0272
637.5989	-0.0076
637.7863	0.0129
637.9737	0.0017
638.161	0.0121
638.3484	-0.0107
638.5357	0.0002
638.723	0.0206
638.9103	-0.0132
639.0975	0.0011
639.2848	0.0063
639.472	0.0036
639.6592	-0.0052
639.8464	0.0086
640.0336	0.0077
640.2208	-0.0015
640.4079	0.0018
640.595	-0.0081
640.7821	0.0107
640.9692	-0.0055
641.1563	0.0079
641.3434	0.0082
641.5304	0.0227
641.7174	0.0099
641.9044	0.0005
642.0914	0.0235
642.2784	0.0138
642.4653	-0.0036
642.6523	0.0176
642.8392	0.0036
643.0261	0.0091
643.213	0.0137
643.3999	0.0249
643.5867	0.0033
643.7735	-0.0112
643.9604	0.021
644.1472	0.021
644.3339	0.0086
644.5207	-0.0004
644.7075	0.016
644.8942	-0.0028
645.0809	0.01
645.2676	-0.008
645.4543	-0.0029
645.6409	0.0202
645.8276	0.0221
646.0142	0.0076
646.2008	0.0077
646.3874	0.002
646.574	-0.0011
646.7605	0.0046
646.9471	0.0014
647.1336	-0.0181
647.3201	0.0025
647.5066	0.0141
647.6931	0.0035
647.8795	0.0004
648.0659	0.0075
648.2524	0.0165
648.4388	0.0021
648.6252	0.0204
648.8115	-0.001
648.9979	0.0063
649.1842	-0.0038
649.3705	0.0098
649.5568	-0.0076
649.7431	0.0074
649.9294	-0.0059
650.1156	-0.0063
650.3018	0.0088
650.488	0.0208
650.6742	-0.0014
650.8604	0.0228
651.0466	0.0084
651.2327	0.0126
651.4188	0.0175
651.6049	0.0004
651.791	0.015
651.9771	0.0079
652.1632	0.0154
652.3492	0.0154
652.5352	0.03
652.7212	-0.0033
652.9072	0.0145
653.0932	0.0105
653.2791	-0.0028
653.465	0.004
653.651	0.0035
653.8369	-0.0094
654.0227	-0.0036
654.2086	0.021
654.3944	0.005
654.5803	0.0046
654.7661	0.0011
654.9519	-0.001
655.1377	0
655.3234	0
655.5092	0
655.6949	0
655.8806	0
656.0663	0
656.2519	0
656.4376	0
656.6232	0
656.8088	0
656.9945	0
657.18	0
657.3656	0
657.5511	0
657.7367	0
657.9222	0
658.1077	0
658.2932	0
658.4786	0
658.6641	0
658.8495	0
659.0349	0
659.2203	0
659.4057	0
659.591	0.155
659.7764	0.0266
659.9617	0.0046
660.147	0.007
660.3323	0.0071
660.5176	-0.0107
660.7028	-0.0172
660.888	0.015
661.0733	-0.0009
661.2585	0.0037
661.4436	0.0069
661.6288	0.0082
661.8139	-0.0017
661.9991	-0.0033
662.1842	-0.0091
662.3693	0.0074
662.5544	0.0084
662.7394	0.0136
662.9245	0.0142
663.1095	-0.0067
663.2945	-0.019
663.4795	-0.0256
663.6644	0.0059
663.8494	0.0197
664.0343	0.0201
664.2193	0.0037
664.4042	0.0126
664.589	0.0099
664.7739	0.0054
664.9587	-0.0172
665.1436	-0.0096
665.3284	0.013
665.5132	-0.0219
665.698	0.0099
665.8827	0.0154
666.0675	-0.0139
666.2522	0.0059
666.4369	0.0126
666.6216	0.0045
666.8063	-0.002
666.9909	-0.0145
667.1756	0.0322
667.3602	-0.0071
667.5448	-0.0019
667.7294	0.0183
667.9139	-0.0003
668.0985	0.0266
668.283	0.0062
668.4675	0.004
668.652	0.0201
668.8365	-0.0137
669.0209	0.0148
669.2054	-0.0057
669.3898	0.0164
669.5742	0.0225
669.7586	0.0343
669.943	0.0089
670.1273	0.0096
670.3117	0.0016
670.496	0.0085
670.6803	0.0089
670.8646	-0.0138
671.0488	0.0408
671.2331	-0.0067
671.4173	0.0181
671.6015	0.0104
671.7857	0.0074
671.9699	0.0091
672.1541	0.0083
672.3382	0.0028
672.5223	0.0091
672.7064	-0.0011
672.8905	0.0076
673.0746	0.0054
673.2587	0.0096
673.4427	0.0051
673.6267	0.0201
673.8107	0.013
673.9947	0.0193
674.1787	-0.0149
674.3626	0.0099
674.5465	0.0258
674.7304	0.0046
674.9143	-0.0188
675.0982	0.0189
675.2821	-0.0003
675.4659	-0.0064
675.6497	0.0065
675.8335	-0.0127
676.0173	0.004
676.2011	0.0139
676.3849	0.0148
676.5686	0.0159
676.7523	0.003
676.936	-0.0012
677.1197	-0.0065
677.3034	0.0152
677.487	0.0212
677.6706	0.0172
677.8542	-0.0109
678.0378	0.0041
678.2214	-0.003
678.405	0.0105
678.5885	0.0056
678.772	-0.0047
678.9555	0.0015
679.139	0.0108
679.3225	-0.0054
679.5059	-0.0107
679.6894	0.0109
679.8728	0.0041
680.0562	0.0056
680.2395	-0.0023
680.4229	-0.0052
680.6062	0.0173
680.7896	-0.0094
680.9729	0.0261
681.1562	0.0014
681.3394	0.0164
681.5227	0.0003
681.7059	-0.0005
681.8891	0.0166
682.0723	-0.0017
682.2555	0.024
682.4387	0.0039
682.6218	0.0214
682.805	0.0155
682.9881	0.0153
683.1712	-0.002
683.3542	0.0101
683.5373	-0.0173
683.7203	0.0216
683.9034	0.0002
684.0864	0.0052
684.2694	-0.0047
684.4523	0.0063
684.6353	0.0006
684.8182	0.0119
685.0011	0.0101
685.184	0.0106
685.3669	0.0204
685.5498	-0.0066
685.7326	0.0049
685.9154	-0.0067
686.0982	0.0042
686.281	0.0002
686.4638	-0.0002
686.6465	-0.0012
686.8293	-0.0156
687.012	0.0111
687.1947	0.0034
687.3774	0.0303
687.56	-0.0185
687.7427	0.0109
687.9253	-0.0216
688.1079	0.0086
688.2905	0.0095
688.4731	0.0128
688.6556	0.0006
688.8382	-0.0176
689.0207	0.018
689.2032	0.0125
689.3857	-0.0055
689.5681	0
689.7506	0.028
689.933	-0.0024
690.1154	0.0197
690.2978	-0.0128
690.4802	0.0168
690.6626	-0.0034
690.8449	0.0074
691.0272	0.0006
691.2095	-0.0129
691.3918	0.0183
691.5741	0.0105
691.7563	0.0147
691.9386	0.0105
692.1208	0.0027
692.303	0.0076
692.4852	-0.0042
692.6673	-0.003
692.8495	0.001
693.0316	0.0029
693.2137	0.0211
693.3958	-0.01
693.5778	-0.0035
693.7599	-0.0042
693.9419	-0.0072
694.1239	-0.0114
694.3059	0.0026
694.4879	0.0003
694.6699	-0.0103
694.8518	0.0087
695.0337	0.0104
695.2157	0.0254
695.3975	-0.0022
695.5794	-0.0142
695.7613	0.015
695.9431	-0.0297
696.1249	0.0396
696.3067	0.0066
696.4885	0.0139
696.6703	0.002
696.852	0.0085
697.0337	0.0126
697.2154	0.0161
697.3971	0.0079
697.5788	0.0197
697.7605	-0.0204
697.9421	0.0276
698.1237	0.0151
698.3053	0.0014
698.4869	0.0054
698.6685	0.0009
698.85	0.0187
699.0315	-0.0198
699.213	0.0232
699.3945	-0.0044
699.576	0.0149
699.7575	0.0301
699.9389	-0.0171
700.1203	0.0073
700.3017	0.0095
700.4831	0.0208
700.6645	0.0315
700.8458	-0.0242
701.0271	0.0334
701.2084	0.018
701.3897	-0.0168
701.571	-0.0235
701.7523	0.0126
701.9335	0.0325
702.1147	0.0267
702.2959	-0.012
702.4771	0.0069
702.6583	0.0003
702.8394	-0.0116
703.0205	0.011
703.2016	-0.0173
703.3827	-0.008
703.5638	0.0218
703.7449	0.0218
703.9259	0.0207
704.1069	-0.0243
704.2879	-0.0085
704.4689	-0.0168
704.6499	0.0249
704.8308	-0.023
705.0117	-0.012
705.1927	0.0171
705.3735	0.0242
705.5544	-0.0097
705.7353	0.0124
705.9161	-0.0313
706.0969	-0.0063
706.2777	0.0102
706.4585	0.016
706.6393	0.0019
706.82	0.0121
707.0007	-0.0129
707.1815	-0.0043
707.3621	0.0195
707.5428	0.0149
707.7235	-0.0047
707.9041	0.0018
708.0847	0.0081
708.2653	0.0065
708.4459	-0.0056
708.6265	0.0199
708.807	0.0123
708.9875	-0.0032
709.168	0.0032
709.3485	0.0196
709.529	0.0159
709.7095	-0.0263
709.8899	0.0026
710.0703	0.0132
710.2507	0.0168
710.4311	-0.0133
710.6115	0.0226
710.7918	0.0288
710.9721	0.0113
711.1524	-0.0234
711.3327	-0.0019
711.513	0.0077
711.6932	0.0203
711.8735	0.0284
712.0537	-0.0199
712.2339	-0.0231
712.4141	0.0342
712.5942	-0.0237
712.7744	0.0172
712.9545	0.0163
713.1346	0.0159
713.3147	0.0123
713.4947	-0.0079
713.6748	0.0129
713.8548	0.0146
714.0348	0.0119
714.2148	0.0062
714.3948	0.0032
714.5748	0.0091
714.7547	0.0187
714.9346	0.0062
715.1145	0.0302
715.2944	-0.0095
715.4743	-0.0093
715.6541	-0.0017
715.834	0.0097
716.0138	0.0121
716.1936	0.0275
716.3733	0.0097
716.5531	-0.009
716.7328	0.0169
716.9126	0.0227
717.0923	-0.0085
717.2719	0.049
717.4516	-0.0242
717.6312	0.0076
717.8109	0.0384
717.9905	0.0039
718.1701	-0.0087
718.3496	0.0012
718.5292	0.0057
718.7087	0.0207
718.8882	0.0172
719.0677	0.0145
719.2472	0.0066
719.4267	0.0276
719.6061	-0.0192
719.7856	0.0406
719.965	0.0051
720.1443	0.0032
720.3237	-0.0011
720.5031	0.0219
720.6824	0.0031
720.8617	0.0103
721.041	0.025
721.2203	-0.0158
721.3995	0.0097
721.5788	-0.0043
721.758	-0.007
721.9372	0.0283
722.1164	0.0243
722.2956	0.0207
722.4747	-0.0095
722.6538	-0.0104
722.8329	0.0243
723.012	0.0272
723.1911	-0.0141
723.3702	0.0113
723.5492	0.0171
723.7282	-0.0209
723.9072	0.0218
724.0862	-0.0209
724.2652	0.0144
724.4441	-0.012
724.623	0.0114
724.8019	0.022
724.9808	-0.0017
725.1597	-0.002
725.3385	-0.0067
725.5174	0.0034
725.6962	0.0072
725.875	0.009
726.0538	0.0063
726.2325	0.0091
726.4112	-0.0247
726.59	-0.005
726.7687	-0.0086
726.9474	0.0107
727.126	0.0202
727.3047	-0.0004
727.4833	0.0012
727.6619	-0.0035
727.8405	0.0042
728.0191	0.0116
728.1976	0.0025
728.3762	0.0022
728.5547	-0.0157
728.7332	0.0237
728.9116	0.001
729.0901	0.0109
729.2686	0.0279
729.447	-0.0177
729.6254	0.0176
729.8038	-0.0059
729.9821	-0.0262
730.1605	-0.0031
730.3388	-0.0049
730.5171	0.0256
730.6954	0.0025
730.8737	0.0245
731.0519	-0.0068
731.2302	0.0137
731.4084	0.0053
731.5866	-0.008
731.7648	-0.0009
731.9429	0.03
732.1211	-0.0244
732.2992	0.0035
732.4773	0.0026
732.6554	-0.0045
732.8335	0.012
733.0115	0.0205
733.1896	-0.0056
733.3676	0.0043
733.5456	-0.0056
733.7235	0.0056
733.9015	-0.0006
734.0794	-0.0079
734.2574	-0.02
734.4353	0.0058
734.6131	0.0045
734.791	-0.008
734.9689	-0.0123
735.1467	-0.0141
735.3245	0.0156
735.5023	-0.012
735.68	-0.0084
735.8578	0.0024
736.0355	0.0177
736.2132	0.0121
736.3909	0.0051
736.5686	-0.0013
736.7463	-0.0008
736.9239	0.0184
737.1015	-0.005
737.2791	0.008
737.4567	0.0105
737.6343	0.0029
737.8118	0.0046
737.9894	-0.0165
738.1669	-0.0049
738.3444	0.0278
738.5218	0.0044
738.6993	0.0096
738.8767	-0.0022
739.0541	0.0005
739.2315	0.0027
739.4089	0.0346
739.5863	-0.0291
739.7636	0.0063
739.9409	-0.0079
740.1182	-0.0023
740.2955	0.0183
740.4728	-0.0405
740.65	-0.0306
740.8272	0.0212
741.0044	-0.0345
741.1816	0.0149
741.3588	-0.0272
741.5359	-0.0133
741.7131	0.0153
741.8902	0.0173
742.0673	-0.0134
742.2444	0.021
742.4214	0.0206
742.5985	-0.0016
742.7755	-0.0081
742.9525	-0.0238
743.1295	-0.0268
743.3064	0.0069
743.4834	0.0055
743.6603	0.0271
743.8372	-0.0276
744.0141	0.0005
744.191	0.0281
744.3678	-0.0048
744.5446	-0.0124
744.7215	0.0284
744.8982	-0.0036
745.075	0.0627
745.2518	-0.016
745.4285	0.0109
745.6052	-0.0482
745.7819	-0.0023
745.9586	0.0251
746.1353	-0.0105
746.3119	0.0076
746.4885	0.032
746.6651	0
746.8417	0.0172
747.0183	0.0362
747.1948	0.011
747.3714	0.0192
747.5479	0.0202
747.7244	-0.0016
747.9008	0.0102
748.0773	0.0578
748.2537	0.0327
748.4301	0.0477
748.6065	-0.0027
748.7829	-0.0131
748.9593	0.0187
749.1356	0.0183
749.3119	-0.0003
749.4882	0
749.6645	0.0132
749.8408	0.0206
750.017	0.0261
750.1933	-0.0253
750.3695	0.0266
750.5457	-0.0077
750.7218	0.0019
750.898	-0.0203
751.0741	-0.0153
751.2502	0.0221
751.4263	-0.0012
751.6024	-0.0019
751.7784	0.0157
751.9545	-0.0076
752.1305	0.0194
752.3065	-0.0081
752.4825	-0.0102
752.6584	-0.0066
752.8344	0.0123
753.0103	-0.0155
753.1862	0.0106
753.3621	0.0033
753.5379	-0.0016
753.7138	0.0194
753.8896	0.0096
754.0654	-0.0094
754.2412	0.0035
754.417	0.0199
754.5927	0.0093
754.7685	0.0319
754.9442	0.0086
755.1199	-0.0006
755.2956	0.0072
755.4712	-0.0015
755.6469	0.0152
755.8225	-0.0003
755.9981	0.0173
756.1736	0.0017
756.3492	0.0012
756.5248	0.0269
756.7003	-0.0017
756.8758	0.0157
757.0513	0.0223
757.2267	0.012
757.4022	-0.0037
757.5776	-0.0069
757.753	0.0111
757.9284	0.0115
758.1038	0.0242
758.2791	-0.0052
758.4545	-0.0014
758.6298	0.0003
758.8051	0.0091
758.9803	-0.0082
759.1556	0.0044
759.3308	-0.0034
759.506	-0.0035
759.6812	0.0071
759.8564	0.0083
760.0316	-0.0103
760.2067	0.0344
760.3819	-0.0002
760.557	0.0087
760.732	0.0093
760.9071	0.0184
761.0821	-0.0076
761.2572	0.007
761.4322	0.0265
761.6072	-0.0013
761.7821	-0.0184
761.9571	0.0149
762.132	0.0147
762.3069	0.0029
762.4818	0.0112
762.6567	0.0019
762.8316	0.0324
763.0064	0.0054
763.1812	-0.0038
763.356	0.0032
763.5308	0.0203
763.7055	-0.0086
763.8803	-0.0205
764.055	0.0069
764.2297	-0.0143
764.4044	0.0005
764.579	0.009
764.7537	0.0028
764.9283	-0.0005
765.1029	0.0087
765.2775	0.0165
765.4521	0.0014
765.6266	-0.004
765.8011	-0.0127
765.9756	0.0207
766.1501	-0.0008
766.3246	0.0129
766.4991	0.0073
766.6735	0.0674
766.8479	-0.0005
767.0223	0.0133
767.1967	0.0132
767.371	-0.0041
767.5454	0.0246
767.7197	0.0109
767.894	0.0021
768.0683	0.0029
768.2425	-0.0038
768.4168	0.0149
768.591	-0.0083
768.7652	-0.0052
768.9394	-0.0365
769.1135	0.007
769.2877	0.0254
769.4618	0.0145
769.6359	-0.0008
769.81	0.031
769.984	0.0142
770.1581	0.0106
770.3321	0.0369
770.5061	-0.0277
770.6801	0.0051
770.8541	0.0123
771.028	0.0354
771.202	0.0125
771.3759	-0.0004
771.5498	-0.0087
771.7236	0.0095
771.8975	0.021
772.0713	0.0154
772.2451	0.0205
772.4189	0.001
772.5927	-0.0302
772.7665	0.0036
772.9402	0.0032
773.1139	-0.0188
773.2876	-0.0204
773.4613	0.0185
773.635	0.0064
773.8086	-0.0033
773.9822	0.0122
774.1558	0.0474
774.3294	0.0035
774.503	0.012
774.6765	0.0097
774.8501	-0.0047
775.0236	0.0851
775.1971	-0.0045
775.3705	0.0323
775.544	-0.103
775.7174	0.0219
775.8908	0.0234
776.0642	-0.0176
776.2376	0.0393
776.4109	0.0266
776.5843	-0.0103
776.7576	0.0191
776.9309	0.0223
777.1041	-0.0043
777.2774	-0.0318
777.4506	0.0166
777.6238	-0.0353
777.797	-0.0097
777.9702	0.0215
778.1434	0.0409
778.3165	-0.0198
778.4896	-0.0223
778.6627	0.0139
778.8358	0.0076
779.0089	-0.0222
779.1819	0.0038
779.3549	0.0035
779.5279	-0.0361
779.7009	0.054
779.8739	0.0178
780.0468	-0.0306
780.2197	0.0233
780.3926	-0.0077
780.5655	0.0378
780.7384	-0.025
780.9112	0.0217
781.0841	0.017
781.2569	-0.0031
781.4297	0.0078
781.6024	0.0224
781.7752	0.0308
781.9479	0.0391
782.1206	-0.0201
782.2933	0.0233
782.466	0.0235
782.6386	-0.0244
782.8113	-0.017
782.9839	-0.0212
783.1565	0.0267
783.329	0.0012
783.5016	0.0277
783.6741	-0.0108
783.8466	0.0423
784.0191	-0.0054
784.1916	-0.0362
784.3641	-0.0019
784.5365	0.0203
784.7089	-0.0266
784.8813	0.0527
785.0537	0.032
785.2261	0.0001
785.3984	0.0155
785.5707	0.0001
785.743	0.0177
785.9153	0.0315
786.0876	-0.0371
786.2598	0.0168
786.432	-0.0321
786.6042	0.055
786.7764	-0.0366
786.9486	-0.0182
787.1207	0.0567
787.2928	0.0367
787.4649	0.0072
787.637	-0.0029
787.8091	-0.0052
787.9811	0.0344
788.1532	0.0052
788.3252	-0.0069
788.4972	-0.0156
788.6691	0.026
788.8411	-0.0018
789.013	0.0147
789.1849	-0.0063
789.3568	0.0153
789.5287	0.0403
789.7005	-0.0318
789.8723	-0.0192
790.0442	-0.0058
790.2159	0.0148
790.3877	0.0229
790.5595	0.0214
790.7312	-0.027
790.9029	-0.004
791.0746	-0.0066
791.2463	-0.0356
791.4179	0.048
791.5896	0.011
791.7612	0.0279
791.9328	0.0179
792.1044	0.032
792.2759	0.0349
792.4474	-0.0136
792.619	0.0151
792.7905	0.0611
792.9619	0.0279
793.1334	0.0593
793.3048	0.0304
793.4762	0.0333
793.6476	-0.0109
793.819	0.0275
793.9904	-0.0241
794.1617	-0.0182
794.333	0.019
794.5043	-0.009
794.6756	0.0171
794.8469	0.0124
795.0181	-0.0087
795.1893	0.0303
795.3605	0.0194
795.5317	0.0479
795.7029	-0.0252
795.874	-0.0018
796.0452	0.0124
796.2163	0.0363
796.3873	0.0814
796.5584	0.1324
796.7294	0.0122
796.9005	0.0481
797.0715	-0.0318
797.2425	0.0879
797.4134	0.0301
797.5844	0.0655
797.7553	-0.0374
797.9262	0.0599
798.0971	0.0601
798.2679	-0.0337
798.4388	-0.0055
798.6096	0.0874
798.7804	0.0409
798.9512	0.0494
799.122	-0.0187
799.2927	0.0179
799.4635	-0.0607
799.6342	0.0173
799.8049	0.1547
799.9755	-0.0475
800.1462	0.0615
800.3168	0.0314
800.4874	-0.0742
800.658	0.1182
800.8286	0.0493
800.9991	0.0906
801.1696	0.0318
801.3402	-0.0308
801.5106	-0.0854
801.6811	-0.0533
801.8516	0.0905
802.022	0.0234
802.1924	-0.0222
802.3628	-0.019
802.5332	0.0968
802.7035	0.0486
802.8739	0.0303
803.0442	-0.0735
803.2145	0.0101
803.3847	0.0001
803.555	0.0269
803.7252	-0.029
803.8954	-0.0176
804.0656	-0.0205
804.2358	-0.0159
804.4059	0.051
804.5761	0.0377
804.7462	0.0001
804.9163	0.0065
805.0864	-0.0268
805.2564	0.0295
805.4264	-0.0655
805.5965	0.1174
805.7665	-0.0501
805.9364	0.0143
806.1064	-0.0454
806.2763	0.0618
806.4462	0.0595
806.6161	-0.0279
806.786	0.0248
806.9559	0.0169
807.1257	-0.0109
807.2955	-0.0121
807.4653	-0.0058
807.6351	0.0344
807.8048	0.0283
807.9746	0.0153
808.1443	-0.0362
808.314	0.0156
808.4837	0.0777
808.6533	0.0243
808.8229	0.0128
808.9926	0.0296
809.1622	0.0406
809.3317	-0.0532
809.5013	-0.0316
809.6708	-0.0193
809.8403	0.0067
810.0098	0.057
810.1793	-0.0061
810.3488	-0.0403
810.5182	0.1679
810.6876	0.0428
810.857	0.0371
811.0264	-0.0924
811.1958	0.1767
811.3651	-0.0612
811.5344	-0.0019
811.7037	0.0791
811.873	0.0018
812.0422	-0.0572
812.2115	-0.0823
812.3807	-0.1496
812.5499	-0.0298
812.7191	0.0725
812.8882	-0.1148
813.0574	-0.0101
813.2265	-0.0338
813.3956	0.0193
813.5646	0.0025
813.7337	0.0415
813.9027	0.0191
814.0718	0.0353
814.2407	0.0115
814.4097	0.0886
814.5787	0.0822
814.7476	0.0429
814.9165	-0.0074
815.0854	-0.0916
815.2543	-0.0807
815.4232	0.1605
815.592	-0.0122
815.7608	-0.137
815.9296	-0.0473
816.0984	-0.027
816.2671	-0.2484
816.4359	0.0344
816.6046	0.0221
816.7733	0.0669
816.942	-0.0619
817.1106	0.0889
817.2793	-0.0952
817.4479	-0.0673
817.6165	0.0475
817.785	0.0257
817.9536	-0.0268
818.1221	0.0367
818.2906	0.007
818.4591	0.016
818.6276	-0.0022
818.7961	0.0132
818.9645	0.0211
819.1329	-0.0161
819.3013	-0.0029
819.4697	-0.0412
819.638	-0.1274
819.8064	0.0675
819.9747	-0.0636
820.143	-0.0191
820.3113	0.05
820.4795	0.0371
820.6477	0.0337
820.816	-0.0043
820.9842	0.1036
821.1523	-0.0354
821.3205	0.023
821.4886	-0.0277
821.6567	-0.0582
821.8248	0.0843
821.9929	-0.1853
822.1609	0.1607
822.329	-0.0284
822.497	0.0871
822.665	0.0235
822.833	0.0195
823.0009	-0.0495
823.1688	-0.0699
823.3367	0.0791
823.5046	0.0002
823.6725	-0.0404
823.8404	-0.0091
824.0082	-0.0941
824.176	0.0004
824.3438	0.2266
824.5116	0.1131
824.6793	0.1043
824.847	0.0245
825.0147	0.1488
825.1824	-0.048
825.3501	-0.204
825.5177	0.0443
825.6854	-0.0775
825.853	0.0443
826.0206	0.0748
826.1881	-0.0105
826.3557	0.0994
826.5232	0.0186
826.6907	0.037
826.8582	0.2397
827.0257	0.1563
827.1931	0.1165
827.3605	-0.0184
827.528	-0.0149
827.6953	-0.2423
827.8627	-0.0669
828.03	-0.017
828.1974	-0.065
828.3647	0.0835
828.532	0.0585
828.6992	0.1714
828.8665	-0.1767
829.0337	0.0235
829.2009	-0.0686
829.3681	0.0333
829.5352	-0.2765
829.7024	0.0612
829.8695	-0.1517
830.0366	0.0881
830.2037	0.1611
830.3707	0.1125
830.5378	-0.132
830.7048	-0.2063
830.8718	0.1077
831.0388	0.217
831.2057	-0.1536
831.3727	-0.3385
831.5396	0.0859
831.7065	-0.8947
831.8734	0.3582
832.0402	0.3124
832.2071	-0
832.3739	-0.3817
832.5407	-1.5665
832.7075	-0.2653
832.8742	1.561
833.041	0.219
833.2077	0.3166
833.3744	-0.0604
833.541	0.3132
833.7077	-0.1682
833.8743	0.0988
834.0409	0.0072
834.2075	0.058
834.3741	-0.0587
834.5407	0.118
834.7072	0.0603
834.8737	0.2309
835.0402	0.1283
835.2067	-0.1981
835.3731	0.0283
835.5395	-0.0419
835.706	-0.0654
835.8723	-0.131
836.0387	0.1845
836.2051	0.3966
836.3714	0.0216
836.5377	-0.0588
836.704	0.1511
836.8703	-0.1666
837.0365	-0.1413
837.2027	-0.0657
837.3689	-0.0521
837.5351	0.6661
837.7013	-0.105
837.8674	0.2903
838.0335	-0.0843
838.1997	-0.1847
838.3657	0.6862
838.5318	-0.4504
838.6978	-0
838.8639	-0.3792
839.0299	-0.1235
839.1958	0.3178
839.3618	-0.012
839.5277	0.0069
839.6937	-0.1254
839.8596	-0.246
840.0254	-0.0395
840.1913	-0.5464
840.3571	0.1695
840.523	-0
840.6888	0.0194
840.8545	-0.2072
841.0203	0.1088
841.186	-0.055
841.3517	-0.0761
841.5174	-0.0445
841.6831	0.0488
841.8488	0.0179
842.0144	0.2781
842.18	0.1503
842.3456	-0.5582
842.5112	-0
842.6767	0.1149
842.8422	0.1143
843.0077	0.1959
843.1732	-0.4066
843.3387	0.1806
843.5042	0.7609
843.6696	-0.1922
843.835	-0.2968
844.0004	-0.2601
844.1657	-0
844.3311	0.0313
844.4964	-0
844.6617	-0
844.827	-0
844.9923	0.1777
845.1575	-0.3275
845.3227	-0.4023
845.4879	-0.1344
845.6531	0.6168
845.8183	0.2709
845.9834	-0
846.1485	0.3255
846.3136	0.0631
846.4787	-0.0394
846.6438	-0.1727
846.8088	-0
846.9738	-0
847.1388	-0.1649
847.3038	0.0777
847.4687	-0
847.6337	-0.5256
847.7986	-0.1111
847.9635	-0.0683
848.1284	-0
848.2932	0.1375
848.458	-0
848.6228	-0
848.7876	-0
848.9524	0.2579
849.1172	-1.6406
849.2819	-0
849.4466	0.5431
849.6113	-0.113
849.7759	-0.3896
849.9406	0.478
850.1052	-1.1715
850.2698	-0
850.4344	-0.7056
850.599	0.4388
850.7635	0.2342
850.928	0.1159
851.0925	0.3087
851.257	-0.0945
851.4215	0.9414
851.5859	-0.0392
851.7503	-0
851.9147	-0
852.0791	-0.276
852.2434	0.4168
852.4078	-0.0023
852.5721	0.6168
852.7364	0.2479
852.9007	-0.2847
853.0649	-0
853.2291	0.6075
853.3934	0.1281
853.5575	0.2426
853.7217	0.1614
853.8859	-0
854.05	-0.4833
854.2141	0.9001
854.3782	1.01
854.5423	-0.0667
854.7063	0.1304
854.8703	0.057
855.0343	-0.0078
855.1983	-0.0425
855.3623	-0.0395
855.5262	-0
855.6901	0.2694
855.854	0.397
856.0179	-0.156
856.1818	-0
856.3456	0.6661
856.5094	-0.2838
856.6732	-0.3302
856.837	-1.0272
857.0008	-0
857.1645	-0.1314
857.3282	-0.5645
857.4919	0.5275
857.6556	-0.4316
857.8192	-0.2187
857.9828	-0.3029
858.1465	-0.1222
858.31	-0
858.4736	-0
858.6372	0.002
858.8007	-0.2283
858.9642	0.1501
859.1277	1.1912
859.2911	-0.4357
859.4546	-0
859.618	0.1667
859.7814	-0.2101
859.9448	-0.3306
860.1081	-0
860.2715	-1.2553
860.4348	-0.1319
860.5981	0.3203
860.7614	0.8877
860.9246	-0.1319
861.0879	0.3689
861.2511	-0
861.4143	0.1171
861.5774	-0.4322
861.7406	0.3129
861.9037	-0.327
862.0668	-0
862.2299	-0.1179
862.393	-0
862.556	-0.5328
862.7191	-0.4654
862.8821	0.0979
863.0451	0.0372
863.208	-0.3395
863.371	-0.4374
863.5339	0.2137
863.6968	0.7333
863.8597	-0.3057
864.0225	-0.4148
864.1854	-0.0708
864.3482	-1.2736
864.511	0.5143
864.6737	0.7297
864.8365	0.0279
864.9992	-0.093
865.1619	-0.5357
865.3246	-1.7694
865.4873	-0
865.65	0.0856
865.8126	0.1238
865.9752	-0.2577
866.1378	-0
866.3004	-0.3732
866.4629	-1.9784
866.6254	-0
866.7879	1.1374
866.9504	-0
867.1129	-0.5645
867.2753	-0.2804
867.4377	-0
867.6001	-0.7329
867.7625	0.0473
867.9249	0.9558
868.0872	-0.0137
868.2495	-0
868.4118	-0
868.5741	0.7576
868.7363	-0.3958
868.8986	0.0501
869.0608	-0
869.223	-0.8604
869.3851	-0
869.5473	-0.1964
869.7094	-0
869.8715	-0
870.0336	0.1807
870.1957	-0
870.3577	-0.0147
870.5197	-0.1579
870.6817	-0.9774
870.8437	0.0582
871.0057	0.7113
871.1676	0.1656
871.3295	-0.2381
871.4914	-1.1206
871.6533	-0.1624
871.8151	0.4279
871.977	-0.1965
872.1388	-0.0792
872.3006	-0.4742
872.4623	-0.2027
872.6241	-0
872.7858	1.7865
872.9475	0.8154
873.1092	-0.2647
873.2709	0.1357
873.4325	-1.5241
873.5941	-0.5093
873.7557	-0
873.9173	0.2039
874.0789	0.4156
874.2404	-0
874.4019	0.1561
874.5634	-0
874.7249	-0
874.8863	-0
875.0478	-0.1727
875.2092	0.4116
875.3706	0.1648
875.5319	-0.0873
875.6933	0.3241
875.8546	-0
876.0159	0.3461
876.1772	-0
876.3385	-0
876.4997	0.4025
876.6609	0.1296
876.8221	-0
876.9833	-0.2569
877.1445	0.2017
877.3056	-0.9944
877.4667	-0
877.6278	-0
877.7889	-0.2407
877.9499	0.3516
878.111	-0.5725
878.272	1.0166
878.433	-0.0339
878.5939	-0.0642
878.7549	0.7478
878.9158	0.6775
879.0767	-0
879.2376	-0.3845
879.3984	0.6374
879.5593	0.1977
879.7201	-1.8921
879.8809	-0
880.0417	-0.02
880.2024	-0.1707
880.3632	-0.3755
880.5239	0.4783
880.6846	0.0586
880.8452	0.0257
881.0059	-0
881.1665	-0.2208
881.3271	0.262
881.4877	0.3243
881.6483	-1.3738
881.8088	-0
881.9693	-0
882.1298	-0
882.2903	-0
