Data from D4ACN5uM440nmA_Absorbance_13-50-25-793.txt Node
Date: Fri Feb 21 13:50:25 GMT 2025
User: LASERRRRR
Spectrometer: FLMT03099
Trigger mode: 0
Integration Time (sec): 1.500000E-2
Scans to average: 1
Electric dark correction enabled: true
Nonlinearity correction enabled: false
Boxcar width: 0
XAxis mode: Wavelengths
Number of Pixels in Spectrum: 3648
>>>>>Begin Spectral Data<<<<<
179.3399	0.4539
179.5586	0.4539
179.7771	0.4539
179.9957	-0.0905
180.2143	-0.7984
180.4329	-0.0977
180.6514	-0.6548
180.8699	0.6005
181.0885	-0
181.307	-0.1027
181.5255	-0.2027
181.744	-0
181.9625	0.558
182.181	-0
182.3994	-0.2464
182.6179	0.0039
182.8363	-0
183.0547	1.584
183.2732	0.0539
183.4916	0.4758
183.71	0.197
183.9284	0.0078
184.1467	-0.0118
184.3651	0.1222
184.5835	0.1296
184.8018	0.3332
185.0201	-0.0081
185.2385	0.1101
185.4568	0.506
185.6751	0.1267
185.8934	0.3941
186.1117	-0.2344
186.3299	0.3947
186.5482	0.2023
186.7664	0.0774
186.9847	0.0138
187.2029	0.0834
187.4211	0.022
187.6393	0.1156
187.8575	0.2909
188.0757	0.2806
188.2939	0.0154
188.512	0.1605
188.7302	0.1798
188.9483	0.0713
189.1665	1.0056
189.3846	0.1844
189.6027	0.2276
189.8208	0.3531
190.0389	0.0559
190.257	0.0542
190.475	0.1037
190.6931	0.0669
190.9111	0.0927
191.1292	0.1048
191.3472	0.2341
191.5652	0.1747
191.7832	0.2597
192.0012	0.1566
192.2192	0.1031
192.4371	0.136
192.6551	0.1356
192.873	0.2545
193.091	0.2161
193.3089	0.3259
193.5268	0.4209
193.7447	0.1679
193.9626	0.1911
194.1805	0.2076
194.3984	0.247
194.6162	0.2381
194.8341	0.3246
195.0519	0.1939
195.2697	0.3382
195.4875	0.3572
195.7054	0.2537
195.9231	0.1997
196.1409	0.3445
196.3587	0.3995
196.5765	0.3456
196.7942	0.2819
197.012	0.3484
197.2297	0.3236
197.4474	0.4607
197.6651	0.3489
197.8828	0.295
198.1005	0.3854
198.3182	0.3698
198.5358	0.401
198.7535	0.4038
198.9711	0.4213
199.1888	0.3268
199.4064	0.4815
199.624	0.415
199.8416	0.4084
200.0592	0.406
200.2767	0.4202
200.4943	0.4664
200.7119	0.4186
200.9294	0.4125
201.1469	0.433
201.3645	0.5088
201.582	0.4018
201.7995	0.3932
202.017	0.4453
202.2344	0.4418
202.4519	0.3672
202.6694	0.4123
202.8868	0.3793
203.1042	0.3857
203.3217	0.4374
203.5391	0.4094
203.7565	0.3553
203.9739	0.3781
204.1913	0.3484
204.4086	0.3598
204.626	0.3648
204.8433	0.3547
205.0607	0.3517
205.278	0.3705
205.4953	0.3741
205.7126	0.3492
205.9299	0.3308
206.1472	0.3244
206.3644	0.3304
206.5817	0.3413
206.7989	0.3285
207.0162	0.3213
207.2334	0.3122
207.4506	0.3038
207.6678	0.3179
207.885	0.3009
208.1022	0.3192
208.3194	0.2812
208.5365	0.3074
208.7537	0.2746
208.9708	0.3047
209.1879	0.2956
209.405	0.266
209.6222	0.2663
209.8392	0.3058
210.0563	0.3053
210.2734	0.272
210.4905	0.2695
210.7075	0.2687
210.9245	0.2671
211.1416	0.2833
211.3586	0.2665
211.5756	0.2392
211.7926	0.2708
212.0096	0.2557
212.2265	0.2681
212.4435	0.2534
212.6604	0.2321
212.8774	0.2418
213.0943	0.265
213.3112	0.234
213.5281	0.2547
213.745	0.2289
213.9619	0.2279
214.1788	0.2535
214.3956	0.246
214.6125	0.2484
214.8293	0.2448
215.0461	0.2517
215.2629	0.2325
215.4798	0.2517
215.6965	0.2595
215.9133	0.2222
216.1301	0.2439
216.3469	0.2569
216.5636	0.2488
216.7803	0.2714
216.9971	0.2523
217.2138	0.2511
217.4305	0.2411
217.6472	0.2455
217.8639	0.2692
218.0805	0.2501
218.2972	0.2525
218.5138	0.2513
218.7305	0.2602
218.9471	0.2594
219.1637	0.2771
219.3803	0.2585
219.5969	0.2522
219.8135	0.2631
220.0301	0.2537
220.2466	0.2574
220.4632	0.2467
220.6797	0.2542
220.8962	0.2623
221.1127	0.2673
221.3292	0.268
221.5457	0.2805
221.7622	0.2668
221.9787	0.2808
222.1951	0.271
222.4116	0.2798
222.628	0.2811
222.8444	0.2743
223.0608	0.2758
223.2772	0.2804
223.4936	0.2884
223.71	0.2742
223.9264	0.2965
224.1427	0.2757
224.3591	0.2817
224.5754	0.2947
224.7917	0.2986
225.008	0.2954
225.2243	0.2957
225.4406	0.2937
225.6569	0.3005
225.8732	0.3162
226.0894	0.3097
226.3057	0.3
226.5219	0.3178
226.7381	0.3173
226.9543	0.306
227.1705	0.3128
227.3867	0.3193
227.6029	0.3323
227.8191	0.3387
228.0352	0.3384
228.2513	0.3424
228.4675	0.3428
228.6836	0.3534
228.8997	0.3528
229.1158	0.3461
229.3319	0.3649
229.548	0.3583
229.764	0.3617
229.9801	0.3728
230.1961	0.3746
230.4121	0.3629
230.6282	0.3727
230.8442	0.3906
231.0602	0.3886
231.2761	0.3811
231.4921	0.3797
231.7081	0.3964
231.924	0.4077
232.14	0.4028
232.3559	0.4105
232.5718	0.4125
232.7877	0.4179
233.0036	0.4017
233.2195	0.4076
233.4353	0.4205
233.6512	0.418
233.867	0.4212
234.0829	0.4201
234.2987	0.419
234.5145	0.4338
234.7303	0.435
234.9461	0.4456
235.1619	0.4362
235.3776	0.4355
235.5934	0.4239
235.8091	0.4437
236.0249	0.4437
236.2406	0.4432
236.4563	0.4488
236.672	0.4418
236.8877	0.457
237.1034	0.4486
237.319	0.447
237.5347	0.4515
237.7503	0.4459
237.966	0.4651
238.1816	0.4483
238.3972	0.4488
238.6128	0.4591
238.8284	0.4641
239.0439	0.4638
239.2595	0.4519
239.475	0.4559
239.6906	0.4603
239.9061	0.4639
240.1216	0.4586
240.3371	0.4658
240.5526	0.4664
240.7681	0.4617
240.9836	0.4531
241.199	0.4586
241.4145	0.4472
241.6299	0.4532
241.8453	0.4365
242.0607	0.447
242.2761	0.4416
242.4915	0.4342
242.7069	0.4154
242.9223	0.4224
243.1376	0.408
243.353	0.3955
243.5683	0.4066
243.7836	0.3923
243.9989	0.3798
244.2142	0.3778
244.4295	0.3753
244.6448	0.3683
244.86	0.3644
245.0753	0.3527
245.2905	0.3474
245.5057	0.3429
245.721	0.3353
245.9362	0.3262
246.1514	0.3216
246.3665	0.3106
246.5817	0.3016
246.7969	0.2957
247.012	0.2985
247.2271	0.3036
247.4423	0.2861
247.6574	0.2912
247.8725	0.2711
248.0876	0.2748
248.3026	0.2658
248.5177	0.2537
248.7328	0.2548
248.9478	0.2483
249.1628	0.255
249.3779	0.241
249.5929	0.2414
249.8079	0.2394
250.0228	0.2322
250.2378	0.2275
250.4528	0.2169
250.6677	0.227
250.8827	0.2187
251.0976	0.2168
251.3125	0.2091
251.5274	0.2111
251.7423	0.2078
251.9572	0.2134
252.172	0.2071
252.3869	0.2085
252.6017	0.2011
252.8166	0.2052
253.0314	0.196
253.2462	0.2013
253.461	0.1968
253.6758	0.1952
253.8906	0.1998
254.1053	0.1997
254.3201	0.1944
254.5348	0.1832
254.7496	0.1823
254.9643	0.1926
255.179	0.1861
255.3937	0.1879
255.6083	0.1918
255.823	0.1834
256.0377	0.176
256.2523	0.184
256.467	0.1893
256.6816	0.1783
256.8962	0.1792
257.1108	0.1818
257.3254	0.1813
257.54	0.1777
257.7545	0.1825
257.9691	0.1816
258.1836	0.1745
258.3981	0.1865
258.6127	0.1745
258.8272	0.1858
259.0417	0.1712
259.2561	0.1818
259.4706	0.1797
259.6851	0.1803
259.8995	0.1802
260.114	0.1752
260.3284	0.1741
260.5428	0.1786
260.7572	0.1795
260.9716	0.1805
261.186	0.1762
261.4003	0.1733
261.6147	0.1726
261.829	0.1827
262.0433	0.1788
262.2577	0.1831
262.472	0.1791
262.6863	0.1821
262.9005	0.1756
263.1148	0.1784
263.3291	0.1766
263.5433	0.1783
263.7576	0.1795
263.9718	0.1768
264.186	0.1809
264.4002	0.1786
264.6144	0.1899
264.8286	0.1841
265.0427	0.1872
265.2569	0.1864
265.471	0.1829
265.6851	0.1861
265.8993	0.1796
266.1134	0.1781
266.3275	0.1867
266.5415	0.1858
266.7556	0.185
266.9697	0.1799
267.1837	0.1824
267.3978	0.1861
267.6118	0.1763
267.8258	0.1852
268.0398	0.1872
268.2538	0.1852
268.4677	0.1787
268.6817	0.1807
268.8957	0.1802
269.1096	0.1747
269.3235	0.178
269.5374	0.1822
269.7514	0.1823
269.9652	0.1805
270.1791	0.1746
270.393	0.1772
270.6068	0.1758
270.8207	0.1731
271.0345	0.1758
271.2483	0.1712
271.4622	0.1764
271.676	0.18
271.8897	0.176
272.1035	0.1838
272.3173	0.1709
272.531	0.1769
272.7448	0.1806
272.9585	0.1736
273.1722	0.1742
273.3859	0.1758
273.5996	0.181
273.8133	0.1761
274.0269	0.1724
274.2406	0.1787
274.4542	0.1741
274.6679	0.1792
274.8815	0.181
275.0951	0.1835
275.3087	0.1836
275.5223	0.1816
275.7358	0.1853
275.9494	0.183
276.1629	0.1871
276.3765	0.1843
276.59	0.1808
276.8035	0.1808
277.017	0.1892
277.2305	0.1847
277.444	0.1902
277.6574	0.1877
277.8709	0.1899
278.0843	0.1902
278.2978	0.1883
278.5112	0.1852
278.7246	0.1873
278.938	0.1855
279.1513	0.1892
279.3647	0.1864
279.5781	0.1878
279.7914	0.1851
280.0047	0.1856
280.2181	0.1881
280.4314	0.1909
280.6447	0.1885
280.8579	0.1797
281.0712	0.1839
281.2845	0.1853
281.4977	0.1831
281.711	0.1791
281.9242	0.1866
282.1374	0.1868
282.3506	0.1814
282.5638	0.182
282.7769	0.1823
282.9901	0.1877
283.2033	0.1827
283.4164	0.1878
283.6295	0.1874
283.8426	0.1825
284.0557	0.1854
284.2688	0.181
284.4819	0.183
284.695	0.1898
284.908	0.181
285.1211	0.1922
285.3341	0.1796
285.5471	0.1863
285.7601	0.1877
285.9731	0.1877
286.1861	0.185
286.3991	0.1898
286.612	0.1837
286.825	0.1877
287.0379	0.1832
287.2508	0.187
287.4637	0.1917
287.6766	0.1872
287.8895	0.1844
288.1024	0.1873
288.3152	0.1853
288.5281	0.1859
288.7409	0.19
288.9538	0.1897
289.1666	0.1873
289.3794	0.189
289.5922	0.1894
289.8049	0.1868
290.0177	0.1883
290.2304	0.1847
290.4432	0.1888
290.6559	0.1858
290.8686	0.1877
291.0813	0.1877
291.294	0.1861
291.5067	0.181
291.7194	0.1884
291.932	0.1882
292.1447	0.1909
292.3573	0.1913
292.5699	0.1921
292.7825	0.1896
292.9951	0.1881
293.2077	0.1909
293.4203	0.1838
293.6328	0.1874
293.8454	0.1918
294.0579	0.1867
294.2704	0.1915
294.4829	0.1873
294.6954	0.1868
294.9079	0.1857
295.1204	0.1874
295.3328	0.1935
295.5453	0.1967
295.7577	0.1906
295.9701	0.1863
296.1825	0.1914
296.3949	0.1892
296.6073	0.1864
296.8197	0.1905
297.0321	0.1895
297.2444	0.1855
297.4567	0.1926
297.6691	0.1893
297.8814	0.1927
298.0937	0.1913
298.306	0.1873
298.5182	0.1945
298.7305	0.1862
298.9428	0.1854
299.155	0.1818
299.3672	0.1932
299.5794	0.1896
299.7916	0.1856
300.0038	0.1878
300.216	0.1876
300.4282	0.1861
300.6403	0.1919
300.8525	0.1873
301.0646	0.1911
301.2767	0.1899
301.4888	0.1917
301.7009	0.1909
301.913	0.1872
302.125	0.1894
302.3371	0.1895
302.5491	0.1918
302.7612	0.1963
302.9732	0.1942
303.1852	0.1884
303.3972	0.1927
303.6092	0.1934
303.8211	0.1849
304.0331	0.1839
304.245	0.182
304.457	0.1912
304.6689	0.1854
304.8808	0.1838
305.0927	0.1908
305.3046	0.1828
305.5164	0.183
305.7283	0.1824
305.9401	0.1687
306.152	0.177
306.3638	0.1797
306.5756	0.1825
306.7874	0.1738
306.9992	0.1709
307.2109	0.1715
307.4227	0.1694
307.6344	0.1732
307.8462	0.1699
308.0579	0.172
308.2696	0.1677
308.4813	0.1661
308.693	0.1653
308.9046	0.1615
309.1163	0.1625
309.328	0.1619
309.5396	0.1567
309.7512	0.1482
309.9628	0.1508
310.1744	0.1543
310.386	0.1474
310.5976	0.1492
310.8091	0.151
311.0207	0.1513
311.2322	0.1406
311.4437	0.144
311.6552	0.1434
311.8667	0.1491
312.0782	0.143
312.2897	0.143
312.5012	0.1398
312.7126	0.1342
312.924	0.1417
313.1355	0.1372
313.3469	0.1369
313.5583	0.1376
313.7696	0.1359
313.981	0.1358
314.1924	0.1314
314.4037	0.1328
314.6151	0.1316
314.8264	0.1383
315.0377	0.1293
315.249	0.1377
315.4603	0.1281
315.6716	0.1299
315.8828	0.1384
316.0941	0.1315
316.3053	0.1284
316.5165	0.1254
316.7277	0.1277
316.9389	0.133
317.1501	0.1293
317.3613	0.1278
317.5724	0.1303
317.7836	0.1233
317.9947	0.1271
318.2058	0.1238
318.417	0.1282
318.6281	0.1226
318.8391	0.1316
319.0502	0.1287
319.2613	0.1287
319.4723	0.1244
319.6834	0.1341
319.8944	0.1278
320.1054	0.1292
320.3164	0.1229
320.5274	0.1224
320.7383	0.1319
320.9493	0.1249
321.1602	0.1284
321.3712	0.1324
321.5821	0.125
321.793	0.1305
322.0039	0.1297
322.2148	0.1239
322.4257	0.1242
322.6365	0.1243
322.8474	0.1288
323.0582	0.1331
323.269	0.1289
323.4798	0.1286
323.6906	0.1238
323.9014	0.1239
324.1122	0.126
324.3229	0.1363
324.5337	0.1339
324.7444	0.129
324.9551	0.1281
325.1658	0.1336
325.3765	0.1349
325.5872	0.1334
325.7979	0.1331
326.0085	0.1317
326.2192	0.1289
326.4298	0.133
326.6404	0.1361
326.851	0.1328
327.0616	0.1379
327.2722	0.133
327.4828	0.1356
327.6933	0.1408
327.9039	0.1338
328.1144	0.1372
328.3249	0.1385
328.5354	0.1361
328.7459	0.135
328.9564	0.1361
329.1669	0.1422
329.3773	0.136
329.5878	0.1361
329.7982	0.1364
330.0086	0.1385
330.219	0.1382
330.4294	0.1409
330.6398	0.1388
330.8502	0.1404
331.0605	0.14
331.2708	0.1368
331.4812	0.1357
331.6915	0.1351
331.9018	0.1401
332.1121	0.1437
332.3224	0.1386
332.5326	0.1385
332.7429	0.142
332.9531	0.1413
333.1633	0.1388
333.3735	0.1417
333.5837	0.1435
333.7939	0.1393
334.0041	0.1466
334.2143	0.1378
334.4244	0.1471
334.6346	0.1434
334.8447	0.1428
335.0548	0.1468
335.2649	0.1412
335.475	0.1511
335.685	0.1433
335.8951	0.1348
336.1051	0.1454
336.3152	0.1408
336.5252	0.1375
336.7352	0.1406
336.9452	0.1419
337.1552	0.1435
337.3652	0.1423
337.5751	0.1384
337.7851	0.1449
337.995	0.1477
338.2049	0.1476
338.4148	0.1488
338.6247	0.15
338.8346	0.1435
339.0445	0.1418
339.2543	0.1487
339.4642	0.1425
339.674	0.1421
339.8838	0.1437
340.0936	0.1485
340.3034	0.1444
340.5132	0.146
340.7229	0.1476
340.9327	0.1525
341.1424	0.1424
341.3522	0.1448
341.5619	0.1496
341.7716	0.1538
341.9813	0.1522
342.1909	0.1474
342.4006	0.1562
342.6102	0.1542
342.8199	0.1561
343.0295	0.1506
343.2391	0.1531
343.4487	0.1661
343.6583	0.1601
343.8679	0.1525
344.0774	0.1538
344.287	0.1545
344.4965	0.1623
344.706	0.1556
344.9155	0.1548
345.125	0.1586
345.3345	0.1682
345.544	0.1605
345.7534	0.1581
345.9629	0.1662
346.1723	0.1633
346.3817	0.1688
346.5911	0.1675
346.8005	0.1739
347.0099	0.1659
347.2193	0.1697
347.4286	0.1738
347.638	0.1701
347.8473	0.1702
348.0566	0.1718
348.2659	0.1697
348.4752	0.1748
348.6845	0.1745
348.8937	0.169
349.103	0.1759
349.3122	0.1778
349.5214	0.1828
349.7306	0.1821
349.9398	0.1762
350.149	0.1723
350.3582	0.1757
350.5674	0.1825
350.7765	0.179
350.9856	0.1763
351.1948	0.1755
351.4039	0.1775
351.613	0.1779
351.822	0.1816
352.0311	0.1799
352.2402	0.1849
352.4492	0.1779
352.6582	0.186
352.8672	0.1851
353.0762	0.1773
353.2852	0.1881
353.4942	0.1852
353.7032	0.1795
353.9121	0.1817
354.1211	0.1849
354.33	0.1955
354.5389	0.1786
354.7478	0.1807
354.9567	0.1876
355.1655	0.182
355.3744	0.1768
355.5833	0.1839
355.7921	0.1903
356.0009	0.1848
356.2097	0.18
356.4185	0.184
356.6273	0.1848
356.8361	0.1867
357.0448	0.1858
357.2536	0.1914
357.4623	0.1882
357.671	0.1926
357.8797	0.1992
358.0884	0.1978
358.2971	0.1843
358.5057	0.1939
358.7144	0.1853
358.923	0.1894
359.1316	0.201
359.3402	0.1893
359.5488	0.1884
359.7574	0.1995
359.966	0.1943
360.1746	0.1908
360.3831	0.2047
360.5916	0.2036
360.8002	0.2074
361.0087	0.2018
361.2172	0.2095
361.4256	0.2043
361.6341	0.1965
361.8426	0.2066
362.051	0.2114
362.2594	0.2003
362.4678	0.21
362.6762	0.2036
362.8846	0.2095
363.093	0.205
363.3014	0.2169
363.5097	0.2142
363.718	0.2164
363.9264	0.2208
364.1347	0.2123
364.343	0.2253
364.5513	0.2164
364.7595	0.2248
364.9678	0.2162
365.176	0.223
365.3842	0.2244
365.5925	0.2193
365.8007	0.2225
366.0089	0.2233
366.217	0.2256
366.4252	0.2215
366.6333	0.23
366.8415	0.2321
367.0496	0.2253
367.2577	0.2281
367.4658	0.2234
367.6739	0.2218
367.882	0.2364
368.09	0.2341
368.2981	0.2384
368.5061	0.2407
368.7141	0.2294
368.9221	0.2285
369.1301	0.2312
369.3381	0.2312
369.5461	0.2432
369.754	0.2449
369.962	0.2367
370.1699	0.245
370.3778	0.2453
370.5857	0.2443
370.7936	0.2458
371.0015	0.2426
371.2093	0.2426
371.4172	0.2391
371.625	0.2496
371.8328	0.2421
372.0406	0.2532
372.2484	0.2425
372.4562	0.2462
372.664	0.2507
372.8717	0.2536
373.0795	0.2573
373.2872	0.2586
373.4949	0.2548
373.7026	0.2529
373.9103	0.245
374.118	0.2504
374.3256	0.255
374.5333	0.255
374.7409	0.2572
374.9485	0.2541
375.1561	0.2602
375.3637	0.2491
375.5713	0.2695
375.7789	0.262
375.9864	0.2625
376.194	0.2635
376.4015	0.2608
376.609	0.2587
376.8165	0.2679
377.024	0.2616
377.2315	0.2697
377.4389	0.2596
377.6464	0.2727
377.8538	0.2695
378.0612	0.2732
378.2686	0.2677
378.476	0.2674
378.6834	0.2721
378.8908	0.2801
379.0981	0.2829
379.3055	0.2756
379.5128	0.2629
379.7201	0.2751
379.9274	0.2739
380.1347	0.2711
380.342	0.2823
380.5492	0.276
380.7565	0.2697
380.9637	0.2875
381.1709	0.2719
381.3781	0.2779
381.5853	0.276
381.7925	0.2753
381.9997	0.2912
382.2068	0.2815
382.4139	0.2904
382.6211	0.2849
382.8282	0.2972
383.0353	0.2919
383.2424	0.2748
383.4494	0.281
383.6565	0.29
383.8635	0.2826
384.0706	0.291
384.2776	0.2912
384.4846	0.2846
384.6916	0.2877
384.8986	0.2898
385.1055	0.3004
385.3125	0.2891
385.5194	0.2963
385.7263	0.2848
385.9333	0.2967
386.1402	0.2855
386.347	0.2864
386.5539	0.2901
386.7608	0.2838
386.9676	0.283
387.1744	0.2842
387.3813	0.2896
387.5881	0.2851
387.7948	0.2889
388.0016	0.2979
388.2084	0.2922
388.4151	0.29
388.6219	0.2788
388.8286	0.2909
389.0353	0.2907
389.242	0.2861
389.4487	0.2748
389.6553	0.2775
389.862	0.2744
390.0686	0.2909
390.2753	0.283
390.4819	0.2809
390.6885	0.274
390.8951	0.291
391.1016	0.2762
391.3082	0.2783
391.5147	0.2695
391.7213	0.2756
391.9278	0.271
392.1343	0.2714
392.3408	0.2742
392.5473	0.265
392.7537	0.272
392.9602	0.2731
393.1666	0.2786
393.373	0.2604
393.5794	0.2618
393.7858	0.2662
393.9922	0.261
394.1986	0.2647
394.4049	0.2645
394.6113	0.2555
394.8176	0.2579
395.0239	0.2571
395.2302	0.2512
395.4365	0.2632
395.6428	0.2527
395.8491	0.26
396.0553	0.2451
396.2615	0.2554
396.4678	0.2539
396.674	0.2464
396.8802	0.2475
397.0863	0.2512
397.2925	0.2526
397.4987	0.2398
397.7048	0.2507
397.9109	0.2448
398.117	0.2436
398.3231	0.2513
398.5292	0.2344
398.7353	0.2478
398.9413	0.2484
399.1474	0.2426
399.3534	0.2439
399.5594	0.2471
399.7654	0.2452
399.9714	0.2413
400.1774	0.2405
400.3833	0.2416
400.5893	0.2356
400.7952	0.257
401.0011	0.2406
401.207	0.2484
401.4129	0.2393
401.6188	0.2364
401.8247	0.2444
402.0305	0.2508
402.2364	0.2416
402.4422	0.2421
402.648	0.2423
402.8538	0.2439
403.0596	0.2363
403.2654	0.2451
403.4711	0.2429
403.6768	0.2484
403.8826	0.2541
404.0883	0.2382
404.294	0.2424
404.4997	0.2372
404.7054	0.2478
404.911	0.2315
405.1167	0.2421
405.3223	0.2347
405.5279	0.2419
405.7335	0.2444
405.9391	0.2396
406.1447	0.2522
406.3502	0.2433
406.5558	0.2437
406.7613	0.2429
406.9668	0.2464
407.1724	0.2443
407.3778	0.2414
407.5833	0.2365
407.7888	0.2491
407.9942	0.2445
408.1997	0.2404
408.4051	0.2474
408.6105	0.2507
408.8159	0.242
409.0213	0.2573
409.2267	0.2504
409.432	0.2457
409.6374	0.2418
409.8427	0.2496
410.048	0.251
410.2533	0.2476
410.4586	0.2375
410.6639	0.2444
410.8691	0.2448
411.0744	0.2348
411.2796	0.2558
411.4848	0.241
411.69	0.2306
411.8952	0.2393
412.1004	0.2421
412.3056	0.2331
412.5107	0.2465
412.7158	0.2486
412.921	0.2506
413.1261	0.2446
413.3312	0.249
413.5362	0.2507
413.7413	0.2434
413.9464	0.2283
414.1514	0.2394
414.3564	0.2258
414.5614	0.2446
414.7664	0.2302
414.9714	0.2402
415.1764	0.2541
415.3813	0.2309
415.5863	0.2547
415.7912	0.2373
415.9961	0.2443
416.201	0.2407
416.4059	0.233
416.6108	0.2286
416.8156	0.228
417.0205	0.2321
417.2253	0.2366
417.4301	0.2337
417.6349	0.228
417.8397	0.2278
418.0445	0.2348
418.2492	0.2301
418.454	0.2305
418.6587	0.2367
418.8634	0.2452
419.0681	0.2358
419.2728	0.2286
419.4775	0.24
419.6822	0.2247
419.8868	0.2248
420.0915	0.2289
420.2961	0.2229
420.5007	0.2225
420.7053	0.2236
420.9099	0.2241
421.1144	0.2255
421.319	0.2254
421.5235	0.216
421.728	0.233
421.9325	0.2216
422.137	0.2231
422.3415	0.2155
422.546	0.2236
422.7504	0.2191
422.9549	0.2175
423.1593	0.2108
423.3637	0.2139
423.5681	0.2095
423.7725	0.2172
423.9769	0.2146
424.1812	0.2092
424.3856	0.2004
424.5899	0.2085
424.7942	0.2035
424.9985	0.213
425.2028	0.2161
425.4071	0.2119
425.6113	0.2112
425.8156	0.2022
426.0198	0.2101
426.224	0.2112
426.4282	0.1946
426.6324	0.2046
426.8366	0.2017
427.0407	0.2071
427.2449	0.1995
427.449	0.1991
427.6531	0.2067
427.8572	0.1945
428.0613	0.208
428.2654	0.1979
428.4694	0.1796
428.6735	0.1886
428.8775	0.1928
429.0815	0.1849
429.2855	0.1816
429.4895	0.188
429.6935	0.1859
429.8975	0.1771
430.1014	0.1845
430.3053	0.1886
430.5093	0.1785
430.7132	0.1701
430.9171	0.1726
431.1209	0.1759
431.3248	0.1683
431.5286	0.1725
431.7325	0.1773
431.9363	0.161
432.1401	0.1604
432.3439	0.1722
432.5477	0.1523
432.7514	0.1648
432.9552	0.1583
433.1589	0.1569
433.3627	0.1528
433.5664	0.148
433.7701	0.1602
433.9737	0.1562
434.1774	0.1534
434.3811	0.1389
434.5847	0.1441
434.7883	0.1539
434.9919	0.1409
435.1955	0.1506
435.3991	0.1434
435.6027	0.1411
435.8062	0.1554
436.0098	0.1366
436.2133	0.1344
436.4168	0.1401
436.6203	0.1393
436.8238	0.127
437.0272	0.1296
437.2307	0.1229
437.4341	0.1255
437.6375	0.1299
437.841	0.1231
438.0443	0.1291
438.2477	0.1103
438.4511	0.1229
438.6545	0.1276
438.8578	0.1145
439.0611	0.1026
439.2644	0.116
439.4677	0.1068
439.671	0.1011
439.8743	0.1164
440.0775	0.1019
440.2808	0.1103
440.484	0.1061
440.6872	0.1123
440.8904	0.0901
441.0936	0.1057
441.2967	0.0851
441.4999	0.0847
441.703	0.0859
441.9062	0.0977
442.1093	0.1041
442.3124	0.0815
442.5155	0.0845
442.7185	0.0858
442.9216	0.0855
443.1246	0.0817
443.3276	0.084
443.5307	0.0772
443.7337	0.0759
443.9366	0.0789
444.1396	0.0679
444.3426	0.0743
444.5455	0.0754
444.7484	0.0754
444.9513	0.0726
445.1542	0.0793
445.3571	0.0727
445.56	0.0649
445.7628	0.0654
445.9657	0.065
446.1685	0.0655
446.3713	0.071
446.5741	0.0736
446.7769	0.0715
446.9797	0.0719
447.1824	0.0637
447.3852	0.0416
447.5879	0.0553
447.7906	0.0528
447.9933	0.0675
448.196	0.0626
448.3986	0.0507
448.6013	0.0542
448.8039	0.0541
449.0066	0.0543
449.2092	0.0631
449.4118	0.0486
449.6143	0.0562
449.8169	0.0483
450.0195	0.052
450.222	0.0463
450.4245	0.047
450.627	0.0454
450.8295	0.0467
451.032	0.0395
451.2345	0.0381
451.4369	0.0432
451.6394	0.0393
451.8418	0.0419
452.0442	0.0377
452.2466	0.0379
452.449	0.0373
452.6513	0.0329
452.8537	0.0263
453.056	0.0381
453.2583	0.0379
453.4607	0.0259
453.663	0.0394
453.8652	0.0268
454.0675	0.0383
454.2697	0.0437
454.472	0.0291
454.6742	0.0359
454.8764	0.0416
455.0786	0.0336
455.2808	0.0271
455.4829	0.0333
455.6851	0.0298
455.8872	0.0183
456.0893	0.0322
456.2915	0.022
456.4935	0.0374
456.6956	0.0218
456.8977	0.0231
457.0997	0.0282
457.3018	0.0269
457.5038	0.028
457.7058	0.0314
457.9078	0.023
458.1098	0.0304
458.3117	0.0237
458.5137	0.0067
458.7156	0.0334
458.9175	0.019
459.1194	0.0237
459.3213	0.0174
459.5232	0.0257
459.725	0.0159
459.9269	0.0245
460.1287	0.0235
460.3305	0.0185
460.5323	0.0201
460.7341	0.0269
460.9359	0.0149
461.1376	0.0202
461.3394	0.0213
461.5411	0.021
461.7428	0.0258
461.9445	0.0205
462.1462	0.0177
462.3479	0.0161
462.5495	0.0152
462.7512	0.024
462.9528	0.0075
463.1544	0.0137
463.356	0.0053
463.5576	0.0187
463.7592	0.0091
463.9607	0.0146
464.1623	0.0105
464.3638	0.0103
464.5653	0.0161
464.7668	0.0191
464.9683	0.0195
465.1697	0.0149
465.3712	0.0017
465.5726	0.0135
465.7741	0.0243
465.9755	0.0167
466.1769	0.0065
466.3782	0.0021
466.5796	0.0174
466.7809	0.0124
466.9823	0.0121
467.1836	0.0053
467.3849	0.0135
467.5862	-0.0003
467.7875	0.0094
467.9887	0.0163
468.19	0.007
468.3912	0.0196
468.5924	0.0108
468.7936	0.021
468.9948	0.0021
469.196	0.0058
469.3972	0.0052
469.5983	0.0055
469.7994	0.0154
470.0006	0.0098
470.2017	0.0085
470.4027	0.0231
470.6038	0.0005
470.8049	0.003
471.0059	0.0111
471.2069	0.0115
471.408	0.0189
471.6089	0.0081
471.8099	0.0143
472.0109	0.005
472.2119	0.0133
472.4128	0.0057
472.6137	0.0118
472.8146	0.0148
473.0155	0.0222
473.2164	0.0056
473.4173	0.0016
473.6181	0.0096
473.819	0.0108
474.0198	0.0055
474.2206	0.0011
474.4214	0.0054
474.6222	-0.0056
474.8229	0.005
475.0237	0.0159
475.2244	0.0064
475.4251	0.0069
475.6258	-0.001
475.8265	0.0098
476.0272	0.0033
476.2278	0.0052
476.4285	0.0043
476.6291	0.0106
476.8297	0.014
477.0303	0.0045
477.2309	0.0106
477.4315	0.0038
477.632	0.0046
477.8326	0.0047
478.0331	0.0115
478.2336	0.0039
478.4341	0.0036
478.6346	-0.0043
478.8351	0.0011
479.0355	0.012
479.236	0.0106
479.4364	0.0034
479.6368	0.0108
479.8372	0.0123
480.0376	0.0024
480.2379	0.0103
480.4383	0.0138
480.6386	-0.0005
480.8389	0.0084
481.0392	0.0083
481.2395	0.0129
481.4398	0.0081
481.6401	0.0027
481.8403	0.0028
482.0405	0.0088
482.2408	0.0099
482.441	0.0085
482.6411	0.0115
482.8413	0.003
483.0415	0.0148
483.2416	0.0031
483.4417	0.0035
483.6419	-0.0002
483.8419	0.0052
484.042	0.0093
484.2421	-0.0014
484.4422	0.0089
484.6422	0.0074
484.8422	0.0064
485.0422	0.0048
485.2422	0.0072
485.4422	0.0012
485.6422	0.0027
485.8421	0.0035
486.042	0.0118
486.242	0.0061
486.4419	0.0068
486.6417	-0.0025
486.8416	0.006
487.0415	0.001
487.2413	0.0001
487.4411	0.0087
487.641	0.0063
487.8408	0.0083
488.0405	0.0084
488.2403	-0.0008
488.4401	0.0046
488.6398	0.0151
488.8395	0.0004
489.0392	0.0075
489.2389	0.0125
489.4386	-0.0045
489.6383	0.013
489.8379	0.0008
490.0376	0.0042
490.2372	-0.0008
490.4368	-0.0022
490.6364	-0.0002
490.836	0.0076
491.0355	-0.0041
491.2351	0.0047
491.4346	0.0064
491.6341	0.001
491.8336	0.0074
492.0331	0.0056
492.2326	0.0017
492.432	-0.0001
492.6315	0.0115
492.8309	0.0096
493.0303	0.0015
493.2297	0.0122
493.4291	0.0041
493.6284	0.0095
493.8278	0.0058
494.0271	0.0047
494.2264	0.0035
494.4257	0.0121
494.625	0.0046
494.8243	0.0012
495.0236	0.0079
495.2228	0.0058
495.422	0.0089
495.6213	0.0083
495.8205	0.0074
496.0196	0.0119
496.2188	0.0021
496.418	0.0112
496.6171	0.0051
496.8162	0.0111
497.0153	0.0104
497.2144	0.0041
497.4135	0.0091
497.6126	0.0081
497.8116	0.0074
498.0107	0.0095
498.2097	0.0027
498.4087	-0.0057
498.6077	-0.0052
498.8067	0.0135
499.0056	0.0013
499.2046	0.0115
499.4035	0.0066
499.6024	0.0027
499.8013	0.0101
500.0002	0.0081
500.199	0.0173
500.3979	-0.0037
500.5967	0.004
500.7956	0.0095
500.9944	0.0099
501.1932	0.0084
501.3919	0.0127
501.5907	0.0092
501.7895	0.012
501.9882	0.0137
502.1869	0.0125
502.3856	0.0052
502.5843	0.0065
502.783	0.0051
502.9816	0.0081
503.1803	0.0051
503.3789	0.0161
503.5775	0.0046
503.7761	0.0039
503.9747	0.0079
504.1732	-0.0019
504.3718	0.0173
504.5703	0.0044
504.7689	-0.0008
504.9674	0.0033
505.1658	0.0061
505.3643	0.0125
505.5628	0.0103
505.7612	0.009
505.9597	0.0007
506.1581	0.0023
506.3565	0.0093
506.5549	0.0018
506.7532	0.001
506.9516	0.0068
507.1499	0.0086
507.3482	0.0102
507.5465	0.0112
507.7448	0.008
507.9431	0.0152
508.1414	0.0068
508.3396	0.0056
508.5379	0.005
508.7361	0.0017
508.9343	0.0107
509.1325	0.0158
509.3306	0.006
509.5288	-0.0043
509.7269	0.014
509.9251	0.0092
510.1232	0.0021
510.3213	0.0077
510.5193	0.0144
510.7174	0.002
510.9154	0.0144
511.1135	0.0027
511.3115	0.0074
511.5095	0.0108
511.7075	0.0082
511.9055	0.0025
512.1034	0.0108
512.3014	-0.0029
512.4993	0.0084
512.6972	-0.0079
512.8951	0.0081
513.093	0.0042
513.2908	0.0174
513.4887	0.0001
513.6865	0.0088
513.8844	0.0189
514.0822	-0.002
514.2799	0.0005
514.4777	0.0037
514.6755	0.0088
514.8732	0.0087
515.0709	0.0058
515.2687	0.0106
515.4664	0.0135
515.664	0.01
515.8617	0.0119
516.0594	0.0032
516.257	0.0066
516.4546	0.0179
516.6522	0.0039
516.8498	0.0054
517.0474	0.0075
517.2449	0.0101
517.4425	0.0064
517.64	0.0101
517.8375	0.0134
518.035	0.0092
518.2325	0.0033
518.43	0.0118
518.6274	0.0015
518.8249	-0.0022
519.0223	0.0126
519.2197	-0.0032
519.4171	0.0009
519.6145	0.014
519.8118	0.0059
520.0092	-0.0063
520.2065	0.0054
520.4038	0.0051
520.6011	0.0076
520.7984	0.0023
520.9956	0.0175
521.1929	0.0122
521.3901	0.0076
521.5874	0.0144
521.7846	-0.0045
521.9818	0.0026
522.1789	-0
522.3761	0.0113
522.5732	0.0043
522.7704	0.0019
522.9675	-0.0023
523.1646	-0.0006
523.3617	0.0133
523.5587	0.0016
523.7558	0.0004
523.9528	0.0043
524.1498	-0.0025
524.3468	0.0105
524.5438	0.0129
524.7408	0.0047
524.9378	0.0012
525.1347	0.0132
525.3316	0.0024
525.5285	-0.0011
525.7254	0.0121
525.9223	0.0177
526.1192	0.0103
526.316	0.0074
526.5129	0.0085
526.7097	0.0074
526.9065	0.0012
527.1033	-0.0003
527.3	-0.0046
527.4968	0.0102
527.6935	0.0052
527.8903	0.007
528.087	0.0103
528.2837	0.0098
528.4804	0.0026
528.677	0.0111
528.8737	0.0062
529.0703	0.0042
529.2669	0.0086
529.4635	0.0054
529.6601	-0.0011
529.8567	-0
530.0532	0.001
530.2498	0.0149
530.4463	-0.0013
530.6428	0.0091
530.8393	0.0123
531.0358	0.0064
531.2322	-0.0042
531.4287	0.011
531.6251	-0.014
531.8215	0.002
532.0179	0.0059
532.2143	0.0054
532.4107	0.0111
532.607	0.0017
532.8034	0.0011
532.9997	-0.0035
533.196	0.0013
533.3923	0.0071
533.5886	0.0034
533.7848	-0.0033
533.9811	0.0062
534.1773	0.0095
534.3735	0.0065
534.5697	0.0005
534.7659	0.009
534.9621	0.0136
535.1582	0.0035
535.3544	0.0106
535.5505	0.0091
535.7466	0.0037
535.9427	0.0024
536.1387	0.0126
536.3348	0.0026
536.5308	0.0081
536.7269	0.0049
536.9229	0.0039
537.1189	0.0174
537.3148	0.011
537.5108	0.01
537.7068	0.0137
537.9027	-0.0069
538.0986	0.008
538.2945	-0.0002
538.4904	-0.0032
538.6863	0.0035
538.8821	0.0116
539.078	0.0106
539.2738	0.014
539.4696	0.0039
539.6654	0.0044
539.8611	0.0122
540.0569	0.0089
540.2526	0.0071
540.4484	-0.0039
540.6441	0.0092
540.8398	0.0108
541.0355	0.0006
541.2311	0.0034
541.4268	0.0193
541.6224	0.0147
541.818	0.0085
542.0136	0.0086
542.2092	0.0097
542.4048	0.0059
542.6003	0.0061
542.7959	0.0136
542.9914	-0.0002
543.1869	-0.0033
543.3824	0.004
543.5779	0.0105
543.7734	0.0149
543.9688	0.0123
544.1642	0.0102
544.3596	0.0108
544.555	0.0011
544.7504	0.0131
544.9458	0.0099
545.1411	0.0137
545.3365	0.0057
545.5318	0.0012
545.7271	0.0154
545.9224	0.0075
546.1177	0.0161
546.3129	0.0067
546.5081	0.0067
546.7034	0.0089
546.8986	0.0086
547.0938	0.0134
547.289	0.0139
547.4841	0.0149
547.6793	0.0049
547.8744	0.0105
548.0695	0.0075
548.2646	0.0074
548.4597	-0.0039
548.6548	0.0154
548.8498	0.009
549.0448	0.0001
549.2399	0.0094
549.4349	-0.0016
549.6298	0.0108
549.8248	-0.009
550.0198	0.0133
550.2147	0.0129
550.4096	-0.0031
550.6045	0.0029
550.7994	0.0077
550.9943	0.0042
551.1892	-0.0015
551.384	0.0169
551.5788	-0.001
551.7737	0.0057
551.9685	0.0072
552.1632	-0.0007
552.358	0.003
552.5528	0.0056
552.7475	0.0031
552.9422	0.0042
553.1369	0.0183
553.3316	0.0195
553.5263	0.0085
553.7209	0.0061
553.9156	0.0092
554.1102	0.0127
554.3048	0.0081
554.4994	0.0124
554.694	0.0039
554.8885	0.0019
555.0831	0.0109
555.2776	0.0097
555.4721	0.0042
555.6666	-0.0047
555.8611	0.0018
556.0555	0.006
556.25	0.0094
556.4444	0.0021
556.6388	0.0124
556.8332	0.0094
557.0276	0.0036
557.222	-0.0014
557.4163	0.0029
557.6107	-0.0065
557.805	-0.0032
557.9993	0.0032
558.1936	0.0015
558.3879	0.0106
558.5821	0.009
558.7764	0.0039
558.9706	0.0075
559.1648	0.0058
559.359	-0.0013
559.5532	-0.0065
559.7473	-0.0014
559.9415	0.0044
560.1356	0.0105
560.3297	0.0064
560.5238	0.0086
560.7179	0.0091
560.9119	0.0047
561.106	0.0019
561.3	0.0067
561.494	-0.0027
561.688	0.0065
561.882	0.0027
562.076	0.0063
562.2699	0.0141
562.4639	0.0209
562.6578	0.0162
562.8517	0.009
563.0456	0.0075
563.2395	0.0115
563.4333	0.0064
563.6272	0.001
563.821	0.0046
564.0148	0.0046
564.2086	0.0116
564.4024	0.0141
564.5961	0.008
564.7899	0.012
564.9836	0.0075
565.1773	0.0093
565.371	0.0071
565.5647	0.0063
565.7584	0.006
565.952	0.0069
566.1456	0.0078
566.3393	-0.0058
566.5329	-0.0053
566.7264	0.0058
566.92	0.0044
567.1136	0.0017
567.3071	-0.0056
567.5006	0.0172
567.6941	0.0107
567.8876	0.0046
568.0811	0.02
568.2745	0.002
568.468	0.008
568.6614	0.009
568.8548	0.005
569.0482	0.0096
569.2416	0.0055
569.4349	0.0069
569.6283	0.0044
569.8216	0.0116
570.0149	0.0088
570.2082	0.0081
570.4015	0.0012
570.5947	0.0024
570.788	0.0098
570.9812	0.0027
571.1744	0.0036
571.3676	0.006
571.5608	0.0072
571.754	0.013
571.9471	0.0104
572.1402	0.0086
572.3333	0.003
572.5264	0.0053
572.7195	0.0096
572.9126	0.0037
573.1057	0.0041
573.2987	0.0019
573.4917	0.0066
573.6847	0.0039
573.8777	0.0112
574.0707	0.0041
574.2636	0.005
574.4566	0.0005
574.6495	0.0075
574.8424	0.0087
575.0353	0.0103
575.2281	0.0063
575.421	0.0013
575.6138	0.0031
575.8067	0.0086
575.9995	0.0049
576.1923	0.0074
576.385	0.0057
576.5778	0.0083
576.7706	0.0039
576.9633	0.0065
577.156	0.0012
577.3487	0.0063
577.5414	0.0042
577.734	-0.0005
577.9267	0.0038
578.1193	0.0081
578.3119	0.0024
578.5045	0.0057
578.6971	0.0035
578.8897	0.0009
579.0822	0.0107
579.2747	-0.0005
579.4673	0.0037
579.6598	0.0055
579.8522	0.0004
580.0447	0.0076
580.2372	0.0103
580.4296	0.0077
580.622	0.0007
580.8144	0.0047
581.0068	0.0056
581.1992	0.0046
581.3915	0.0001
581.5839	0.0075
581.7762	0.0017
581.9685	0.0054
582.1608	0.0039
582.353	0.0057
582.5453	0.0095
582.7375	0.0102
582.9298	0.0008
583.122	0.0018
583.3142	0.0084
583.5063	0.0052
583.6985	0.0045
583.8906	0.005
584.0827	0.0089
584.2749	0.0042
584.4669	0.0061
584.659	0.0077
584.8511	0.0078
585.0431	0.0051
585.2352	0.0047
585.4272	0.0086
585.6192	0.0064
585.8111	-0.0013
586.0031	0.0006
586.195	0.0063
586.387	0.0014
586.5789	0.0083
586.7708	0.0041
586.9627	0.0034
587.1545	0.0032
587.3464	0.0053
587.5382	-0.0022
587.73	0.0088
587.9218	0.0029
588.1136	0.0011
588.3053	0.0025
588.4971	0.0051
588.6888	0.0013
588.8805	0.0033
589.0722	0.0057
589.2639	0.0075
589.4556	0.0072
589.6472	0.0056
589.8389	0.0051
590.0305	0.0026
590.2221	0.0072
590.4137	0.0074
590.6052	-0.0002
590.7968	0.0065
590.9883	-0
591.1798	0.0066
591.3713	0.0059
591.5628	0.0102
591.7543	0.0031
591.9458	0.0046
592.1372	0.0051
592.3286	0.0005
592.52	0.0061
592.7114	0.0029
592.9028	0.0083
593.0941	-0.0003
593.2855	0.005
593.4768	0.0084
593.6681	0.0067
593.8594	0.004
594.0506	0.0035
594.2419	0.0029
594.4331	0.0095
594.6244	0.0017
594.8156	0.007
595.0067	0.0013
595.1979	-0.0023
595.3891	0.0046
595.5802	0.0061
595.7713	0.0095
595.9624	0.0106
596.1535	0.0057
596.3446	0.0048
596.5357	0.0098
596.7267	0.004
596.9177	-0.0022
597.1087	-0.0035
597.2997	0.0075
597.4907	-0.0013
597.6817	0.007
597.8726	0.0118
598.0635	0.0087
598.2544	0.0052
598.4453	0.003
598.6362	0.0041
598.827	0.0056
599.0179	0.0033
599.2087	0.0098
599.3995	0.0086
599.5903	0.0084
599.7811	0.0122
599.9718	0.0039
600.1626	0.0072
600.3533	0.0067
600.544	0.0046
600.7347	0.0077
600.9254	0.0149
601.116	0.0034
601.3067	0.0012
601.4973	0.0051
601.6879	0.0012
601.8785	0.0073
602.0691	0.0077
602.2596	0.0031
602.4502	0.0043
602.6407	0.005
602.8312	0.0065
603.0217	0.0073
603.2122	0.0061
603.4027	0.0051
603.5931	0.0009
603.7835	0.0064
603.9739	-0.0044
604.1643	0.0091
604.3547	0.0079
604.5451	0.0077
604.7354	-0.0009
604.9257	0.0021
605.116	0.0012
605.3063	0.0115
605.4966	0.0012
605.6869	0.0057
605.8771	0.0044
606.0673	0.0105
606.2575	-0.0015
606.4477	0.009
606.6379	0.0019
606.8281	0.0006
607.0182	0.0089
607.2083	0.0023
607.3985	0.0015
607.5885	0.01
607.7786	0.0062
607.9687	0.0033
608.1587	0.0054
608.3488	0.0071
608.5388	0.0032
608.7288	-0.0003
608.9187	0.0033
609.1087	0.0034
609.2986	0.009
609.4886	0.0031
609.6785	0.0063
609.8684	0.001
610.0582	-0.0005
610.2481	-0.0053
610.4379	0.0081
610.6278	0.0056
610.8176	0.0101
611.0074	0.0051
611.1971	0.0096
611.3869	0.0113
611.5766	-0.0066
611.7664	0.0108
611.9561	0.0108
612.1458	0.0084
612.3354	0.006
612.5251	0.006
612.7147	0.0097
612.9044	0.0034
613.094	0.0138
613.2836	0.001
613.4731	0.0035
613.6627	0.0072
613.8522	0.0049
614.0417	0.005
614.2313	0.0037
614.4207	0.0111
614.6102	0.0121
614.7997	0.0139
614.9891	0.0008
615.1785	-0.0001
615.3679	0.0069
615.5573	0.0034
615.7467	0.0068
615.9361	0.0044
616.1254	0.0101
616.3147	0.0054
616.504	0.0057
616.6933	0.0035
616.8826	0.004
617.0718	0.0077
617.2611	0.0015
617.4503	0.0009
617.6395	0.0017
617.8287	0.0116
618.0179	-0.0017
618.207	0.0107
618.3961	-0.0005
618.5853	0.004
618.7744	0.0039
618.9634	0.0111
619.1525	-0.0026
619.3416	0.0044
619.5306	0.0069
619.7196	0.0117
619.9086	0.0027
620.0976	-0.0035
620.2866	0.0138
620.4755	0.0018
620.6645	0.0101
620.8534	0.0114
621.0423	0.0034
621.2312	0.0027
621.42	0.0044
621.6089	0.0063
621.7977	0.011
621.9865	-0.0005
622.1753	0.002
622.3641	-0.0067
622.5529	-0.0013
622.7416	0.0026
622.9303	0.0043
623.1191	0.0067
623.3078	0.0036
623.4964	0.0008
623.6851	0.0082
623.8737	-0.0027
624.0624	-0.0068
624.251	0.0083
624.4396	0.0074
624.6282	0.0119
624.8167	-0.0039
625.0053	0.0092
625.1938	0.0149
625.3823	0.0065
625.5708	0.0016
625.7593	0.0043
625.9477	0.0007
626.1362	0.004
626.3246	0.0068
626.513	0.0122
626.7014	0.006
626.8898	0.003
627.0781	0.0119
627.2665	0.0072
627.4548	-0.0102
627.6431	0.0157
627.8314	0.0148
628.0197	0.002
628.2079	0.0037
628.3962	0.0032
628.5844	0.0038
628.7726	0.0036
628.9608	0.013
629.1489	0.0121
629.3371	0.0082
629.5252	0.017
629.7134	-0.0029
629.9015	0.0108
630.0895	-0.0016
630.2776	0.0136
630.4657	0.0108
630.6537	0.0118
630.8417	0.0085
631.0297	0.0134
631.2177	0.0066
631.4057	0.023
631.5936	-0.0015
631.7815	-0.0003
631.9695	0.0133
632.1574	0.0092
632.3452	0.0046
632.5331	-0.0002
632.7209	0.016
632.9088	-0.0058
633.0966	0.0311
633.2844	0.0048
633.4722	0.0131
633.6599	0.0286
633.8477	0.0033
634.0354	0.0188
634.2231	-0.0007
634.4108	-0.0135
634.5985	0.0104
634.7861	-0.0086
634.9738	-0.0011
635.1614	0.0001
635.349	-0.0037
635.5366	-0.0013
635.7242	0.0021
635.9117	0.0128
636.0993	0.0096
636.2868	-0.006
636.4743	0.0094
636.6618	-0.008
636.8492	0.0109
637.0367	0.0072
637.2241	-0.0076
637.4115	0.0157
637.5989	0.0092
637.7863	0.0129
637.9737	0.0044
638.161	0.0027
638.3484	-0.002
638.5357	0.0046
638.723	0.0037
638.9103	-0.0139
639.0975	0.0016
639.2848	0.0301
639.472	0.0207
639.6592	-0.0129
639.8464	0.0125
640.0336	0.0017
640.2208	0.0004
640.4079	-0.0204
640.595	-0.0139
640.7821	0.027
640.9692	-0.0043
641.1563	0.0122
641.3434	0.0012
641.5304	0.0387
641.7174	0.0222
641.9044	0.0063
642.0914	0.0184
642.2784	-0.0038
642.4653	0.0011
642.6523	0.0106
642.8392	0.0133
643.0261	0.0039
643.213	0.0064
643.3999	0.018
643.5867	0.0063
643.7735	-0.0093
643.9604	0.0078
644.1472	0.0032
644.3339	-0.0091
644.5207	-0.0205
644.7075	-0.0099
644.8942	-0.0207
645.0809	-0.0075
645.2676	0.0177
645.4543	-0.011
645.6409	0.0314
645.8276	0.0108
646.0142	-0.0003
646.2008	0.0011
646.3874	0.0011
646.574	-0.0006
646.7605	0.0117
646.9471	0.0081
647.1336	-0.0225
647.3201	-0.0109
647.5066	0.0245
647.6931	0.0002
647.8795	0.0125
648.0659	0.0049
648.2524	0.0074
648.4388	-0.0049
648.6252	0.0029
648.8115	-0.0057
648.9979	0.0116
649.1842	0.0077
649.3705	0.0235
649.5568	-0.0028
649.7431	0.0078
649.9294	-0.0002
650.1156	-0.0188
650.3018	0.0178
650.488	0.0025
650.6742	0.0076
650.8604	0.0002
651.0466	-0.0022
651.2327	0.014
651.4188	-0.0032
651.6049	0.013
651.791	0.0099
651.9771	0.0014
652.1632	0.005
652.3492	-0.0058
652.5352	0.0137
652.7212	-0.0076
652.9072	0.0002
653.0932	0.0133
653.2791	0.0131
653.465	0.0082
653.651	0.01
653.8369	0.0164
654.0227	0.0025
654.2086	0.0091
654.3944	0.0146
654.5803	0.0034
654.7661	0.0104
654.9519	-0.0016
655.1377	0.0001
655.3234	0.0001
655.5092	0.0001
655.6949	0.0001
655.8806	0.0001
656.0663	0.0001
656.2519	0.0001
656.4376	0.0001
656.6232	0.0001
656.8088	0.0001
656.9945	0.0001
657.18	0.0001
657.3656	0.0001
657.5511	0.0001
657.7367	0.0001
657.9222	0.0001
658.1077	0.0001
658.2932	0.0001
658.4786	0.0001
658.6641	0.0001
658.8495	0.0001
659.0349	0.0001
659.2203	0.0001
659.4057	0.0001
659.591	0.1636
659.7764	0.0163
659.9617	0.0146
660.147	0.0088
660.3323	0.0004
660.5176	0.0153
660.7028	-0.0078
660.888	0.0092
661.0733	0.0165
661.2585	0.0222
661.4436	-0.0084
661.6288	0.0079
661.8139	0.0078
661.9991	-0.0089
662.1842	-0.0003
662.3693	0.0061
662.5544	0.0369
662.7394	0.0204
662.9245	0.0055
663.1095	-0.012
663.2945	-0.0114
663.4795	0.0124
663.6644	0.0034
663.8494	0.0097
664.0343	0.0314
664.2193	-0.026
664.4042	-0.0023
664.589	0.0139
664.7739	0.0167
664.9587	-0.025
665.1436	0.0064
665.3284	0.0063
665.5132	-0.0276
665.698	0.0269
665.8827	0.0008
666.0675	-0.0263
666.2522	0.0229
666.4369	-0.001
666.6216	-0.0084
666.8063	0.0099
666.9909	0.013
667.1756	-0.0017
667.3602	-0.0075
667.5448	0.0237
667.7294	0.0103
667.9139	-0.0069
668.0985	0.0068
668.283	0.0058
668.4675	0.0046
668.652	0.0221
668.8365	-0.0017
669.0209	0.0194
669.2054	0.0116
669.3898	0.0147
669.5742	0.0117
669.7586	0.0171
669.943	-0.0073
670.1273	-0.0003
670.3117	0.0092
670.496	0.0163
670.6803	-0.0003
670.8646	-0.0249
671.0488	0.0276
671.2331	-0.0146
671.4173	0.0022
671.6015	0.0159
671.7857	0.016
671.9699	0.0151
672.1541	0.0002
672.3382	-0.0005
672.5223	0.0038
672.7064	0.0046
672.8905	-0.0163
673.0746	0.0053
673.2587	0.0149
673.4427	0.0233
673.6267	0.0103
673.8107	0.0164
673.9947	-0.0046
674.1787	-0.0049
674.3626	0.014
674.5465	0.0194
674.7304	0.0032
674.9143	-0.0204
675.0982	-0.0016
675.2821	0.0185
675.4659	-0.0161
675.6497	-0
675.8335	0.0057
676.0173	-0.0003
676.2011	0.0283
676.3849	0.007
676.5686	0.0101
676.7523	0.0026
676.936	0.0166
677.1197	0.0058
677.3034	0.0354
677.487	0.0035
677.6706	0.0029
677.8542	-0.0038
678.0378	0.0021
678.2214	-0.0019
678.405	-0.0073
678.5885	0.014
678.772	0.0034
678.9555	0.0073
679.139	0.0124
679.3225	0.0043
679.5059	-0.0091
679.6894	0.0174
679.8728	-0.0077
680.0562	-0
680.2395	0.0061
680.4229	0.0012
680.6062	-0.0069
680.7896	0.0005
680.9729	0.0029
681.1562	0.0004
681.3394	-0.0116
681.5227	0.0075
681.7059	0.008
681.8891	0.0238
682.0723	-0.0012
682.2555	-0.001
682.4387	0.0365
682.6218	0.0184
682.805	0.0205
682.9881	-0.0051
683.1712	0.0261
683.3542	0.0176
683.5373	0.0025
683.7203	0.0067
683.9034	-0.0038
684.0864	-0.0102
684.2694	0.0058
684.4523	0.0172
684.6353	0.015
684.8182	0.0011
685.0011	0.0006
685.184	0.0023
685.3669	0.0252
685.5498	0.0081
685.7326	0.003
685.9154	-0.0089
686.0982	0.0174
686.281	-0.0076
686.4638	0.0215
686.6465	0.0123
686.8293	-0.0186
687.012	0.0053
687.1947	0.0068
687.3774	0.0137
687.56	0.0005
687.7427	0.0013
687.9253	-0.0127
688.1079	-0.0119
688.2905	0.0033
688.4731	0.0193
688.6556	-0.0165
688.8382	-0.0259
689.0207	0.0176
689.2032	0.014
689.3857	0.0053
689.5681	-0.0255
689.7506	0.0318
689.933	-0.0058
690.1154	0.0077
690.2978	0.0178
690.4802	0.0148
690.6626	0.0149
690.8449	0.0093
691.0272	-0.0131
691.2095	-0.0161
691.3918	0.0013
691.5741	-0.0111
691.7563	0.0146
691.9386	0.022
692.1208	0.0111
692.303	0.0086
692.4852	0.0019
692.6673	0.0063
692.8495	-0.0044
693.0316	0.0104
693.2137	0.0101
693.3958	-0.0056
693.5778	0.0101
693.7599	0.0033
693.9419	-0.0214
694.1239	-0
694.3059	0.0113
694.4879	-0.0166
694.6699	0.0062
694.8518	0.0139
695.0337	-0.0078
695.2157	0.015
695.3975	-0.0114
695.5794	-0.0175
695.7613	0.0039
695.9431	-0.0212
696.1249	0.0307
696.3067	-0.0111
696.4885	0.0275
696.6703	0.0205
696.852	0.0135
697.0337	0.0158
697.2154	0.0127
697.3971	0.0006
697.5788	0.0097
697.7605	-0.0147
697.9421	0.0206
698.1237	0.01
698.3053	-0.0102
698.4869	0.011
698.6685	-0.0071
698.85	0.0303
699.0315	-0.0041
699.213	0.0111
699.3945	0.0071
699.576	0.0078
699.7575	0.0208
699.9389	-0.0004
700.1203	0.0076
700.3017	-0.0082
700.4831	0.0392
700.6645	0.0235
700.8458	-0.0036
701.0271	0.0219
701.2084	0.0074
701.3897	0.0393
701.571	-0.009
701.7523	0.0017
701.9335	0.0232
702.1147	0.017
702.2959	-0.0058
702.4771	0.0179
702.6583	-0.0057
702.8394	-0.001
703.0205	0.0378
703.2016	0.0065
703.3827	0.0034
703.5638	0.0138
703.7449	0.0306
703.9259	0.0051
704.1069	-0.0384
704.2879	0.0245
704.4689	0.0248
704.6499	-0.0009
704.8308	0.0046
705.0117	0.0284
705.1927	0.0434
705.3735	0.0267
705.5544	0.0045
705.7353	-0.0149
705.9161	0.0022
706.0969	0.0125
706.2777	0.0156
706.4585	0.0043
706.6393	0.018
706.82	0.0054
707.0007	-0.0007
707.1815	-0.0057
707.3621	0.019
707.5428	0.0156
707.7235	0.0085
707.9041	-0.0013
708.0847	0.0148
708.2653	0.0362
708.4459	0.0063
708.6265	-0.0229
708.807	0.0172
708.9875	-0.0105
709.168	-0.0098
709.3485	0.0103
709.529	0.0151
709.7095	-0.0102
709.8899	0.0046
710.0703	0.018
710.2507	0.0075
710.4311	-0.0312
710.6115	-0.0062
710.7918	0.0222
710.9721	-0.01
711.1524	-0.0092
711.3327	-0.0155
711.513	-0.0161
711.6932	0.0093
711.8735	0.0191
712.0537	-0.0008
712.2339	-0.0052
712.4141	0.0121
712.5942	0.0073
712.7744	0.0154
712.9545	0.0096
713.1346	0.0049
713.3147	0.0042
713.4947	-0.0096
713.6748	0.0064
713.8548	0.0256
714.0348	0.0182
714.2148	0.024
714.3948	-0.0017
714.5748	0.018
714.7547	0.0326
714.9346	0.0135
715.1145	0.0063
715.2944	-0.0045
715.4743	0.0217
715.6541	-0.0246
715.834	0.0083
716.0138	0.012
716.1936	-0.0283
716.3733	0.0338
716.5531	-0.0043
716.7328	-0.0026
716.9126	0.004
717.0923	-0.0138
717.2719	-0.0041
717.4516	0.0223
717.6312	-0.0087
717.8109	0.0276
717.9905	0.0098
718.1701	0.0249
718.3496	-0.0147
718.5292	0.0137
718.7087	0.0052
718.8882	0.0311
719.0677	-0.0058
719.2472	0.026
719.4267	0.0033
719.6061	-0.0152
719.7856	0.0059
719.965	0.0004
720.1443	-0.0177
720.3237	0.0039
720.5031	0.0271
720.6824	0.0194
720.8617	-0.0158
721.041	0.0428
721.2203	-0.0274
721.3995	0.0073
721.5788	0.0119
721.758	0.0008
721.9372	-0.017
722.1164	0.006
722.2956	-0.0022
722.4747	-0.0009
722.6538	-0.0131
722.8329	0.0418
723.012	0.0111
723.1911	-0.0093
723.3702	0.0381
723.5492	0.0043
723.7282	0.0162
723.9072	0.0103
724.0862	-0.0036
724.2652	0.0126
724.4441	0.0074
724.623	0.0207
724.8019	0.0156
724.9808	0.017
725.1597	-0.0048
725.3385	0.0095
725.5174	0.0013
725.6962	0.0245
725.875	0.0196
726.0538	0.0076
726.2325	0.0327
726.4112	-0.0355
726.59	-0.0159
726.7687	0.0066
726.9474	0.0275
727.126	0.0162
727.3047	-0.0105
727.4833	0.0053
727.6619	0.0025
727.8405	0.0048
728.0191	0.0227
728.1976	0.018
728.3762	0.0236
728.5547	0.0088
728.7332	0.0321
728.9116	-0.0064
729.0901	0.0095
729.2686	0.0015
729.447	-0.0104
729.6254	-0.0032
729.8038	0.0089
729.9821	-0.0075
730.1605	0.0213
730.3388	0.0114
730.5171	0.0155
730.6954	-0.0037
730.8737	-0.0026
731.0519	-0.0056
731.2302	0.0263
731.4084	0.0175
731.5866	0.002
731.7648	0.0161
731.9429	0.025
732.1211	-0.02
732.2992	0.0058
732.4773	0.0109
732.6554	-0.0128
732.8335	0.0066
733.0115	0.0183
733.1896	-0.0211
733.3676	0.0114
733.5456	0.0078
733.7235	-0.0051
733.9015	0.0211
734.0794	0.0048
734.2574	-0.0169
734.4353	0.0151
734.6131	-0.0207
734.791	-0.0039
734.9689	-0.0195
735.1467	-0.0071
735.3245	0.0035
735.5023	0.0168
735.68	-0
735.8578	0.0097
736.0355	0.019
736.2132	0.0099
736.3909	0.0151
736.5686	0.0124
736.7463	0.007
736.9239	0.0089
737.1015	0.0026
737.2791	0.0165
737.4567	0.0176
737.6343	-0
737.8118	0.0031
737.9894	-0.0046
738.1669	-0.0007
738.3444	0.0078
738.5218	-0.0038
738.6993	0.0222
738.8767	0.002
739.0541	-0.005
739.2315	-0.0003
739.4089	0.0273
739.5863	-0.0063
739.7636	-0.0126
739.9409	0.0018
740.1182	-0.014
740.2955	0.0118
740.4728	-0.0166
740.65	-0.0201
740.8272	0.0129
741.0044	-0.0084
741.1816	0.0246
741.3588	0.001
741.5359	0.0157
741.7131	0.0071
741.8902	0.0173
742.0673	-0.0146
742.2444	0.0316
742.4214	0.0297
742.5985	0.0046
742.7755	0.0074
742.9525	-0.0193
743.1295	-0.0367
743.3064	-0.0054
743.4834	-0.003
743.6603	0.0578
743.8372	-0.033
744.0141	0.0351
744.191	0.0275
744.3678	-0.0201
744.5446	0.0013
744.7215	0.019
744.8982	0.0078
745.075	0.0463
745.2518	0.0428
745.4285	0.0278
745.6052	-0.004
745.7819	0.0099
745.9586	0.0105
746.1353	-0.0041
746.3119	0.0004
746.4885	0.0274
746.6651	-0.0157
746.8417	0.008
747.0183	0.0123
747.1948	0.0087
747.3714	0.0167
747.5479	0.0071
747.7244	-0.0226
747.9008	-0.0138
748.0773	0.0134
748.2537	0.01
748.4301	0.0395
748.6065	-0.0173
748.7829	-0.0318
748.9593	0.005
749.1356	0.0048
749.3119	0.0122
749.4882	0.0198
749.6645	-0.0157
749.8408	0.0316
750.017	0.0117
750.1933	-0.0301
750.3695	0.0207
750.5457	-0.0044
750.7218	0.0235
750.898	-0.0139
751.0741	0.0009
751.2502	0.0125
751.4263	0.0151
751.6024	0.0141
751.7784	-0.0028
751.9545	0.0161
752.1305	0.0158
752.3065	-0.0081
752.4825	-0.0064
752.6584	-0.0173
752.8344	0.0018
753.0103	-0.0004
753.1862	0.0217
753.3621	-0.0068
753.5379	0.0057
753.7138	0.002
753.8896	0.0253
754.0654	-0.0019
754.2412	0.0234
754.417	0.0091
754.5927	0.002
754.7685	0.0032
754.9442	0.0205
755.1199	0.0257
755.2956	0.0246
755.4712	0.0157
755.6469	0.0052
755.8225	-0.0072
755.9981	0.0135
756.1736	0.0017
756.3492	0.0126
756.5248	0.0152
756.7003	0.0106
756.8758	0.0119
757.0513	-0.0004
757.2267	0.0098
757.4022	-0.0164
757.5776	0.001
757.753	0.0248
757.9284	-0.0077
758.1038	0.014
758.2791	0.0025
758.4545	-0.01
758.6298	0.007
758.8051	-0.0052
758.9803	0.0189
759.1556	-0.0057
759.3308	0.0091
759.506	-0.0143
759.6812	0.0019
759.8564	0.0055
760.0316	0.0047
760.2067	0.0107
760.3819	-0.0016
760.557	-0.0139
760.732	-0.0036
760.9071	0.0305
761.0821	-0.0166
761.2572	0.0195
761.4322	0.0147
761.6072	0.012
761.7821	-0.0164
761.9571	0.0186
762.132	0.0234
762.3069	0.0053
762.4818	-0.0038
762.6567	0.0007
762.8316	0.0245
763.0064	0.007
763.1812	0.0038
763.356	0.0035
763.5308	0.0128
763.7055	-0.0025
763.8803	-0.0053
764.055	0.0051
764.2297	-0.0028
764.4044	0.0062
764.579	-0.0102
764.7537	-0.0075
764.9283	0.005
765.1029	0.0158
765.2775	0.0145
765.4521	0.0146
765.6266	0.0234
765.8011	0.0287
765.9756	0.0098
766.1501	-0.0005
766.3246	0.0275
766.4991	-0.0133
766.6735	0.0302
766.8479	0.0179
767.0223	0.0049
767.1967	0.0322
767.371	0.0184
767.5454	0.0004
767.7197	0.0394
767.894	0.0231
768.0683	0.0259
768.2425	0.0067
768.4168	0.0278
768.591	0.0063
768.7652	0.0011
768.9394	-0.0185
769.1135	-0.0166
769.2877	0.0495
769.4618	0.0216
769.6359	0.0262
769.81	0.0296
769.984	-0.0045
770.1581	0.0171
770.3321	0.0302
770.5061	0.0018
770.6801	0.0267
770.8541	0.0251
771.028	0.0525
771.202	0.0373
771.3759	0.0238
771.5498	0.0093
771.7236	0.014
771.8975	0.0229
772.0713	0.0148
772.2451	0.0044
772.4189	-0.0125
772.5927	-0.0365
772.7665	0.0075
772.9402	0.0198
773.1139	-0.0314
773.2876	0.0225
773.4613	0.0255
773.635	0.0237
773.8086	0.0033
773.9822	0.0362
774.1558	0.0169
774.3294	-0.0115
774.503	0.0308
774.6765	0.0194
774.8501	-0.0001
775.0236	0.0396
775.1971	-0.0187
775.3705	0.0166
775.544	-0.0357
775.7174	0.0243
775.8908	0.0105
776.0642	0.0522
776.2376	0.0539
776.4109	0.021
776.5843	-0.0036
776.7576	-0.0093
776.9309	0.0248
777.1041	0.034
777.2774	-0.0025
777.4506	0.006
777.6238	0.007
777.797	0.0443
777.9702	-0.0007
778.1434	0.0183
778.3165	-0.0429
778.4896	-0.0195
778.6627	0.0321
778.8358	-0.0187
779.0089	-0.0206
779.1819	0.0136
779.3549	0.0099
779.5279	-0.0433
779.7009	0.0322
779.8739	0.0782
780.0468	0.0056
780.2197	0.0067
780.3926	-0.0014
780.5655	-0.0158
780.7384	0.0088
780.9112	0.0245
781.0841	0.0189
781.2569	0.0184
781.4297	-0.005
781.6024	0.0228
781.7752	0.0242
781.9479	0.0285
782.1206	-0.0048
782.2933	0.008
782.466	0.0308
782.6386	-0.008
782.8113	0.0275
782.9839	-0.0173
783.1565	0.0249
783.329	0.0064
783.5016	0.0057
783.6741	-0.0168
783.8466	0.0493
784.0191	0.0006
784.1916	-0.0193
784.3641	-0.0574
784.5365	0.0423
784.7089	-0.0391
784.8813	0.0733
785.0537	0.0131
785.2261	0.0135
785.3984	-0.0049
785.5707	-0.0314
785.743	0.0344
785.9153	-0.016
786.0876	-0.0476
786.2598	-0.0126
786.432	-0.0008
786.6042	0.0279
786.7764	-0.0426
786.9486	0.0169
787.1207	0.0157
787.2928	0.0625
787.4649	-0.036
787.637	0.0174
787.8091	-0.0041
787.9811	0.0278
788.1532	0.0235
788.3252	0.0094
788.4972	0.0295
788.6691	0.0154
788.8411	-0.0189
789.013	0.0133
789.1849	-0.0322
789.3568	0.0135
789.5287	0.0484
789.7005	-0.0508
789.8723	-0.022
790.0442	-0.0569
790.2159	0.0309
790.3877	0.0312
790.5595	0.0115
790.7312	0.0172
790.9029	0.0198
791.0746	0.0184
791.2463	-0.0271
791.4179	0.0215
791.5896	0.0401
791.7612	0.0342
791.9328	0.0349
792.1044	0.015
792.2759	-0.0503
792.4474	-0.0183
792.619	-0.0244
792.7905	-0.0035
792.9619	0.0051
793.1334	0.0811
793.3048	0.0876
793.4762	-0.0371
793.6476	0.0055
793.819	0.0169
793.9904	0.0024
794.1617	-0.0147
794.333	0.0165
794.5043	0.0383
794.6756	0.0122
794.8469	0.0104
795.0181	-0.0057
795.1893	0.0223
795.3605	0.0309
795.5317	-0.0134
795.7029	-0.0009
795.874	0.0074
796.0452	-0.0199
796.2163	0.0716
796.3873	0.0665
796.5584	0.0437
796.7294	-0.0133
796.9005	0.0133
797.0715	-0.0857
797.2425	0.0568
797.4134	0.0503
797.5844	0.0525
797.7553	-0.0743
797.9262	0.0521
798.0971	0.1144
798.2679	0.0023
798.4388	0.0148
798.6096	0.0123
798.7804	0.0135
798.9512	0.0545
799.122	0.0182
799.2927	0.0759
799.4635	-0.0884
799.6342	-0.0254
799.8049	-0.0111
799.9755	-0.0521
800.1462	0.0295
800.3168	0.068
800.4874	-0.0861
800.658	0.0299
800.8286	0.0188
800.9991	-0.0125
801.1696	0.0442
801.3402	0.0375
801.5106	-0.0926
801.6811	0.0506
801.8516	-0.0017
802.022	0.0735
802.1924	-0.0399
802.3628	0.0452
802.5332	0.1223
802.7035	0.0176
802.8739	-0.021
803.0442	-0.0308
803.2145	0.0268
803.3847	0.0303
803.555	0.0421
803.7252	-0.0243
803.8954	-0.0468
804.0656	0.0427
804.2358	-0.0109
804.4059	0.1024
804.5761	-0.0039
804.7462	0.0284
804.9163	0.0046
805.0864	-0.0205
805.2564	-0.065
805.4264	-0.0319
805.5965	0.0335
805.7665	-0.0047
805.9364	-0.0048
806.1064	0.0327
806.2763	0.0638
806.4462	0.0276
806.6161	0.0374
806.786	-0.0272
806.9559	-0.0106
807.1257	-0.0295
807.2955	0.0326
807.4653	0.0346
807.6351	-0.0273
807.8048	0.0251
807.9746	0.0125
808.1443	-0.0147
808.314	0.0667
808.4837	0.1067
808.6533	0.0094
808.8229	-0.0372
808.9926	0.0179
809.1622	0.0836
809.3317	-0.0316
809.5013	-0.1066
809.6708	0.0778
809.8403	0.0231
810.0098	-0.0408
810.1793	-0.0285
810.3488	0.0401
810.5182	0.2445
810.6876	0.0446
810.857	0.0538
811.0264	-0.0433
811.1958	0.1353
811.3651	0.0366
811.5344	0.0707
811.7037	0.0596
811.873	0.0275
812.0422	-0.0312
812.2115	0.1045
812.3807	0.0588
812.5499	0.0024
812.7191	0.0123
812.8882	-0.0334
813.0574	-0.0654
813.2265	0.0192
813.3956	0.0529
813.5646	0.0819
813.7337	-0.0001
813.9027	-0.0701
814.0718	0.0113
814.2407	0.06
814.4097	0.0817
814.5787	0.0715
814.7476	-0.0242
814.9165	-0.0046
815.0854	-0.0399
815.2543	0.082
815.4232	0.0608
815.592	0.1814
815.7608	-0.0123
815.9296	0.168
816.0984	0.1345
816.2671	-0.2156
816.4359	0.1117
816.6046	0.0946
816.7733	-0.0519
816.942	-0.0506
817.1106	0.0067
817.2793	-0.1025
817.4479	0.0069
817.6165	0.1319
817.785	0.1334
817.9536	-0.068
818.1221	0.1312
818.2906	-0.0655
818.4591	0.0273
818.6276	-0.017
818.7961	-0.0339
818.9645	0.0454
819.1329	0.0927
819.3013	-0.0732
819.4697	-0.1808
819.638	0.3067
819.8064	0.0707
819.9747	0.0593
820.143	-0.0121
820.3113	0.0425
820.4795	0.1178
820.6477	0.0669
820.816	0.0869
820.9842	0.1544
821.1523	0.0673
821.3205	0.0605
821.4886	-0.0337
821.6567	-0.0751
821.8248	0.2043
821.9929	-0.0968
822.1609	0.0238
822.329	0.0845
822.497	0.0199
822.665	0.0438
822.833	0.2016
823.0009	-0.0714
823.1688	0.0349
823.3367	-0.2241
823.5046	0.025
823.6725	0.0338
823.8404	-0.0458
824.0082	-0.0175
824.176	0.2077
824.3438	0.1584
824.5116	-0.0003
824.6793	0.1629
824.847	0.0487
825.0147	-0.1106
825.1824	0.054
825.3501	-0.1258
825.5177	-0.0207
825.6854	-0.2077
825.853	0.0554
826.0206	-0.0669
826.1881	0.1656
826.3557	-0.0408
826.5232	0.1346
826.6907	0.0603
826.8582	-0.0819
827.0257	0.1196
827.1931	-0.003
827.3605	-0.0439
827.528	-0.0808
827.6953	-0.2598
827.8627	-0.0473
828.03	0.1007
828.1974	-0.0231
828.3647	0.0862
828.532	-0.0544
828.6992	0.0837
828.8665	-0.2386
829.0337	0.06
829.2009	0.0365
829.3681	-0.025
829.5352	-0.1995
829.7024	0.1943
829.8695	-0.0115
830.0366	0.1576
830.2037	0.1126
830.3707	0.1118
830.5378	-0.0573
830.7048	-0.0957
830.8718	0.5303
831.0388	-0.0646
831.2057	-0.0469
831.3727	-0.3396
831.5396	0.0564
831.7065	-0.4755
831.8734	0.0741
832.0402	0.194
832.2071	-0.3781
832.3739	-0.1859
832.5407	-2.017
832.7075	-0.5142
832.8742	0.709
833.041	0.0353
833.2077	0.3801
833.3744	-0.1111
833.541	-0.0141
833.7077	-0.1244
833.8743	0.1661
834.0409	0.0388
834.2075	0.1381
834.3741	-0.2426
834.5407	-0.0194
834.7072	0.0243
834.8737	0.1389
835.0402	0.386
835.2067	-0.173
835.3731	0.1685
835.5395	-0.0148
835.706	0.0095
835.8723	0.0561
836.0387	0.7398
836.2051	0.2018
836.3714	-0.0924
836.5377	-0.1243
836.704	0.1312
836.8703	-0.2383
837.0365	-0.058
837.2027	0.0323
837.3689	0.2542
837.5351	0.1092
837.7013	0.1671
837.8674	-0
838.0335	-0.0721
838.1997	-0.2554
838.3657	-0
838.5318	-0.737
838.6978	-0
838.8639	0.1028
839.0299	0.3614
839.1958	0.0691
839.3618	0.446
839.5277	-0.0758
839.6937	-0.0501
839.8596	-0.247
840.0254	-0.1888
840.1913	-0.3226
840.3571	0.473
840.523	-0
840.6888	0.0183
840.8545	-0.0311
841.0203	-0.104
841.186	-0.1548
841.3517	-0.0365
841.5174	0.0156
841.6831	0.3511
841.8488	-0.1548
842.0144	1.4273
842.18	0.3069
842.3456	-0.4008
842.5112	-0
842.6767	0.014
842.8422	0.2472
843.0077	0.2391
843.1732	0.3282
843.3387	0.1772
843.5042	-0
843.6696	0.4708
843.835	-0
844.0004	0.02
844.1657	-0
844.3311	-0.5831
844.4964	-0.4217
844.6617	-0
844.827	-0
844.9923	0.0144
845.1575	0.2022
845.3227	-0.3956
845.4879	-0.42
845.6531	-0.2752
845.8183	0.1252
845.9834	0.9628
846.1485	0.6068
846.3136	-0.208
846.4787	-0
846.6438	0.5277
846.8088	-0
846.9738	-0
847.1388	0.1251
847.3038	-0.0409
847.4687	0.0989
847.6337	1.2007
847.7986	-0.2522
847.9635	-0.0217
848.1284	0.5945
848.2932	0.1927
848.458	-0
848.6228	-0.0351
848.7876	-0.0983
848.9524	-0
849.1172	-1.81
849.2819	-0.0921
849.4466	-0
849.6113	0.6264
849.7759	-0.1848
849.9406	-0.222
850.1052	-0.9668
850.2698	0.0021
850.4344	-0.6207
850.599	0.5142
850.7635	0.3486
850.928	0.3571
851.0925	0.2974
851.257	-0.1831
851.4215	-0.1019
851.5859	0.8112
851.7503	-0
851.9147	-0.2935
852.0791	-0.2133
852.2434	0.0778
852.4078	-0
852.5721	-0
852.7364	0.3718
852.9007	0.2694
853.0649	1.4023
853.2291	0.3128
853.3934	-0
853.5575	-0.0551
853.7217	-0
853.8859	0.4604
854.05	-0.1809
854.2141	0.9512
854.3782	-0
854.5423	0.5761
854.7063	0.0281
854.8703	0.2736
855.0343	-0.2486
855.1983	0.0821
855.3623	-0.1367
855.5262	-0
855.6901	0.3974
855.854	-0.0178
856.0179	-0.1791
856.1818	-0
856.3456	0.8112
856.5094	-0
856.6732	-0.4908
856.837	-1.1971
857.0008	0.1803
857.1645	0.0208
857.3282	-0.5895
857.4919	-0.0918
857.6556	-0.2272
857.8192	0.9285
857.9828	-0.2925
858.1465	-0.0723
858.31	-0
858.4736	-0.3113
858.6372	-0.4181
858.8007	0.3439
858.9642	0.2002
859.1277	0.4496
859.2911	1.3688
859.4546	-0
859.618	0.3932
859.7814	-0.4626
859.9448	-0
860.1081	0.4908
860.2715	-0.6601
860.4348	-0
860.5981	-0.0802
860.7614	-0.3935
860.9246	0.152
861.0879	-0
861.2511	-0.0819
861.4143	-0
861.5774	-0.3627
861.7406	-0
861.9037	-0
862.0668	0.2352
862.2299	-0
862.393	-0
862.556	0.6379
862.7191	-0.3947
862.8821	0.1788
863.0451	-0.1211
863.208	-0
863.371	-0.951
863.5339	0.3056
863.6968	-0
863.8597	-0.3473
864.0225	0.4289
864.1854	1.7181
864.3482	-0.1521
864.511	-0.1783
864.6737	-0
864.8365	-0
864.9992	-0
865.1619	0.057
865.3246	-1.8762
865.4873	-0.0047
865.65	0.7129
865.8126	-0
865.9752	-0.1493
866.1378	0.1224
866.3004	-0.1637
866.4629	-2.113
866.6254	-0
866.7879	-0.0786
866.9504	0.0969
867.1129	0.226
867.2753	-0.2698
867.4377	0.1203
867.6001	0.8002
867.7625	-0.0223
867.9249	-0.2105
868.0872	0.2343
868.2495	-0
868.4118	-0
868.5741	-0.2882
868.7363	-1.0385
868.8986	-0
869.0608	-0.5952
869.223	-0.4868
869.3851	-0
869.5473	0.2173
869.7094	-0
869.8715	-0
870.0336	0.0277
870.1957	-0.5208
870.3577	0.1357
870.5197	0.2123
870.6817	-0.5173
870.8437	0.0754
871.0057	-0
871.1676	0.0571
871.3295	-0
871.4914	-1.6191
871.6533	-0.1356
871.8151	0.9364
871.977	-0.3716
872.1388	0.1562
872.3006	0.1145
872.4623	-0
872.6241	0.1401
872.7858	-0
872.9475	0.7416
873.1092	0.193
873.2709	0.4231
873.4325	-1.8841
873.5941	0.0969
873.7557	-0
873.9173	0.9068
874.0789	0.8299
874.2404	-0
874.4019	-0.0777
874.5634	-0
874.7249	-0
874.8863	0.0021
875.0478	-0.2554
875.2092	-0
875.3706	0.6482
875.5319	-0
875.6933	-0
875.8546	-0
876.0159	0.2804
876.1772	1.1576
876.3385	-0
876.4997	0.5142
876.6609	-0.2034
876.8221	-0
876.9833	-0.1591
877.1445	0.0323
877.3056	-0
877.4667	-0.3317
877.6278	-0
877.7889	0.3734
877.9499	-0.0854
878.111	-0.5739
878.272	-0.0784
878.433	0.2063
878.5939	0.7216
878.7549	0.4073
878.9158	-0
879.0767	0.0015
879.2376	0.5355
879.3984	1.5459
879.5593	-0
879.7201	-0.6601
879.8809	0.9978
880.0417	-0.3902
880.2024	0.2515
880.3632	-0.2299
880.5239	0.7461
880.6846	0.2646
880.8452	-0.1948
881.0059	-0.0138
881.1665	0.7855
881.3271	0.4448
881.4877	0.1812
881.6483	-1.1977
881.8088	-0
881.9693	-0.9737
882.1298	-0.9737
882.2903	-0.9737
