Data from D4ACN5uM440nmA_Absorbance_13-50-26-572.txt Node
Date: Fri Feb 21 13:50:26 GMT 2025
User: LASERRRRR
Spectrometer: FLMT03099
Trigger mode: 0
Integration Time (sec): 1.500000E-2
Scans to average: 1
Electric dark correction enabled: true
Nonlinearity correction enabled: false
Boxcar width: 0
XAxis mode: Wavelengths
Number of Pixels in Spectrum: 3648
>>>>>Begin Spectral Data<<<<<
179.3399	-0.6441
179.5586	-0.6441
179.7771	-0.6441
179.9957	-0.2884
180.2143	-1.1592
180.4329	-0.0614
180.6514	-0.3951
180.8699	-0.1148
181.0885	0.0987
181.307	-0.051
181.5255	0.3163
181.744	-0.0069
181.9625	0.81
182.181	-0
182.3994	-0
182.6179	-0
182.8363	-0.1039
183.0547	0.7629
183.2732	-0.0186
183.4916	0.2141
183.71	0.1007
183.9284	0.2227
184.1467	0.4565
184.3651	0.0804
184.5835	0.1429
184.8018	0.1066
185.0201	0.6218
185.2385	0.2075
185.4568	0.2313
185.6751	0.1588
185.8934	0.0266
186.1117	0.0497
186.3299	0.2799
186.5482	0.195
186.7664	0.3303
186.9847	0.2435
187.2029	0.2916
187.4211	0.2489
187.6393	0.2522
187.8575	0.0356
188.0757	0.4017
188.2939	0.0454
188.512	0.3121
188.7302	0.2934
188.9483	0.2424
189.1665	1.2468
189.3846	0.1436
189.6027	0.0767
189.8208	0.1524
190.0389	0.3059
190.257	0.1712
190.475	0.054
190.6931	0.1148
190.9111	0.0787
191.1292	0.1538
191.3472	0.0719
191.5652	0.2072
191.7832	0.1909
192.0012	0.1839
192.2192	0.2284
192.4371	0.1779
192.6551	0.2257
192.873	0.1612
193.091	0.1852
193.3089	0.236
193.5268	0.2608
193.7447	0.3307
193.9626	0.2246
194.1805	0.2428
194.3984	0.2541
194.6162	0.3118
194.8341	0.3635
195.0519	0.2047
195.2697	0.3176
195.4875	0.2827
195.7054	0.2495
195.9231	0.1802
196.1409	0.2758
196.3587	0.4101
196.5765	0.3159
196.7942	0.3271
197.012	0.3167
197.2297	0.3649
197.4474	0.3721
197.6651	0.3337
197.8828	0.3693
198.1005	0.3749
198.3182	0.4464
198.5358	0.3872
198.7535	0.366
198.9711	0.4429
199.1888	0.3572
199.4064	0.3888
199.624	0.4579
199.8416	0.3986
200.0592	0.3808
200.2767	0.3973
200.4943	0.4114
200.7119	0.4158
200.9294	0.3578
201.1469	0.41
201.3645	0.4363
201.582	0.4222
201.7995	0.4456
202.017	0.3851
202.2344	0.4591
202.4519	0.3817
202.6694	0.3646
202.8868	0.363
203.1042	0.4229
203.3217	0.4212
203.5391	0.397
203.7565	0.3705
203.9739	0.3571
204.1913	0.3498
204.4086	0.3429
204.626	0.3674
204.8433	0.373
205.0607	0.3661
205.278	0.3428
205.4953	0.3607
205.7126	0.3394
205.9299	0.3133
206.1472	0.308
206.3644	0.3522
206.5817	0.3326
206.7989	0.3421
207.0162	0.2917
207.2334	0.3462
207.4506	0.3056
207.6678	0.3219
207.885	0.2948
208.1022	0.3115
208.3194	0.3054
208.5365	0.2912
208.7537	0.2767
208.9708	0.2897
209.1879	0.2897
209.405	0.2795
209.6222	0.2584
209.8392	0.2844
210.0563	0.2752
210.2734	0.2724
210.4905	0.2749
210.7075	0.2658
210.9245	0.2462
211.1416	0.2768
211.3586	0.2641
211.5756	0.2704
211.7926	0.2637
212.0096	0.2934
212.2265	0.2568
212.4435	0.2338
212.6604	0.2609
212.8774	0.2483
213.0943	0.2614
213.3112	0.2445
213.5281	0.2469
213.745	0.2418
213.9619	0.2376
214.1788	0.2396
214.3956	0.2322
214.6125	0.2442
214.8293	0.2391
215.0461	0.242
215.2629	0.2641
215.4798	0.241
215.6965	0.2577
215.9133	0.2299
216.1301	0.2478
216.3469	0.2556
216.5636	0.2354
216.7803	0.2562
216.9971	0.2484
217.2138	0.2475
217.4305	0.2639
217.6472	0.2469
217.8639	0.2563
218.0805	0.2417
218.2972	0.2455
218.5138	0.2559
218.7305	0.2662
218.9471	0.2444
219.1637	0.2648
219.3803	0.2639
219.5969	0.2433
219.8135	0.2651
220.0301	0.2575
220.2466	0.2514
220.4632	0.2546
220.6797	0.2612
220.8962	0.2613
221.1127	0.26
221.3292	0.2697
221.5457	0.2584
221.7622	0.2552
221.9787	0.2818
222.1951	0.2715
222.4116	0.2795
222.628	0.2825
222.8444	0.2772
223.0608	0.2762
223.2772	0.28
223.4936	0.2692
223.71	0.2847
223.9264	0.301
224.1427	0.2813
224.3591	0.2953
224.5754	0.2902
224.7917	0.294
225.008	0.2895
225.2243	0.3036
225.4406	0.3031
225.6569	0.3054
225.8732	0.3007
226.0894	0.3057
226.3057	0.3047
226.5219	0.3134
226.7381	0.3262
226.9543	0.3079
227.1705	0.3232
227.3867	0.3152
227.6029	0.3179
227.8191	0.3429
228.0352	0.3292
228.2513	0.344
228.4675	0.3279
228.6836	0.3339
228.8997	0.3407
229.1158	0.3524
229.3319	0.3592
229.548	0.3589
229.764	0.3563
229.9801	0.3789
230.1961	0.378
230.4121	0.3684
230.6282	0.3859
230.8442	0.3786
231.0602	0.3782
231.2761	0.3859
231.4921	0.3834
231.7081	0.3864
231.924	0.398
232.14	0.3938
232.3559	0.4022
232.5718	0.4117
232.7877	0.404
233.0036	0.4048
233.2195	0.408
233.4353	0.4166
233.6512	0.4191
233.867	0.4247
234.0829	0.4293
234.2987	0.4297
234.5145	0.434
234.7303	0.4349
234.9461	0.4341
235.1619	0.4389
235.3776	0.4257
235.5934	0.4247
235.8091	0.4384
236.0249	0.4546
236.2406	0.4483
236.4563	0.4436
236.672	0.4396
236.8877	0.4498
237.1034	0.446
237.319	0.4429
237.5347	0.4453
237.7503	0.4511
237.966	0.4638
238.1816	0.4601
238.3972	0.4562
238.6128	0.4613
238.8284	0.4555
239.0439	0.465
239.2595	0.4615
239.475	0.4614
239.6906	0.4481
239.9061	0.4566
240.1216	0.4663
240.3371	0.4655
240.5526	0.4625
240.7681	0.4553
240.9836	0.4598
241.199	0.463
241.4145	0.4487
241.6299	0.4567
241.8453	0.4432
242.0607	0.448
242.2761	0.4374
242.4915	0.4307
242.7069	0.4249
242.9223	0.4236
243.1376	0.4104
243.353	0.4111
243.5683	0.4017
243.7836	0.3959
243.9989	0.3833
244.2142	0.3853
244.4295	0.3706
244.6448	0.3748
244.86	0.3538
245.0753	0.3598
245.2905	0.3432
245.5057	0.34
245.721	0.3326
245.9362	0.3319
246.1514	0.3182
246.3665	0.318
246.5817	0.3067
246.7969	0.2991
247.012	0.2887
247.2271	0.3006
247.4423	0.2877
247.6574	0.2822
247.8725	0.2783
248.0876	0.2718
248.3026	0.2682
248.5177	0.2558
248.7328	0.2543
248.9478	0.2557
249.1628	0.2515
249.3779	0.2422
249.5929	0.2399
249.8079	0.245
250.0228	0.233
250.2378	0.2328
250.4528	0.2273
250.6677	0.2258
250.8827	0.2178
251.0976	0.2174
251.3125	0.2129
251.5274	0.2112
251.7423	0.2068
251.9572	0.2153
252.172	0.202
252.3869	0.2111
252.6017	0.2045
252.8166	0.2012
253.0314	0.2
253.2462	0.1996
253.461	0.1953
253.6758	0.194
253.8906	0.1983
254.1053	0.1911
254.3201	0.193
254.5348	0.189
254.7496	0.1878
254.9643	0.187
255.179	0.1821
255.3937	0.1888
255.6083	0.1921
255.823	0.1823
256.0377	0.1762
256.2523	0.1838
256.467	0.1856
256.6816	0.1831
256.8962	0.1863
257.1108	0.1795
257.3254	0.1846
257.54	0.1785
257.7545	0.1845
257.9691	0.1713
258.1836	0.1834
258.3981	0.1828
258.6127	0.1772
258.8272	0.1823
259.0417	0.1766
259.2561	0.1716
259.4706	0.1729
259.6851	0.1744
259.8995	0.1741
260.114	0.1806
260.3284	0.1698
260.5428	0.1766
260.7572	0.1796
260.9716	0.1819
261.186	0.1786
261.4003	0.1809
261.6147	0.1762
261.829	0.1784
262.0433	0.1743
262.2577	0.1794
262.472	0.1787
262.6863	0.1846
262.9005	0.1805
263.1148	0.176
263.3291	0.1816
263.5433	0.1854
263.7576	0.1809
263.9718	0.185
264.186	0.1872
264.4002	0.1897
264.6144	0.1892
264.8286	0.1833
265.0427	0.1886
265.2569	0.1927
265.471	0.1893
265.6851	0.1859
265.8993	0.185
266.1134	0.1871
266.3275	0.1859
266.5415	0.1909
266.7556	0.191
266.9697	0.189
267.1837	0.1874
267.3978	0.1854
267.6118	0.1828
267.8258	0.191
268.0398	0.1861
268.2538	0.1941
268.4677	0.1826
268.6817	0.1819
268.8957	0.1773
269.1096	0.1834
269.3235	0.1847
269.5374	0.1878
269.7514	0.182
269.9652	0.1793
270.1791	0.1783
270.393	0.1823
270.6068	0.187
270.8207	0.1781
271.0345	0.178
271.2483	0.1779
271.4622	0.1808
271.676	0.1847
271.8897	0.1824
272.1035	0.1813
272.3173	0.1781
272.531	0.1773
272.7448	0.1802
272.9585	0.1783
273.1722	0.1831
273.3859	0.1843
273.5996	0.1766
273.8133	0.185
274.0269	0.179
274.2406	0.1861
274.4542	0.1837
274.6679	0.1838
274.8815	0.1886
275.0951	0.1926
275.3087	0.1891
275.5223	0.187
275.7358	0.1891
275.9494	0.1921
276.1629	0.1944
276.3765	0.1933
276.59	0.189
276.8035	0.1904
277.017	0.1942
277.2305	0.1992
277.444	0.1958
277.6574	0.1916
277.8709	0.2015
278.0843	0.1966
278.2978	0.1981
278.5112	0.2014
278.7246	0.189
278.938	0.1942
279.1513	0.1945
279.3647	0.1956
279.5781	0.1906
279.7914	0.1877
280.0047	0.191
280.2181	0.1864
280.4314	0.1862
280.6447	0.1938
280.8579	0.1863
281.0712	0.1859
281.2845	0.1856
281.4977	0.1892
281.711	0.1864
281.9242	0.187
282.1374	0.1915
282.3506	0.1919
282.5638	0.1824
282.7769	0.1833
282.9901	0.1885
283.2033	0.1891
283.4164	0.1883
283.6295	0.1853
283.8426	0.1837
284.0557	0.1881
284.2688	0.1841
284.4819	0.1873
284.695	0.1862
284.908	0.1941
285.1211	0.1859
285.3341	0.1861
285.5471	0.1865
285.7601	0.1848
285.9731	0.1878
286.1861	0.1859
286.3991	0.1856
286.612	0.1864
286.825	0.1859
287.0379	0.1879
287.2508	0.1852
287.4637	0.1846
287.6766	0.1873
287.8895	0.186
288.1024	0.1894
288.3152	0.1886
288.5281	0.1801
288.7409	0.1911
288.9538	0.1906
289.1666	0.1846
289.3794	0.1837
289.5922	0.1894
289.8049	0.1885
290.0177	0.1867
290.2304	0.1827
290.4432	0.1911
290.6559	0.1883
290.8686	0.189
291.0813	0.1827
291.294	0.1857
291.5067	0.1793
291.7194	0.1904
291.932	0.1841
292.1447	0.1871
292.3573	0.1854
292.5699	0.193
292.7825	0.1843
292.9951	0.19
293.2077	0.179
293.4203	0.1888
293.6328	0.1837
293.8454	0.1893
294.0579	0.1849
294.2704	0.1884
294.4829	0.1834
294.6954	0.1877
294.9079	0.1815
295.1204	0.1758
295.3328	0.1864
295.5453	0.182
295.7577	0.1901
295.9701	0.1858
296.1825	0.1803
296.3949	0.1817
296.6073	0.1853
296.8197	0.1869
297.0321	0.1877
297.2444	0.1819
297.4567	0.1894
297.6691	0.1837
297.8814	0.1867
298.0937	0.1829
298.306	0.1847
298.5182	0.1891
298.7305	0.1894
298.9428	0.183
299.155	0.1839
299.3672	0.1884
299.5794	0.1852
299.7916	0.1835
300.0038	0.1839
300.216	0.1862
300.4282	0.1858
300.6403	0.1913
300.8525	0.1871
301.0646	0.1869
301.2767	0.1859
301.4888	0.1869
301.7009	0.1874
301.913	0.1933
302.125	0.1873
302.3371	0.1889
302.5491	0.1846
302.7612	0.1948
302.9732	0.19
303.1852	0.1874
303.3972	0.1868
303.6092	0.1858
303.8211	0.1837
304.0331	0.1789
304.245	0.1901
304.457	0.1873
304.6689	0.1847
304.8808	0.1787
305.0927	0.1846
305.3046	0.1779
305.5164	0.1834
305.7283	0.1823
305.9401	0.1761
306.152	0.1731
306.3638	0.1775
306.5756	0.1803
306.7874	0.1738
306.9992	0.1708
307.2109	0.1668
307.4227	0.1632
307.6344	0.1736
307.8462	0.1671
308.0579	0.1689
308.2696	0.1654
308.4813	0.1659
308.693	0.1583
308.9046	0.1632
309.1163	0.1548
309.328	0.1594
309.5396	0.1573
309.7512	0.1534
309.9628	0.1574
310.1744	0.1486
310.386	0.149
310.5976	0.1484
310.8091	0.1506
311.0207	0.1484
311.2322	0.1478
311.4437	0.1426
311.6552	0.1472
311.8667	0.1486
312.0782	0.1438
312.2897	0.1468
312.5012	0.1393
312.7126	0.1347
312.924	0.1477
313.1355	0.1389
313.3469	0.1379
313.5583	0.1374
313.7696	0.1324
313.981	0.1439
314.1924	0.1358
314.4037	0.1363
314.6151	0.1377
314.8264	0.1409
315.0377	0.1345
315.249	0.1389
315.4603	0.129
315.6716	0.1396
315.8828	0.1362
316.0941	0.1365
316.3053	0.1301
316.5165	0.1319
316.7277	0.1295
316.9389	0.1357
317.1501	0.129
317.3613	0.1337
317.5724	0.1308
317.7836	0.1288
317.9947	0.1282
318.2058	0.1305
318.417	0.1299
318.6281	0.124
318.8391	0.1292
319.0502	0.13
319.2613	0.1314
319.4723	0.1277
319.6834	0.1339
319.8944	0.1307
320.1054	0.1301
320.3164	0.1263
320.5274	0.1312
320.7383	0.1311
320.9493	0.1268
321.1602	0.1272
321.3712	0.1319
321.5821	0.1288
321.793	0.1344
322.0039	0.1358
322.2148	0.1336
322.4257	0.1271
322.6365	0.131
322.8474	0.1333
323.0582	0.13
323.269	0.1341
323.4798	0.1319
323.6906	0.1286
323.9014	0.1288
324.1122	0.1296
324.3229	0.1381
324.5337	0.1386
324.7444	0.1331
324.9551	0.1363
325.1658	0.1378
325.3765	0.1332
325.5872	0.1317
325.7979	0.1357
326.0085	0.1298
326.2192	0.1334
326.4298	0.1427
326.6404	0.1373
326.851	0.1322
327.0616	0.1347
327.2722	0.1402
327.4828	0.1316
327.6933	0.1475
327.9039	0.1378
328.1144	0.1395
328.3249	0.1487
328.5354	0.1424
328.7459	0.1425
328.9564	0.1415
329.1669	0.1414
329.3773	0.1458
329.5878	0.1438
329.7982	0.1437
330.0086	0.1422
330.219	0.1462
330.4294	0.1439
330.6398	0.1434
330.8502	0.1495
331.0605	0.143
331.2708	0.141
331.4812	0.1422
331.6915	0.1477
331.9018	0.1452
332.1121	0.1537
332.3224	0.1456
332.5326	0.1404
332.7429	0.1407
332.9531	0.1492
333.1633	0.1437
333.3735	0.141
333.5837	0.1468
333.7939	0.1412
334.0041	0.15
334.2143	0.1427
334.4244	0.1498
334.6346	0.1412
334.8447	0.1401
335.0548	0.1516
335.2649	0.1497
335.475	0.1471
335.685	0.147
335.8951	0.1443
336.1051	0.1466
336.3152	0.1518
336.5252	0.1465
336.7352	0.1414
336.9452	0.1505
337.1552	0.1465
337.3652	0.1419
337.5751	0.1408
337.7851	0.1458
337.995	0.1542
338.2049	0.1463
338.4148	0.1448
338.6247	0.1513
338.8346	0.1434
339.0445	0.1469
339.2543	0.1448
339.4642	0.146
339.674	0.1453
339.8838	0.1411
340.0936	0.1414
340.3034	0.1476
340.5132	0.1385
340.7229	0.1522
340.9327	0.1465
341.1424	0.1484
341.3522	0.1508
341.5619	0.153
341.7716	0.1566
341.9813	0.1564
342.1909	0.1563
342.4006	0.1607
342.6102	0.1528
342.8199	0.1574
343.0295	0.1484
343.2391	0.1537
343.4487	0.1574
343.6583	0.164
343.8679	0.1553
344.0774	0.152
344.287	0.1603
344.4965	0.163
344.706	0.166
344.9155	0.1625
345.125	0.1593
345.3345	0.1693
345.544	0.1672
345.7534	0.1614
345.9629	0.1621
346.1723	0.1668
346.3817	0.1687
346.5911	0.174
346.8005	0.1768
347.0099	0.1772
347.2193	0.1717
347.4286	0.1779
347.638	0.1759
347.8473	0.1726
348.0566	0.1793
348.2659	0.1782
348.4752	0.1754
348.6845	0.1779
348.8937	0.1776
349.103	0.1731
349.3122	0.1697
349.5214	0.1832
349.7306	0.183
349.9398	0.1796
350.149	0.1722
350.3582	0.1809
350.5674	0.1824
350.7765	0.1847
350.9856	0.1767
351.1948	0.1801
351.4039	0.1811
351.613	0.1823
351.822	0.1854
352.0311	0.1787
352.2402	0.1875
352.4492	0.1766
352.6582	0.1868
352.8672	0.1817
353.0762	0.1879
353.2852	0.1824
353.4942	0.1942
353.7032	0.1773
353.9121	0.1793
354.1211	0.1852
354.33	0.1836
354.5389	0.181
354.7478	0.1779
354.9567	0.1804
355.1655	0.1818
355.3744	0.1807
355.5833	0.1803
355.7921	0.1894
356.0009	0.1848
356.2097	0.1841
356.4185	0.1815
356.6273	0.1843
356.8361	0.1814
357.0448	0.1909
357.2536	0.1811
357.4623	0.1888
357.671	0.1901
357.8797	0.1906
358.0884	0.1924
358.2971	0.1882
358.5057	0.1852
358.7144	0.1874
358.923	0.1934
359.1316	0.1983
359.3402	0.1862
359.5488	0.1845
359.7574	0.1985
359.966	0.1939
360.1746	0.1945
360.3831	0.1947
360.5916	0.1969
360.8002	0.201
361.0087	0.1934
361.2172	0.1991
361.4256	0.1984
361.6341	0.1924
361.8426	0.21
362.051	0.2047
362.2594	0.1977
362.4678	0.2088
362.6762	0.2047
362.8846	0.2074
363.093	0.2045
363.3014	0.2091
363.5097	0.2085
363.718	0.2165
363.9264	0.2026
364.1347	0.2125
364.343	0.2118
364.5513	0.2108
364.7595	0.2174
364.9678	0.2128
365.176	0.2133
365.3842	0.2244
365.5925	0.2117
365.8007	0.2128
366.0089	0.2201
366.217	0.2152
366.4252	0.2167
366.6333	0.2176
366.8415	0.2216
367.0496	0.2182
367.2577	0.2188
367.4658	0.2217
367.6739	0.2232
367.882	0.2247
368.09	0.2187
368.2981	0.2277
368.5061	0.2246
368.7141	0.2224
368.9221	0.2411
369.1301	0.2316
369.3381	0.2352
369.5461	0.23
369.754	0.2337
369.962	0.2326
370.1699	0.2359
370.3778	0.2452
370.5857	0.232
370.7936	0.2409
371.0015	0.2345
371.2093	0.2406
371.4172	0.2346
371.625	0.2334
371.8328	0.2324
372.0406	0.243
372.2484	0.2384
372.4562	0.2338
372.664	0.2445
372.8717	0.242
373.0795	0.246
373.2872	0.2423
373.4949	0.2488
373.7026	0.2417
373.9103	0.2406
374.118	0.2472
374.3256	0.2521
374.5333	0.2466
374.7409	0.2455
374.9485	0.2497
375.1561	0.2538
375.3637	0.2406
375.5713	0.2517
375.7789	0.2501
375.9864	0.2534
376.194	0.2592
376.4015	0.2528
376.609	0.253
376.8165	0.2614
377.024	0.2548
377.2315	0.2565
377.4389	0.2449
377.6464	0.262
377.8538	0.2625
378.0612	0.266
378.2686	0.2602
378.476	0.2655
378.6834	0.2594
378.8908	0.2648
379.0981	0.2658
379.3055	0.2649
379.5128	0.2554
379.7201	0.2707
379.9274	0.2699
380.1347	0.2636
380.342	0.2682
380.5492	0.2666
380.7565	0.2631
380.9637	0.2702
381.1709	0.2661
381.3781	0.2674
381.5853	0.2626
381.7925	0.2665
381.9997	0.266
382.2068	0.2697
382.4139	0.269
382.6211	0.2761
382.8282	0.2797
383.0353	0.2763
383.2424	0.2678
383.4494	0.2758
383.6565	0.2728
383.8635	0.2689
384.0706	0.2798
384.2776	0.2732
384.4846	0.2811
384.6916	0.2776
384.8986	0.2738
385.1055	0.2797
385.3125	0.2735
385.5194	0.2799
385.7263	0.274
385.9333	0.285
386.1402	0.2866
386.347	0.2741
386.5539	0.2727
386.7608	0.2764
386.9676	0.27
387.1744	0.2701
387.3813	0.2727
387.5881	0.2739
387.7948	0.2778
388.0016	0.2823
388.2084	0.2662
388.4151	0.2803
388.6219	0.267
388.8286	0.2814
389.0353	0.2799
389.242	0.269
389.4487	0.2634
389.6553	0.2604
389.862	0.2653
390.0686	0.2794
390.2753	0.2704
390.4819	0.2745
390.6885	0.2657
390.8951	0.267
391.1016	0.2785
391.3082	0.264
391.5147	0.2639
391.7213	0.2563
391.9278	0.2596
392.1343	0.2622
392.3408	0.2638
392.5473	0.2622
392.7537	0.2642
392.9602	0.2524
393.1666	0.2585
393.373	0.2451
393.5794	0.2479
393.7858	0.2625
393.9922	0.2527
394.1986	0.2514
394.4049	0.2546
394.6113	0.2517
394.8176	0.2492
395.0239	0.2473
395.2302	0.2502
395.4365	0.2483
395.6428	0.2463
395.8491	0.2514
396.0553	0.2378
396.2615	0.2438
396.4678	0.2438
396.674	0.2416
396.8802	0.2386
397.0863	0.238
397.2925	0.2459
397.4987	0.234
397.7048	0.2393
397.9109	0.2377
398.117	0.2347
398.3231	0.2414
398.5292	0.2351
398.7353	0.2261
398.9413	0.231
399.1474	0.2342
399.3534	0.2399
399.5594	0.2412
399.7654	0.2366
399.9714	0.2325
400.1774	0.2271
400.3833	0.2275
400.5893	0.2386
400.7952	0.2332
401.0011	0.2361
401.207	0.2328
401.4129	0.2343
401.6188	0.2356
401.8247	0.2431
402.0305	0.23
402.2364	0.2335
402.4422	0.2342
402.648	0.2339
402.8538	0.231
403.0596	0.2256
403.2654	0.2315
403.4711	0.2336
403.6768	0.2314
403.8826	0.2371
404.0883	0.2203
404.294	0.223
404.4997	0.2313
404.7054	0.2345
404.911	0.2266
405.1167	0.2317
405.3223	0.2271
405.5279	0.2307
405.7335	0.2291
405.9391	0.2289
406.1447	0.2337
406.3502	0.2258
406.5558	0.2252
406.7613	0.2338
406.9668	0.2301
407.1724	0.232
407.3778	0.2259
407.5833	0.2246
407.7888	0.2396
407.9942	0.2217
408.1997	0.2299
408.4051	0.2246
408.6105	0.2296
408.8159	0.2282
409.0213	0.2348
409.2267	0.2379
409.432	0.2333
409.6374	0.2263
409.8427	0.2384
410.048	0.2268
410.2533	0.2287
410.4586	0.2269
410.6639	0.2316
410.8691	0.2286
411.0744	0.2257
411.2796	0.2206
411.4848	0.2427
411.69	0.2227
411.8952	0.232
412.1004	0.2303
412.3056	0.2172
412.5107	0.2257
412.7158	0.2344
412.921	0.2331
413.1261	0.2244
413.3312	0.2299
413.5362	0.245
413.7413	0.2256
413.9464	0.2282
414.1514	0.2172
414.3564	0.2136
414.5614	0.233
414.7664	0.2207
414.9714	0.2208
415.1764	0.2212
415.3813	0.2183
415.5863	0.2289
415.7912	0.2237
415.9961	0.2262
416.201	0.2337
416.4059	0.235
416.6108	0.2243
416.8156	0.2226
417.0205	0.2192
417.2253	0.2206
417.4301	0.2197
417.6349	0.2217
417.8397	0.2227
418.0445	0.2195
418.2492	0.2123
418.454	0.2177
418.6587	0.2282
418.8634	0.2158
419.0681	0.2179
419.2728	0.2275
419.4775	0.2249
419.6822	0.2103
419.8868	0.2076
420.0915	0.218
420.2961	0.2115
420.5007	0.2131
420.7053	0.2162
420.9099	0.2204
421.1144	0.2133
421.319	0.2115
421.5235	0.2088
421.728	0.2168
421.9325	0.2108
422.137	0.2032
422.3415	0.2045
422.546	0.2059
422.7504	0.208
422.9549	0.2188
423.1593	0.1997
423.3637	0.2084
423.5681	0.2096
423.7725	0.2087
423.9769	0.1999
424.1812	0.1954
424.3856	0.2002
424.5899	0.1987
424.7942	0.2041
424.9985	0.1919
425.2028	0.208
425.4071	0.1935
425.6113	0.1957
425.8156	0.1932
426.0198	0.2037
426.224	0.2007
426.4282	0.1966
426.6324	0.1983
426.8366	0.1872
427.0407	0.1914
427.2449	0.1806
427.449	0.1882
427.6531	0.1942
427.8572	0.1931
428.0613	0.195
428.2654	0.1778
428.4694	0.1695
428.6735	0.1703
428.8775	0.1833
429.0815	0.1818
429.2855	0.1783
429.4895	0.1744
429.6935	0.1705
429.8975	0.1701
430.1014	0.1805
430.3053	0.1797
430.5093	0.1612
430.7132	0.1639
430.9171	0.1622
431.1209	0.1671
431.3248	0.1566
431.5286	0.1568
431.7325	0.1688
431.9363	0.1658
432.1401	0.1557
432.3439	0.1684
432.5477	0.1536
432.7514	0.1469
432.9552	0.1577
433.1589	0.1476
433.3627	0.1452
433.5664	0.1503
433.7701	0.1398
433.9737	0.1494
434.1774	0.1477
434.3811	0.1371
434.5847	0.1369
434.7883	0.1333
434.9919	0.1334
435.1955	0.1409
435.3991	0.1364
435.6027	0.1294
435.8062	0.143
436.0098	0.135
436.2133	0.1344
436.4168	0.1267
436.6203	0.1171
436.8238	0.1225
437.0272	0.1198
437.2307	0.1206
437.4341	0.1292
437.6375	0.122
437.841	0.121
438.0443	0.1186
438.2477	0.1103
438.4511	0.1063
438.6545	0.1159
438.8578	0.1104
439.0611	0.1211
439.2644	0.1144
439.4677	0.1017
439.671	0.1071
439.8743	0.1005
440.0775	0.0986
440.2808	0.0993
440.484	0.0965
440.6872	0.0983
440.8904	0.0865
441.0936	0.0931
441.2967	0.0789
441.4999	0.0794
441.703	0.0856
441.9062	0.0949
442.1093	0.0948
442.3124	0.0846
442.5155	0.0845
442.7185	0.0815
442.9216	0.0841
443.1246	0.0804
443.3276	0.0767
443.5307	0.0776
443.7337	0.0752
443.9366	0.0664
444.1396	0.068
444.3426	0.0726
444.5455	0.0763
444.7484	0.0654
444.9513	0.0659
445.1542	0.0699
445.3571	0.0678
445.56	0.0606
445.7628	0.0648
445.9657	0.066
446.1685	0.0724
446.3713	0.0701
446.5741	0.0651
446.7769	0.067
446.9797	0.0595
447.1824	0.0604
447.3852	0.0453
447.5879	0.0488
447.7906	0.0488
447.9933	0.0547
448.196	0.0477
448.3986	0.0525
448.6013	0.0412
448.8039	0.0459
449.0066	0.0589
449.2092	0.056
449.4118	0.0538
449.6143	0.0657
449.8169	0.0419
450.0195	0.0517
450.222	0.0455
450.4245	0.053
450.627	0.0469
450.8295	0.0382
451.032	0.0376
451.2345	0.0343
451.4369	0.0397
451.6394	0.0415
451.8418	0.0407
452.0442	0.0421
452.2466	0.0278
452.449	0.0391
452.6513	0.0345
452.8537	0.0314
453.056	0.0348
453.2583	0.0371
453.4607	0.0302
453.663	0.0405
453.8652	0.0242
454.0675	0.0354
454.2697	0.0226
454.472	0.0192
454.6742	0.0343
454.8764	0.0382
455.0786	0.0284
455.2808	0.0261
455.4829	0.031
455.6851	0.0239
455.8872	0.0203
456.0893	0.0202
456.2915	0.017
456.4935	0.0351
456.6956	0.0199
456.8977	0.0173
457.0997	0.033
457.3018	0.0177
457.5038	0.0245
457.7058	0.0305
457.9078	0.0214
458.1098	0.0299
458.3117	0.0254
458.5137	0.0088
458.7156	0.0169
458.9175	0.0259
459.1194	0.0141
459.3213	0.0096
459.5232	0.0201
459.725	0.0197
459.9269	0.0174
460.1287	0.0129
460.3305	0.0211
460.5323	0.0178
460.7341	0.0153
460.9359	0.0129
461.1376	0.0156
461.3394	0.0223
461.5411	0.0265
461.7428	0.0108
461.9445	0.0122
462.1462	0.0129
462.3479	0.0144
462.5495	0.0207
462.7512	0.0267
462.9528	0.0128
463.1544	0.0136
463.356	0.0095
463.5576	0.0256
463.7592	0.0201
463.9607	0.0125
464.1623	0.006
464.3638	0.0097
464.5653	0.0149
464.7668	0.0198
464.9683	0.0172
465.1697	0.0155
465.3712	0.0051
465.5726	0.0184
465.7741	0.0158
465.9755	0.0145
466.1769	0.0073
466.3782	0.0118
466.5796	0.0188
466.7809	0.0196
466.9823	0.0049
467.1836	0.0109
467.3849	0.0133
467.5862	0.0034
467.7875	0.0113
467.9887	0.0082
468.19	0.0083
468.3912	0.0166
468.5924	0.0024
468.7936	0.0112
468.9948	0.0077
469.196	0.0002
469.3972	0.0084
469.5983	0.0067
469.7994	0.0149
470.0006	0.0147
470.2017	0.0035
470.4027	0.0281
470.6038	0.0036
470.8049	0.0065
471.0059	0.0061
471.2069	0.0124
471.408	0.012
471.6089	0.0101
471.8099	0.0047
472.0109	0.0036
472.2119	0.0115
472.4128	0.0122
472.6137	-0.0018
472.8146	0.0049
473.0155	0.0172
473.2164	0.0067
473.4173	-0.0019
473.6181	-0.0061
473.819	0.001
474.0198	-0.0022
474.2206	-0.0042
474.4214	0.008
474.6222	-0.0072
474.8229	0.0013
475.0237	0.0078
475.2244	0.01
475.4251	0.0014
475.6258	0.0043
475.8265	0.0048
476.0272	0.0048
476.2278	0.0104
476.4285	0.0034
476.6291	0.004
476.8297	0.0095
477.0303	-0.0083
477.2309	-0.0031
477.4315	0.0003
477.632	-0.0007
477.8326	0.01
478.0331	0.0076
478.2336	-0.001
478.4341	0.0029
478.6346	-0.0011
478.8351	0.0023
479.0355	0.0071
479.236	0.0131
479.4364	-0.0014
479.6368	0.003
479.8372	0.0018
480.0376	0.0112
480.2379	-0.0011
480.4383	0.0063
480.6386	-0.0044
480.8389	0.0002
481.0392	0.0047
481.2395	0.0068
481.4398	0.0079
481.6401	-0.0003
481.8403	0.0027
482.0405	0.0043
482.2408	0.0012
482.441	0.0094
482.6411	0.0013
482.8413	-0.0048
483.0415	0.0102
483.2416	0.0075
483.4417	0.0021
483.6419	0.005
483.8419	0.003
484.042	0.0013
484.2421	-0.0032
484.4422	0.0021
484.6422	0.0028
484.8422	0.0023
485.0422	0.0026
485.2422	0.003
485.4422	0.0065
485.6422	0.0021
485.8421	0.0028
486.042	0.0095
486.242	0.0007
486.4419	0.0038
486.6417	0.003
486.8416	0.004
487.0415	0.0018
487.2413	0.0017
487.4411	0.003
487.641	-0.0016
487.8408	0.007
488.0405	-0
488.2403	0.0023
488.4401	0.0014
488.6398	0.0101
488.8395	0.0025
489.0392	0.0029
489.2389	-0.0029
489.4386	-0.0133
489.6383	0.007
489.8379	0.0033
490.0376	0.0041
490.2372	0.0037
490.4368	-0.0021
490.6364	-0.0111
490.836	-0.0006
491.0355	-0.005
491.2351	0.0004
491.4346	0.0004
491.6341	-0.0025
491.8336	0.0024
492.0331	0.0028
492.2326	0.0033
492.432	0.0004
492.6315	0.0067
492.8309	0.0073
493.0303	-0.0006
493.2297	0.0018
493.4291	-0.0048
493.6284	0.0044
493.8278	0.0002
494.0271	0.003
494.2264	-0.0056
494.4257	0.0065
494.625	0.0023
494.8243	-0.0068
495.0236	0.0106
495.2228	0.0045
495.422	0.0029
495.6213	-0.0013
495.8205	0.0087
496.0196	0.0013
496.2188	0.006
496.418	0.0065
496.6171	-0.0029
496.8162	-0.0008
497.0153	0.0089
497.2144	-0.0019
497.4135	-0.0066
497.6126	0.001
497.8116	0.0002
498.0107	0.0058
498.2097	0.0098
498.4087	0.0011
498.6077	-0.0108
498.8067	0.0005
499.0056	-0.0047
499.2046	0.0093
499.4035	-0.0016
499.6024	-0.0031
499.8013	0.0061
500.0002	-0.0031
500.199	0.0102
500.3979	-0.0029
500.5967	0.0021
500.7956	0.001
500.9944	-0.0002
501.1932	0.0063
501.3919	0.0062
501.5907	0.0014
501.7895	-0.0054
501.9882	0.0013
502.1869	0.0112
502.3856	0.0018
502.5843	0.0006
502.783	0.0031
502.9816	0.0011
503.1803	-0.0047
503.3789	0.0046
503.5775	0.0024
503.7761	-0.013
503.9747	0.0071
504.1732	-0.0063
504.3718	0.011
504.5703	0.0056
504.7689	-0.0012
504.9674	0.0024
505.1658	0.0002
505.3643	0.0043
505.5628	0.0082
505.7612	-0.0001
505.9597	-0.0025
506.1581	0.0011
506.3565	0.0028
506.5549	-0.0008
506.7532	-0.0055
506.9516	0.0003
507.1499	0.0001
507.3482	0.0005
507.5465	0.0001
507.7448	-0.0007
507.9431	0.0052
508.1414	-0.0002
508.3396	0
508.5379	-0.0026
508.7361	0.0128
508.9343	0.0048
509.1325	0.0094
509.3306	0.0005
509.5288	-0.0097
509.7269	0.0063
509.9251	0.0059
510.1232	-0.0001
510.3213	0.0034
510.5193	-0.0079
510.7174	-0.0049
510.9154	0.0053
511.1135	-0.0069
511.3115	-0.0023
511.5095	-0.0139
511.7075	-0.0034
511.9055	-0.0054
512.1034	0.0052
512.3014	-0.0002
512.4993	0.0001
512.6972	-0.0023
512.8951	0.0064
513.093	0.0043
513.2908	0.0138
513.4887	-0.0027
513.6865	0.0086
513.8844	0.0005
514.0822	-0.0009
514.2799	0.0005
514.4777	-0.0152
514.6755	0.0005
514.8732	-0.0001
515.0709	0.0063
515.2687	-0.0035
515.4664	0.0099
515.664	0.0028
515.8617	0.0058
516.0594	0.007
516.257	0.0087
516.4546	0.0189
516.6522	0.0094
516.8498	-0.0108
517.0474	0.0082
517.2449	-0.0083
517.4425	-0.006
517.64	0.0037
517.8375	0.007
518.035	-0.0075
518.2325	-0.0019
518.43	-0.0017
518.6274	0.0046
518.8249	-0.0052
519.0223	0.0039
519.2197	0.0063
519.4171	0.0132
519.6145	-0.0004
519.8118	-0.0083
520.0092	-0.0065
520.2065	0.0029
520.4038	-0.0045
520.6011	0.0016
520.7984	0
520.9956	0.0023
521.1929	0.0041
521.3901	0.003
521.5874	0.0101
521.7846	-0.011
521.9818	-0.0064
522.1789	0.0015
522.3761	0.0115
522.5732	-0.0026
522.7704	-0.0044
522.9675	-0.0077
523.1646	-0.0131
523.3617	0.0055
523.5587	-0.0009
523.7558	-0.0008
523.9528	0.0047
524.1498	0.0032
524.3468	-0.0037
524.5438	0.0042
524.7408	-0.0135
524.9378	0.0097
525.1347	0.0037
525.3316	0.0027
525.5285	-0.0078
525.7254	0.0002
525.9223	0.0117
526.1192	0.0012
526.316	0.0082
526.5129	0.0034
526.7097	-0.0006
526.9065	-0.0003
527.1033	0.0031
527.3	-0.0038
527.4968	0.0071
527.6935	-0.0086
527.8903	-0.0043
528.087	-0.0055
528.2837	0.0078
528.4804	-0.0044
528.677	0.003
528.8737	0.0014
529.0703	-0.008
529.2669	0
529.4635	0.007
529.6601	-0.0026
529.8567	-0.0072
530.0532	-0.0087
530.2498	-0.0053
530.4463	0.0009
530.6428	0.0059
530.8393	0.0033
531.0358	-0.015
531.2322	-0.0068
531.4287	-0.01
531.6251	-0.0013
531.8215	-0.0081
532.0179	-0.0035
532.2143	0.0089
532.4107	0.0045
532.607	-0.0079
532.8034	-0.0094
532.9997	-0.0074
533.196	-0.0037
533.3923	0.0033
533.5886	0.0102
533.7848	-0.0015
533.9811	0.005
534.1773	0.0073
534.3735	-0.0024
534.5697	-0.0069
534.7659	0.0025
534.9621	0.0056
535.1582	-0.0029
535.3544	0.0003
535.5505	0.0055
535.7466	-0.0043
535.9427	-0.0034
536.1387	-0.002
536.3348	0.0051
536.5308	-0.0043
536.7269	0.004
536.9229	0.0053
537.1189	0.0034
537.3148	0.0028
537.5108	0.0003
537.7068	0.0039
537.9027	-0.0145
538.0986	0.0041
538.2945	-0.0091
538.4904	-0.0084
538.6863	-0.0013
538.8821	-0.0048
539.078	0.0027
539.2738	-0.0073
539.4696	-0.0037
539.6654	0.0027
539.8611	0.0011
540.0569	-0.0014
540.2526	0.0003
540.4484	0.0005
540.6441	-0.0038
540.8398	0.0082
541.0355	-0.0044
541.2311	0.0028
541.4268	0.0124
541.6224	0.0124
541.818	-0.0008
542.0136	-0.0007
542.2092	0.009
542.4048	0.0038
542.6003	-0.0115
542.7959	-0.0014
542.9914	0.0011
543.1869	-0.0012
543.3824	0.0032
543.5779	0.0106
543.7734	0.0168
543.9688	0.0086
544.1642	-0.0029
544.3596	0.0082
544.555	-0.0025
544.7504	0.003
544.9458	0.0006
545.1411	0.0049
545.3365	0.0042
545.5318	0.007
545.7271	0.0035
545.9224	-0.0085
546.1177	0.0144
546.3129	0.0093
546.5081	-0.0028
546.7034	-0.004
546.8986	0.007
547.0938	0.003
547.289	0.0003
547.4841	0.0002
547.6793	0.0024
547.8744	0.0066
548.0695	-0.0005
548.2646	0.0002
548.4597	0.0015
548.6548	0.0127
548.8498	-0.0022
549.0448	0.0033
549.2399	0.0195
549.4349	-0.0042
549.6298	0.0084
549.8248	0.006
550.0198	0.0015
550.2147	-0.0038
550.4096	-0.0134
550.6045	-0.0088
550.7994	-0.0019
550.9943	0.0053
551.1892	-0.0148
551.384	0.0027
551.5788	-0.0051
551.7737	-0.0003
551.9685	0.0016
552.1632	0.0006
552.358	0.0081
552.5528	-0.0001
552.7475	0.004
552.9422	0.0035
553.1369	0.0136
553.3316	0.011
553.5263	0.0019
553.7209	0.0016
553.9156	0.0014
554.1102	0.0074
554.3048	-0.0098
554.4994	-0.0051
554.694	-0.0008
554.8885	0.0062
555.0831	0.0021
555.2776	0.0078
555.4721	0.0032
555.6666	0.0085
555.8611	0.0087
556.0555	0.0037
556.25	0.0037
556.4444	0.0009
556.6388	0.0013
556.8332	-0.0101
557.0276	0.0001
557.222	-0.0026
557.4163	-0.0032
557.6107	0.0012
557.805	-0.0068
557.9993	-0.0029
558.1936	-0.0069
558.3879	-0.0025
558.5821	-0.0065
558.7764	-0.0045
558.9706	-0.0005
559.1648	0.0009
559.359	-0.0025
559.5532	-0.0034
559.7473	0.0014
559.9415	0.0021
560.1356	0.0197
560.3297	-0.0055
560.5238	0.0039
560.7179	0.0039
560.9119	-0.0041
561.106	-0.0055
561.3	0.0082
561.494	-0.0054
561.688	-0.0001
561.882	0.0029
562.076	0.0052
562.2699	0.0043
562.4639	0.0129
562.6578	0.0067
562.8517	0.0098
563.0456	0.003
563.2395	0.0052
563.4333	0.002
563.6272	0.0005
563.821	0.0081
564.0148	0.0022
564.2086	0.0054
564.4024	0.0109
564.5961	0.0099
564.7899	0.0021
564.9836	-0.0045
565.1773	0.0038
565.371	0.0035
565.5647	0.0068
565.7584	0.003
565.952	0.0064
566.1456	0.0068
566.3393	-0.0007
566.5329	0.0001
566.7264	0.0049
566.92	0.0001
567.1136	0.0038
567.3071	-0.0041
567.5006	0.0116
567.6941	0.0037
567.8876	0.0003
568.0811	0.0164
568.2745	-0.0032
568.468	0.0064
568.6614	0.0086
568.8548	0.0052
569.0482	0.0083
569.2416	0.0097
569.4349	0.0021
569.6283	0.0007
569.8216	0.0026
570.0149	0.0042
570.2082	0.0087
570.4015	0.0065
570.5947	0.0018
570.788	0.0059
570.9812	0.0025
571.1744	0.0052
571.3676	0.0079
571.5608	0.0065
571.754	0.0105
571.9471	0.0084
572.1402	0.0069
572.3333	0.0063
572.5264	0.0058
572.7195	-0.0011
572.9126	0.0066
573.1057	0.0077
573.2987	0.0056
573.4917	0.005
573.6847	0.0036
573.8777	0.0059
574.0707	0.004
574.2636	0.0075
574.4566	0.0036
574.6495	0.0045
574.8424	0.0091
575.0353	0.0073
575.2281	0.0071
575.421	0.0002
575.6138	0.0002
575.8067	0.0056
575.9995	0.0057
576.1923	0.0062
576.385	0.0052
576.5778	0.0078
576.7706	0.0074
576.9633	0.0096
577.156	-0.002
577.3487	0.0043
577.5414	0.0031
577.734	0.0024
577.9267	0.0059
578.1193	0.0092
578.3119	-0.001
578.5045	0.0028
578.6971	-0.0025
578.8897	0.0042
579.0822	0.0043
579.2747	0.0022
579.4673	0.0041
579.6598	0.0095
579.8522	0.0053
580.0447	0.0036
580.2372	0.0093
580.4296	0.005
580.622	0.0046
580.8144	0.0036
581.0068	0.0057
581.1992	0.0059
581.3915	0.0001
581.5839	0.0042
581.7762	0.0012
581.9685	0.004
582.1608	0.0029
582.353	0.0058
582.5453	0.0065
582.7375	0.0052
582.9298	-0.0016
583.122	0.005
583.3142	0.0065
583.5063	0.0019
583.6985	0.0023
583.8906	0.0013
584.0827	0.0034
584.2749	0.0013
584.4669	0.0038
584.659	0.0096
584.8511	0.0074
585.0431	0.0063
585.2352	0.0061
585.4272	0.0069
585.6192	0.0008
585.8111	0.0022
586.0031	0.0029
586.195	0.0044
586.387	0.0023
586.5789	0.006
586.7708	0.0097
586.9627	0.0037
587.1545	0.0058
587.3464	0.0067
587.5382	0.0045
587.73	0.0082
587.9218	-0.0005
588.1136	0.0023
588.3053	0.0067
588.4971	0.0018
588.6888	0.0083
588.8805	0.0037
589.0722	0.0095
589.2639	0.0069
589.4556	0.0068
589.6472	0.0083
589.8389	0.0041
590.0305	-0.0014
590.2221	0.0001
590.4137	0.0061
590.6052	0.0065
590.7968	0.0028
590.9883	0.0029
591.1798	0.0084
591.3713	0.005
591.5628	0.005
591.7543	0.0051
591.9458	0.0052
592.1372	0.0064
592.3286	0.0039
592.52	0.0013
592.7114	0.0037
592.9028	0.0084
593.0941	0.0018
593.2855	0.0022
593.4768	0.0073
593.6681	0.0081
593.8594	0.0099
594.0506	0.0034
594.2419	0.0052
594.4331	0.0083
594.6244	-0
594.8156	0.0028
595.0067	0
595.1979	0.0053
595.3891	0.0072
595.5802	0.0131
595.7713	0.0082
595.9624	0.01
596.1535	0.0085
596.3446	-0.0002
596.5357	-0.0007
596.7267	0.0037
596.9177	0.0046
597.1087	0.0005
597.2997	0.0026
597.4907	-0.0005
597.6817	0.0113
597.8726	0.0029
598.0635	-0.0045
598.2544	0.0054
598.4453	0.0047
598.6362	0.0058
598.827	0.0003
599.0179	0.0043
599.2087	0.0027
599.3995	0.0093
599.5903	0.0089
599.7811	0.0096
599.9718	0.0043
600.1626	-0.0006
600.3533	0.0024
600.544	0.0075
600.7347	0.0047
600.9254	0.0103
601.116	0.0033
601.3067	0.0037
601.4973	0.0083
601.6879	0.0038
601.8785	0.0097
602.0691	0.0022
602.2596	0.0042
602.4502	0.0085
602.6407	0.0074
602.8312	0.0034
603.0217	0.0077
603.2122	0.0044
603.4027	0.0013
603.5931	0.0025
603.7835	0.0022
603.9739	-0.0016
604.1643	0.0054
604.3547	0.0096
604.5451	0.0066
604.7354	-0.0009
604.9257	-0.0004
605.116	0.0005
605.3063	0.0058
605.4966	0.0034
605.6869	0.0117
605.8771	0.008
606.0673	0.0088
606.2575	0.0023
606.4477	0.0155
606.6379	0.0003
606.8281	0.0026
607.0182	0.0064
607.2083	0.0048
607.3985	0.0019
607.5885	0.0051
607.7786	0.008
607.9687	0.0083
608.1587	0.0104
608.3488	0.0003
608.5388	-0.0049
608.7288	-0.0035
608.9187	0.002
609.1087	0.0104
609.2986	0.0087
609.4886	0.0003
609.6785	0.0067
609.8684	0.003
610.0582	0.0016
610.2481	-0.0012
610.4379	0.0056
610.6278	0.0073
610.8176	0.0042
611.0074	0.0019
611.1971	0.0068
611.3869	0.0085
611.5766	-0.0055
611.7664	0.0054
611.9561	0.0081
612.1458	0.0066
612.3354	0.0046
612.5251	-0
612.7147	0.0126
612.9044	0.0017
613.094	0.0072
613.2836	0.0034
613.4731	-0.0004
613.6627	0.0072
613.8522	0.0119
614.0417	0.0087
614.2313	-0.0008
614.4207	0.0133
614.6102	0.0035
614.7997	0.0116
614.9891	0.0091
615.1785	-0.0001
615.3679	0.0066
615.5573	-0.0001
615.7467	-0.0003
615.9361	0.003
616.1254	0.011
616.3147	0.0065
616.504	0.003
616.6933	0.0001
616.8826	0.0046
617.0718	0.0042
617.2611	0.005
617.4503	0.0008
617.6395	0.0048
617.8287	0.0081
618.0179	-0.0025
618.207	0.0099
618.3961	0.0012
618.5853	-0.0009
618.7744	0.0047
618.9634	0.0122
619.1525	0.0018
619.3416	0.0049
619.5306	0.0051
619.7196	0.012
619.9086	0.0099
620.0976	0.0016
620.2866	0.0086
620.4755	0.0024
620.6645	0.0066
620.8534	-0.0029
621.0423	0.0063
621.2312	-0.0011
621.42	0.0014
621.6089	0.0037
621.7977	0.0056
621.9865	0.0035
622.1753	-0.0107
622.3641	0.0018
622.5529	0.0004
622.7416	0.0029
622.9303	0.005
623.1191	0.0037
623.3078	0.0054
623.4964	0.0035
623.6851	0.0093
623.8737	-0.0003
624.0624	-0.0105
624.251	0.001
624.4396	0.0096
624.6282	0.012
624.8167	0.0051
625.0053	0.0188
625.1938	-0.0006
625.3823	0.0201
625.5708	0.0003
625.7593	-0.004
625.9477	0.006
626.1362	-0.0058
626.3246	-0.0005
626.513	0.0022
626.7014	0.0118
626.8898	0.0059
627.0781	0.0083
627.2665	0.0064
627.4548	0.003
627.6431	0.0033
627.8314	0.0044
628.0197	0.0044
628.2079	-0.0053
628.3962	0.0013
628.5844	0.0063
628.7726	0.0089
628.9608	0.0123
629.1489	0.006
629.3371	-0.0063
629.5252	0
629.7134	-0.0063
629.9015	0.0064
630.0895	-0.0088
630.2776	0.0058
630.4657	0.0106
630.6537	0.0065
630.8417	0.0002
631.0297	-0.0009
631.2177	0.0096
631.4057	0.0152
631.5936	0.0002
631.7815	0.01
631.9695	0.0212
632.1574	0.0274
632.3452	0.0131
632.5331	0.0174
632.7209	0.0199
632.9088	0.0136
633.0966	0.0305
633.2844	0.002
633.4722	0.0135
633.6599	0.0107
633.8477	0.0055
634.0354	0.0067
634.2231	-0.0125
634.4108	-0.0081
634.5985	0.0183
634.7861	0.0014
634.9738	-0.0119
635.1614	-0.0024
635.349	0.0036
635.5366	0.0127
635.7242	0.006
635.9117	0.0026
636.0993	0.0081
636.2868	0.0024
636.4743	0.0138
636.6618	-0.0119
636.8492	0.0105
637.0367	0.0074
637.2241	-0.0071
637.4115	0.0264
637.5989	0.0103
637.7863	0.0185
637.9737	-0.008
638.161	0.0297
638.3484	-0.0038
638.5357	0.0067
638.723	0.0066
638.9103	-0.0128
639.0975	0.0016
639.2848	0.0144
639.472	0.004
639.6592	-0.0023
639.8464	-0.0095
640.0336	0.01
640.2208	-0.0087
640.4079	-0.006
640.595	-0.0172
640.7821	0.0085
640.9692	-0.0158
641.1563	0.0041
641.3434	0.0052
641.5304	0.0339
641.7174	0.0152
641.9044	0.0016
642.0914	0.0426
642.2784	0.0017
642.4653	0.003
642.6523	0.0035
642.8392	-0.0006
643.0261	0.0259
643.213	0.006
643.3999	0.0174
643.5867	0.0047
643.7735	-0.0097
643.9604	0.0186
644.1472	0.0134
644.3339	0.004
644.5207	-0.0055
644.7075	-0.0052
644.8942	-0.0143
645.0809	-0.0063
645.2676	-0.0129
645.4543	-0.0086
645.6409	0.013
645.8276	0.0166
646.0142	0.0011
646.2008	0.0199
646.3874	-0.0179
646.574	0.0075
646.7605	0.0006
646.9471	-0.0022
647.1336	-0.0221
647.3201	0.0047
647.5066	0.0065
647.6931	-0.001
647.8795	0.006
648.0659	-0.0018
648.2524	0.0045
648.4388	0.0048
648.6252	0.0167
648.8115	0.0109
648.9979	0.0125
649.1842	0.0009
649.3705	0.0097
649.5568	-0.0139
649.7431	-0.0093
649.9294	-0.015
650.1156	-0.0029
650.3018	0.002
650.488	0.0185
650.6742	0.0165
650.8604	0.0154
651.0466	-0.0014
651.2327	-0.006
651.4188	0.0075
651.6049	0.0181
651.791	0.0035
651.9771	0.0056
652.1632	0.0022
652.3492	-0.0121
652.5352	0.01
652.7212	0.014
652.9072	-0.0084
653.0932	0.0061
653.2791	0.0138
653.465	0.011
653.651	-0.0091
653.8369	0.012
654.0227	0.005
654.2086	0.0177
654.3944	0.0036
654.5803	-0.0016
654.7661	0.0125
654.9519	0.0002
655.1377	0.0001
655.3234	0.0001
655.5092	0.0001
655.6949	0.0001
655.8806	0.0001
656.0663	0.0001
656.2519	0.0001
656.4376	0.0001
656.6232	0.0001
656.8088	0.0001
656.9945	0.0001
657.18	0.0001
657.3656	0.0001
657.5511	0.0001
657.7367	0.0001
657.9222	0.0001
658.1077	0.0001
658.2932	0.0001
658.4786	0.0001
658.6641	0.0001
658.8495	0.0001
659.0349	0.0001
659.2203	0.0001
659.4057	0.0001
659.591	0.1454
659.7764	0.0218
659.9617	0.0153
660.147	0.0078
660.3323	0.0109
660.5176	0.0208
660.7028	-0.0117
660.888	0.0203
661.0733	0.0058
661.2585	-0.0053
661.4436	0.0114
661.6288	0.008
661.8139	0.0198
661.9991	-0.0207
662.1842	0.0008
662.3693	0.0023
662.5544	0.0077
662.7394	0.0238
662.9245	-0.0068
663.1095	-0.0005
663.2945	-0.0116
663.4795	-0.0005
663.6644	-0.0125
663.8494	0.0114
664.0343	0.018
664.2193	-0.0152
664.4042	0.0128
664.589	-0.0101
664.7739	0.0013
664.9587	-0.0034
665.1436	-0.012
665.3284	-0.0032
665.5132	-0.0183
665.698	0.0077
665.8827	0.0163
666.0675	0.0093
666.2522	0.0082
666.4369	-0.0077
666.6216	-0.0033
666.8063	0.0364
666.9909	0.0172
667.1756	0.0091
667.3602	0.0033
667.5448	-0.0035
667.7294	0.0176
667.9139	0.0046
668.0985	0.0149
668.283	-0.0124
668.4675	0.0135
668.652	0.0242
668.8365	0.0014
669.0209	0.0056
669.2054	-0.0075
669.3898	0.0026
669.5742	0.0179
669.7586	0.0116
669.943	-0.009
670.1273	0.0129
670.3117	0.0219
670.496	-0.0009
670.6803	0.0159
670.8646	-0.0019
671.0488	0.0242
671.2331	-0.0147
671.4173	0.0171
671.6015	-0.0022
671.7857	0.0019
671.9699	0.0084
672.1541	0.0017
672.3382	0.0041
672.5223	-0.0017
672.7064	-0.0095
672.8905	-0.0101
673.0746	0.01
673.2587	0.0214
673.4427	0.0011
673.6267	0.0049
673.8107	0.0211
673.9947	0.0303
674.1787	0.0152
674.3626	0.0064
674.5465	0.0152
674.7304	0.0116
674.9143	0.0088
675.0982	0.0022
675.2821	-0.0197
675.4659	-0.0216
675.6497	-0.0032
675.8335	0.0012
676.0173	-0.0073
676.2011	0.0027
676.3849	-0.0155
676.5686	0.0289
676.7523	-0.0019
676.936	0.0078
677.1197	0.0034
677.3034	0.0408
677.487	0.0252
677.6706	0.0165
677.8542	0.0084
678.0378	0.0043
678.2214	0.0082
678.405	0.0014
678.5885	0.0106
678.772	0.0035
678.9555	-0.0014
679.139	0.0055
679.3225	-0.0028
679.5059	-0.0181
679.6894	0.0101
679.8728	0.0046
680.0562	0.0043
680.2395	0.0029
680.4229	-0.0311
680.6062	0.0052
680.7896	-0.0225
680.9729	0.0329
681.1562	-0.0023
681.3394	0.008
681.5227	-0.0035
681.7059	0.0003
681.8891	0.0125
682.0723	0.0069
682.2555	-0.0152
682.4387	0.0168
682.6218	0.0119
682.805	0.0131
682.9881	0.0309
683.1712	0.0133
683.3542	0.0136
683.5373	-0.0018
683.7203	-0.0052
683.9034	-0.0158
684.0864	0.0137
684.2694	0.0244
684.4523	0.0227
684.6353	0.0056
684.8182	-0.0069
685.0011	0.0089
685.184	0.0047
685.3669	0.0108
685.5498	0.0009
685.7326	-0.002
685.9154	-0.0014
686.0982	0.0212
686.281	-0.0062
686.4638	0.0191
686.6465	-0.0085
686.8293	-0.001
687.012	0.0269
687.1947	0.0177
687.3774	0.0087
687.56	-0.0159
687.7427	-0.008
687.9253	-0.021
688.1079	-0.0014
688.2905	-0.0119
688.4731	-0.0042
688.6556	0.0106
688.8382	-0.0093
689.0207	0.0243
689.2032	0.0125
689.3857	-0.0148
689.5681	-0.0138
689.7506	0.0188
689.933	-0.0015
690.1154	0.0303
690.2978	0.0034
690.4802	0.024
690.6626	0.019
690.8449	0.0132
691.0272	0.0002
691.2095	-0.0179
691.3918	0.0153
691.5741	0.0167
691.7563	0.0137
691.9386	0.005
692.1208	0.0015
692.303	-0.0067
692.4852	0.0108
692.6673	0.0024
692.8495	-0.0137
693.0316	0.0164
693.2137	-0.0059
693.3958	0.0006
693.5778	0.0069
693.7599	0.0044
693.9419	-0.0295
694.1239	0.0076
694.3059	0.0081
694.4879	0.0176
694.6699	0.0089
694.8518	0.0136
695.0337	0.0113
695.2157	0.0145
695.3975	-0.0072
695.5794	-0.0007
695.7613	0.0258
695.9431	-0.0035
696.1249	0.0189
696.3067	0.0058
696.4885	0.0233
696.6703	0.0025
696.852	-0.0098
697.0337	0.0089
697.2154	0.0093
697.3971	0.0192
697.5788	0.0123
697.7605	0.0073
697.9421	0.0135
698.1237	0.0226
698.3053	-0.0005
698.4869	0.0138
698.6685	-0.0252
698.85	0.0295
699.0315	-0.0195
699.213	-0.0039
699.3945	0.0135
699.576	0.0313
699.7575	-0.0046
699.9389	0.0032
700.1203	-0.0098
700.3017	0.0197
700.4831	0.0288
700.6645	0.0356
700.8458	0.0121
701.0271	0.024
701.2084	0.002
701.3897	-0.0025
701.571	-0.0067
701.7523	0.0223
701.9335	-0.0137
702.1147	0.0233
702.2959	-0.0096
702.4771	-0.0002
702.6583	0.0122
702.8394	-0.0016
703.0205	0.0084
703.2016	-0.0014
703.3827	-0.0239
703.5638	0.0058
703.7449	0.0282
703.9259	0.0136
704.1069	0.0058
704.2879	0.0064
704.4689	0.0226
704.6499	0.014
704.8308	-0.023
705.0117	-0.0055
705.1927	-0.0068
705.3735	0.0103
705.5544	0.0371
705.7353	-0.0172
705.9161	-0.0365
706.0969	0.0126
706.2777	0.0253
706.4585	0.0053
706.6393	0.0141
706.82	0.0095
707.0007	-0.0056
707.1815	-0.0056
707.3621	0.0415
707.5428	0.017
707.7235	0.0131
707.9041	0.0139
708.0847	0.0098
708.2653	0.0233
708.4459	-0.005
708.6265	-0.0092
708.807	0.0081
708.9875	0.01
709.168	-0.0273
709.3485	0.0218
709.529	-0.0056
709.7095	0.0001
709.8899	0.009
710.0703	0.0063
710.2507	-0.0101
710.4311	-0.0256
710.6115	0.0255
710.7918	0.0215
710.9721	0.0317
711.1524	-0.0205
711.3327	0.0001
711.513	-0.0047
711.6932	0.0112
711.8735	0.0205
712.0537	-0.0132
712.2339	0.0082
712.4141	0.0351
712.5942	-0.0003
712.7744	0.0221
712.9545	0.023
713.1346	0.0149
713.3147	-0.0036
713.4947	-0.0095
713.6748	0.0032
713.8548	0.0138
714.0348	0.0087
714.2148	0.018
714.3948	0.0131
714.5748	0.0106
714.7547	0.0297
714.9346	0.0254
715.1145	-0.0153
715.2944	-0.0073
715.4743	0.048
715.6541	-0.0459
715.834	0.0467
716.0138	0.0291
716.1936	-0.001
716.3733	-0.0098
716.5531	0.0279
716.7328	0.0154
716.9126	0.0041
717.0923	-0.0004
717.2719	0.0292
717.4516	0.0166
717.6312	-0.0109
717.8109	0.0235
717.9905	0.0421
718.1701	0.0215
718.3496	-0.0023
718.5292	0.0092
718.7087	-0.0161
718.8882	-0.0076
719.0677	0.0056
719.2472	-0.0053
719.4267	0.0106
719.6061	-0.0142
719.7856	0.0338
719.965	0.0338
720.1443	-0.0217
720.3237	-0.0147
720.5031	0.012
720.6824	0.0369
720.8617	0.0122
721.041	0.0213
721.2203	-0.0115
721.3995	0.0297
721.5788	-0.0011
721.758	-0.0122
721.9372	0.019
722.1164	-0.0172
722.2956	0.0338
722.4747	0.0085
722.6538	-0.0099
722.8329	0.0207
723.012	0.0065
723.1911	0.0091
723.3702	0.0501
723.5492	0.0074
723.7282	0.0083
723.9072	0.0152
724.0862	-0.0118
724.2652	-0.0067
724.4441	-0.012
724.623	0.0247
724.8019	0.0051
724.9808	0.0189
725.1597	0.0028
725.3385	0.0017
725.5174	-0.0113
725.6962	-0.001
725.875	0.0377
726.0538	0.0156
726.2325	0.0288
726.4112	-0.0229
726.59	-0.0283
726.7687	-0.0126
726.9474	0.0199
727.126	0.0155
727.3047	-0.0054
727.4833	0.0146
727.6619	-0.0175
727.8405	0.0014
728.0191	0.0406
728.1976	0.0207
728.3762	0.0136
728.5547	-0.0075
728.7332	0.0205
728.9116	0.0097
729.0901	0.0154
729.2686	0.0112
729.447	-0.0087
729.6254	-0.0015
729.8038	-0.0031
729.9821	-0.0068
730.1605	0.012
730.3388	-0.0036
730.5171	0.0328
730.6954	-0.0095
730.8737	0.0168
731.0519	-0.004
731.2302	0.0292
731.4084	0.0073
731.5866	-0.0085
731.7648	-0.01
731.9429	0.0006
732.1211	0.0129
732.2992	0.0085
732.4773	0.0032
732.6554	-0.012
732.8335	0.017
733.0115	0.0126
733.1896	-0.0002
733.3676	0.0114
733.5456	0.0007
733.7235	0.007
733.9015	-0.0047
734.0794	-0.0099
734.2574	-0.0137
734.4353	0.0157
734.6131	0.0125
734.791	0.0163
734.9689	0.0069
735.1467	0.0017
735.3245	0.0139
735.5023	-0.0005
735.68	-0.0029
735.8578	0.0065
736.0355	0.0067
736.2132	0.0014
736.3909	0.01
736.5686	-0.016
736.7463	-0.0132
736.9239	0.0101
737.1015	0.0102
737.2791	0.0245
737.4567	0.0081
737.6343	0.0044
737.8118	0.0224
737.9894	0.0061
738.1669	-0.0121
738.3444	0.0236
738.5218	-0.0148
738.6993	0.0132
738.8767	-0.0064
739.0541	-0.0044
739.2315	0.0229
739.4089	-0.0126
739.5863	0.0093
739.7636	-0.0071
739.9409	0.0033
740.1182	0.0173
740.2955	0.0327
740.4728	-0.0353
740.65	-0.0114
740.8272	0.0146
741.0044	-0.0295
741.1816	0.0242
741.3588	-0.0127
741.5359	0.028
741.7131	-0.01
741.8902	-0.0012
742.0673	-0.0397
742.2444	0.0547
742.4214	0.031
742.5985	0.0026
742.7755	0.0009
742.9525	-0.0066
743.1295	-0.0024
743.3064	-0.0019
743.4834	-0.0092
743.6603	0.0344
743.8372	-0.0401
744.0141	0.0323
744.191	0.0393
744.3678	-0.0255
744.5446	0.0199
744.7215	0.0019
744.8982	0.0261
745.075	0.0253
745.2518	0.0153
745.4285	0.0432
745.6052	-0.0238
745.7819	0.0119
745.9586	0.0442
746.1353	-0.0154
746.3119	0.0213
746.4885	0.0056
746.6651	-0.0016
746.8417	-0.0209
747.0183	0.0539
747.1948	0.0168
747.3714	0.0247
747.5479	0.0208
747.7244	-0.0094
747.9008	-0.0163
748.0773	0.0325
748.2537	0.0256
748.4301	0.0292
748.6065	0.0166
748.7829	-0.0143
748.9593	-0.0219
749.1356	0.0073
749.3119	0.0172
749.4882	0.0144
749.6645	-0.0053
749.8408	0.0206
750.017	-0.0009
750.1933	0.0011
750.3695	0.0053
750.5457	-0.0023
750.7218	-0.0028
750.898	0.0007
751.0741	0.0058
751.2502	-0.0036
751.4263	0.0074
751.6024	-0.0003
751.7784	0.0025
751.9545	0.0079
752.1305	-0.0155
752.3065	0.0111
752.4825	-0.0075
752.6584	0.0008
752.8344	-0.0148
753.0103	-0.0046
753.1862	-0.0106
753.3621	-0.0042
753.5379	-0.018
753.7138	0.0124
753.8896	-0.0168
754.0654	-0.0118
754.2412	0.0253
754.417	0.0089
754.5927	0.0132
754.7685	-0.0167
754.9442	0.0241
755.1199	0.0109
755.2956	-0.0061
755.4712	-0.0085
755.6469	-0.0008
755.8225	0.0223
755.9981	0.0213
756.1736	-0.0007
756.3492	0.0079
756.5248	0.0129
756.7003	-0.0237
756.8758	-0.0008
757.0513	0.0057
757.2267	-0.0027
757.4022	-0.0051
757.5776	-0.0114
757.753	0.0233
757.9284	-0.0033
758.1038	0.0065
758.2791	0.019
758.4545	-0.0071
758.6298	-0.0023
758.8051	0.0135
758.9803	0.008
759.1556	-0.0047
759.3308	-0.0071
759.506	0.0166
759.6812	0.0106
759.8564	-0.0091
760.0316	0.005
760.2067	0.0233
760.3819	0.0039
760.557	0.0017
760.732	-0.0159
760.9071	0.0134
761.0821	0.0003
761.2572	0.0164
761.4322	0.0006
761.6072	-0.0133
761.7821	-0.0128
761.9571	0.0098
762.132	-0.0049
762.3069	0.0345
762.4818	-0.0007
762.6567	-0.0143
762.8316	0.0228
763.0064	0.0041
763.1812	0.0054
763.356	-0.0093
763.5308	0.021
763.7055	-0.0122
763.8803	0.0225
764.055	-0.0083
764.2297	0.0022
764.4044	0.009
764.579	0.0135
764.7537	-0.0016
764.9283	0.0185
765.1029	0.0026
765.2775	0.0037
765.4521	-0.0075
765.6266	0.0172
765.8011	0.0212
765.9756	0.0219
766.1501	0.0194
766.3246	-0.0013
766.4991	0.0182
766.6735	0.049
766.8479	-0.0094
767.0223	-0.008
767.1967	-0.0203
767.371	0.0147
767.5454	0.0072
767.7197	0.0459
767.894	0.0053
768.0683	0.0077
768.2425	-0.0062
768.4168	0.0064
768.591	-0.0013
768.7652	0.0019
768.9394	-0.0064
769.1135	0.0146
769.2877	0.0034
769.4618	0.0066
769.6359	-0.0143
769.81	0.0193
769.984	0.008
770.1581	0.0107
770.3321	0.0284
770.5061	0.0058
770.6801	0.0064
770.8541	0.0119
771.028	0.0552
771.202	0.0151
771.3759	-0.0061
771.5498	0.0215
771.7236	-0.0039
771.8975	0.0047
772.0713	0.0117
772.2451	-0.0218
772.4189	-0.0091
772.5927	-0.0215
772.7665	0.0087
772.9402	0.0155
773.1139	0.0073
773.2876	0.0001
773.4613	0.0244
773.635	0.025
773.8086	0.0572
773.9822	0.0516
774.1558	0.0552
774.3294	-0.0033
774.503	0.0221
774.6765	0.0097
774.8501	-0.0289
775.0236	0.0225
775.1971	-0.0074
775.3705	0.008
775.544	-0.0544
775.7174	-0.008
775.8908	-0.0407
776.0642	0.0076
776.2376	0.0637
776.4109	-0.0016
776.5843	-0.0007
776.7576	0.0446
776.9309	0.0629
777.1041	-0.0232
777.2774	-0.0217
777.4506	0.0203
777.6238	-0.0344
777.797	0.021
777.9702	0.0442
778.1434	0.0026
778.3165	-0.0144
778.4896	-0.037
778.6627	0.0244
778.8358	-0.0301
779.0089	-0.0389
779.1819	0.021
779.3549	0.0154
779.5279	0.0106
779.7009	0.0379
779.8739	0.0393
780.0468	0.0316
780.2197	0.0048
780.3926	0.0202
780.5655	0.0255
780.7384	0.019
780.9112	0.0302
781.0841	0.0137
781.2569	0.0069
781.4297	0.0001
781.6024	0.0351
781.7752	0.0548
781.9479	0.0318
782.1206	0.0279
782.2933	0.0139
782.466	0.0408
782.6386	-0.001
782.8113	0.024
782.9839	-0.0063
783.1565	0.0001
783.329	0.0024
783.5016	0.0217
783.6741	-0.0011
783.8466	0.0297
784.0191	0.0342
784.1916	0.0245
784.3641	-0.0519
784.5365	0.0579
784.7089	0.0035
784.8813	0.0862
785.0537	0.0277
785.2261	0.0167
785.3984	0.0294
785.5707	-0.0353
785.743	0.0254
785.9153	-0.0036
786.0876	-0.0371
786.2598	0.0247
786.432	0.0414
786.6042	0.0295
786.7764	0.0017
786.9486	-0.0068
787.1207	0.0177
787.2928	0.0404
787.4649	-0.0063
787.637	0.0066
787.8091	0.0042
787.9811	0.0204
788.1532	-0.0151
788.3252	-0.0108
788.4972	0.0309
788.6691	0.0304
788.8411	-0.0279
789.013	0.0141
789.1849	-0.0118
789.3568	-0.0295
789.5287	0.0252
789.7005	-0.022
789.8723	-0.0976
790.0442	-0.024
790.2159	-0.0121
790.3877	0.01
790.5595	-0.0019
790.7312	-0.0203
790.9029	-0.008
791.0746	0.085
791.2463	-0.0685
791.4179	0.0163
791.5896	0.036
791.7612	0.0717
791.9328	0.0646
792.1044	0.0407
792.2759	-0.049
792.4474	-0.0191
792.619	0.0444
792.7905	0.0094
792.9619	-0.023
793.1334	0.0697
793.3048	0.0286
793.4762	0.0288
793.6476	-0.0259
793.819	0.0206
793.9904	-0.0023
794.1617	-0.0011
794.333	0.0007
794.5043	0.0291
794.6756	0.003
794.8469	0.0087
795.0181	0.0417
795.1893	0.0453
795.3605	0.0272
795.5317	0.0082
795.7029	-0.0252
795.874	0.0125
796.0452	0.0659
796.2163	0.0569
796.3873	0.0721
796.5584	0.1051
796.7294	0.0093
796.9005	0.0466
797.0715	-0.0106
797.2425	0.088
797.4134	0.1568
797.5844	-0.0204
797.7553	-0.0465
797.9262	0.0002
798.0971	0.0427
798.2679	0.0422
798.4388	0.0245
798.6096	-0.0065
798.7804	0.0202
798.9512	0.0242
799.122	0.0172
799.2927	0.0877
799.4635	-0.0449
799.6342	-0.0379
799.8049	0.0501
799.9755	-0.0517
800.1462	-0.0512
800.3168	0.0301
800.4874	-0.0417
800.658	0.0952
800.8286	-0.0194
800.9991	-0.0242
801.1696	0.0046
801.3402	-0.0899
801.5106	-0.0818
801.6811	-0.0188
801.8516	0.0301
802.022	0.0831
802.1924	-0.0259
802.3628	0.0329
802.5332	0.0147
802.7035	0.0559
802.8739	0.0162
803.0442	-0.0338
803.2145	0.0343
803.3847	-0.0253
803.555	0.1793
803.7252	0.0491
803.8954	-0.0749
804.0656	0.0381
804.2358	0.0208
804.4059	0.0144
804.5761	-0.0377
804.7462	0.0161
804.9163	-0.0152
805.0864	0.0462
805.2564	0.0138
805.4264	0.0171
805.5965	0.0737
805.7665	-0.0659
805.9364	-0.012
806.1064	0.0471
806.2763	0.0865
806.4462	0.0229
806.6161	0.0483
806.786	0.0062
806.9559	-0.0468
807.1257	-0.0029
807.2955	0.0024
807.4653	0.0323
807.6351	0.0452
807.8048	-0.0326
807.9746	-0.0108
808.1443	-0.0144
808.314	0.0726
808.4837	0.0504
808.6533	-0.0166
808.8229	0.0115
808.9926	0.0709
809.1622	0.0394
809.3317	-0.0768
809.5013	-0.028
809.6708	0.0104
809.8403	0.0035
810.0098	0.0908
810.1793	-0.0762
810.3488	-0.033
810.5182	0.0714
810.6876	0.0221
810.857	0.0161
811.0264	-0.0562
811.1958	0.1465
811.3651	0.0889
811.5344	0.0884
811.7037	-0.046
811.873	0.081
812.0422	-0.0891
812.2115	-0.0584
812.3807	-0.0928
812.5499	-0.0509
812.7191	0.0264
812.8882	0.0948
813.0574	-0.0274
813.2265	-0.0509
813.3956	-0.0356
813.5646	0.0612
813.7337	-0.0103
813.9027	0.0765
814.0718	0.0294
814.2407	0.0183
814.4097	0.0392
814.5787	0.0379
814.7476	0.0046
814.9165	0.0416
815.0854	-0.0613
815.2543	0.032
815.4232	0.0592
815.592	-0.0241
815.7608	-0.1569
815.9296	0.0234
816.0984	-0.0133
816.2671	-0.2824
816.4359	0.0809
816.6046	0.0354
816.7733	-0.0261
816.942	-0.064
817.1106	0.0215
817.2793	-0.0382
817.4479	-0.0569
817.6165	0.0915
817.785	-0.0238
817.9536	-0.0498
818.1221	-0.0557
818.2906	-0.0471
818.4591	0.0327
818.6276	0.0029
818.7961	-0.012
818.9645	-0.0911
819.1329	0.1615
819.3013	0.0037
819.4697	-0.0099
819.638	0.1626
819.8064	0.1859
819.9747	0.0717
820.143	0.0294
820.3113	0.0297
820.4795	0.1522
820.6477	-0.0065
820.816	0.0959
820.9842	0.1426
821.1523	0.0391
821.3205	0.0496
821.4886	-0.0732
821.6567	-0.0643
821.8248	0.1561
821.9929	-0.0913
822.1609	-0.0761
822.329	0.1557
822.497	0.1847
822.665	0.007
822.833	-0.0389
823.0009	-0.0234
823.1688	0.0846
823.3367	0.0121
823.5046	0.081
823.6725	0.0955
823.8404	-0.004
824.0082	0.1078
824.176	-0.2759
824.3438	0.1317
824.5116	-0.152
824.6793	0.0257
824.847	-0.116
825.0147	-0.1095
825.1824	-0.0028
825.3501	-0.0772
825.5177	-0.1461
825.6854	0.0716
825.853	-0.052
826.0206	-0.0692
826.1881	0.0346
826.3557	0.0493
826.5232	0.2039
826.6907	-0.0486
826.8582	-0.0915
827.0257	0.1809
827.1931	0.1506
827.3605	0.0324
827.528	-0.1728
827.6953	-0.1863
827.8627	-0.1334
828.03	0.2377
828.1974	0.0006
828.3647	0.0284
828.532	0.1134
828.6992	0.0062
828.8665	-0.3292
829.0337	0.2341
829.2009	-0.0334
829.3681	0.0694
829.5352	0.065
829.7024	0.1505
829.8695	-0.0143
830.0366	0.1587
830.2037	0.0704
830.3707	0.0293
830.5378	-0.1276
830.7048	0.0937
830.8718	0.0007
831.0388	0.0701
831.2057	0.1124
831.3727	0.0659
831.5396	0.0258
831.7065	-0.8638
831.8734	0.0989
832.0402	0.072
832.2071	-0.2243
832.3739	-0.0207
832.5407	-1.6218
832.7075	-0.338
832.8742	0.4063
833.041	0.2807
833.2077	0.0578
833.3744	-0.0876
833.541	-0.0174
833.7077	-0.0991
833.8743	-0.0117
834.0409	0.1692
834.2075	0.176
834.3741	-0.0393
834.5407	0.1104
834.7072	0.0653
834.8737	-0.0282
835.0402	0.1061
835.2067	0.1501
835.3731	-0.1208
835.5395	-0.0349
835.706	-0.0902
835.8723	-0.1879
836.0387	-0.0463
836.2051	-0.1061
836.3714	-0.0057
836.5377	0.8669
836.704	0.2865
836.8703	-0.2372
837.0365	-0.8396
837.2027	0.0176
837.3689	0.0847
837.5351	0.2473
837.7013	0.2516
837.8674	-0.3648
838.0335	0.1707
838.1997	-0.1527
838.3657	-0
838.5318	0.2925
838.6978	0.6153
838.8639	0.0039
839.0299	0.0151
839.1958	-0.0083
839.3618	-0.1042
839.5277	0.0697
839.6937	-0.057
839.8596	-0.3129
840.0254	0.1512
840.1913	-0.247
840.3571	-0.1272
840.523	-0
840.6888	-0.0345
840.8545	-0.6314
841.0203	0.1451
841.186	0.0828
841.3517	-0.1976
841.5174	0.1579
841.6831	0.1384
841.8488	-0.1352
842.0144	0.2112
842.18	0.1378
842.3456	-0.0882
842.5112	-0
842.6767	0.1758
842.8422	0.1026
843.0077	-0.0057
843.1732	-0.1401
843.3387	0.2977
843.5042	-0
843.6696	-0
843.835	-0.2768
844.0004	-0.4861
844.1657	-0.6706
844.3311	-0
844.4964	-0.3971
844.6617	0.0992
844.827	-0
844.9923	0.2165
845.1575	-0.3584
845.3227	0.0034
845.4879	0.3729
845.6531	0.1803
845.8183	0.4122
845.9834	0.1977
846.1485	-0
846.3136	0.0382
846.4787	-0
846.6438	0.4953
846.8088	0.0901
846.9738	-0
847.1388	0.1427
847.3038	0.3676
847.4687	-0
847.6337	-0.3631
847.7986	0.116
847.9635	0.047
848.1284	-0
848.2932	0.221
848.458	-0
848.6228	-0
848.7876	0.1242
848.9524	-0.4401
849.1172	-1.9931
849.2819	-0
849.4466	0.4329
849.6113	0.0531
849.7759	-0
849.9406	-0.2265
850.1052	-1.2976
850.2698	-0
850.4344	-0
850.599	0.5743
850.7635	-0.1375
850.928	1.3293
851.0925	0.0972
851.257	0.3854
851.4215	0.5603
851.5859	0.1588
851.7503	-0
851.9147	-0.0241
852.0791	-0.055
852.2434	1.2898
852.4078	-0
852.5721	-0
852.7364	0.4601
852.9007	0.0015
853.0649	-0
853.2291	0.798
853.3934	0.076
853.5575	0.3098
853.7217	0.2326
853.8859	-0.5367
854.05	-0.748
854.2141	0.3216
854.3782	-0.3873
854.5423	-0.16
854.7063	0.2302
854.8703	-0.028
855.0343	-0.0843
855.1983	-0.0062
855.3623	-0.0897
855.5262	-0
855.6901	0.1789
855.854	0.2937
856.0179	-0.226
856.1818	-0
856.3456	0.3746
856.5094	-0
856.6732	-0.5915
856.837	-1.0709
857.0008	-0
857.1645	-0.1767
857.3282	0.1063
857.4919	0.1073
857.6556	-0.3041
857.8192	-0.0875
857.9828	-0.0513
858.1465	0.3673
858.31	0.0955
858.4736	-0.1749
858.6372	-0
858.8007	-0.1637
858.9642	0.5089
859.1277	0.2727
859.2911	-0.655
859.4546	-0
859.618	-0.1368
859.7814	0.4083
859.9448	-0
860.1081	0.0278
860.2715	-1.1592
860.4348	-0.1311
860.5981	1.2415
860.7614	-0
860.9246	-0.2692
861.0879	-0.165
861.2511	-0
861.4143	-0
861.5774	-0.0145
861.7406	-0.2934
861.9037	0.0726
862.0668	-1.0055
862.2299	-0
862.393	-0
862.556	0.0461
862.7191	-0.195
862.8821	0.1875
863.0451	-0.184
863.208	-0
863.371	-0.3971
863.5339	0.1796
863.6968	0.4204
863.8597	0.3225
864.0225	1.6937
864.1854	-0.2445
864.3482	-0.6818
864.511	-0.1607
864.6737	0.2478
864.8365	-0.1334
864.9992	0.1859
865.1619	-0.6163
865.3246	-2.0755
865.4873	-0.0453
865.65	-0.1978
865.8126	-0
865.9752	-0.1333
866.1378	-0.2107
866.3004	-0.1815
866.4629	-1.6721
866.6254	0.2565
866.7879	-0.3037
866.9504	-0
867.1129	-0.5028
867.2753	0.2469
867.4377	-0.3727
867.6001	-0.4655
867.7625	-0
867.9249	-0
868.0872	0.1679
868.2495	1.9777
868.4118	-0
868.5741	-0
868.7363	-0
868.8986	-0.5459
869.0608	0.0069
869.223	-0.4842
869.3851	-0
869.5473	0.3534
869.7094	-0
869.8715	-0
870.0336	-0.0966
870.1957	-0
870.3577	-0
870.5197	-0.1247
870.6817	-0.9838
870.8437	-0.481
871.0057	-0.1572
871.1676	-0.0545
871.3295	-0
871.4914	-1.1271
871.6533	-0.1415
871.8151	0.4097
871.977	-0.4245
872.1388	0.0267
872.3006	0.1747
872.4623	-0.2391
872.6241	0.3093
872.7858	0.4279
872.9475	0.444
873.1092	0.0017
873.2709	2.2755
873.4325	-1.8186
873.5941	-0
873.7557	-0
873.9173	0.1015
874.0789	-0.1211
874.2404	0.2565
874.4019	0.3308
874.5634	-0
874.7249	-0
874.8863	0.3073
875.0478	-0.1896
875.2092	-0
875.3706	0.2465
875.5319	-0.4216
875.6933	1.1023
875.8546	-0
876.0159	0.157
876.1772	-0
876.3385	-0
876.4997	-0
876.6609	-0
876.8221	-0
876.9833	0.0587
877.1445	0.377
877.3056	0.7924
877.4667	-0.7583
877.6278	0.7188
877.7889	-0.1873
877.9499	1.8932
878.111	-0.3047
878.272	1.0414
878.433	-0
878.5939	0.3729
878.7549	-0
878.9158	-0.0939
879.0767	0.056
879.2376	-0
879.3984	1.2342
879.5593	0.3255
879.7201	-2.008
879.8809	-0
880.0417	-0.2073
880.2024	0.2556
880.3632	-0.0638
880.5239	0.8544
880.6846	-0.6729
880.8452	-0.3123
881.0059	-0.876
881.1665	0.565
881.3271	0.8403
881.4877	-0.0323
881.6483	-0
881.8088	-0
881.9693	-0
882.1298	-0
882.2903	-0
