Data from D4ACN5uM440nmA_Absorbance_13-50-26-588.txt Node
Date: Fri Feb 21 13:50:26 GMT 2025
User: LASERRRRR
Spectrometer: FLMT03099
Trigger mode: 0
Integration Time (sec): 1.500000E-2
Scans to average: 1
Electric dark correction enabled: true
Nonlinearity correction enabled: false
Boxcar width: 0
XAxis mode: Wavelengths
Number of Pixels in Spectrum: 3648
>>>>>Begin Spectral Data<<<<<
179.3399	0.0452
179.5586	0.0452
179.7771	0.0452
179.9957	-0.1037
180.2143	-0
180.4329	0.2571
180.6514	-0
180.8699	-0
181.0885	-0.2024
181.307	-0.0462
181.5255	-0.027
181.744	0.3045
181.9625	1.1239
182.181	-0
182.3994	-0.6459
182.6179	-0.3086
182.8363	-0
183.0547	0.514
183.2732	0.1415
183.4916	0.2387
183.71	0.3215
183.9284	0.1296
184.1467	0.2079
184.3651	-0.0754
184.5835	0.2254
184.8018	0.0342
185.0201	0.0951
185.2385	0.2465
185.4568	0.1011
185.6751	0.1537
185.8934	0.123
186.1117	-0.2794
186.3299	0.2609
186.5482	0.2652
186.7664	0.5124
186.9847	-0.0656
187.2029	0.4691
187.4211	0.1242
187.6393	0.0868
187.8575	0.4664
188.0757	0.6655
188.2939	0.0838
188.512	0.2753
188.7302	0.1075
188.9483	0.6352
189.1665	0.7274
189.3846	0.1885
189.6027	0.1637
189.8208	0.3853
190.0389	-0.0378
190.257	0.1885
190.475	0.0269
190.6931	0.2134
190.9111	0.0383
191.1292	0.0692
191.3472	0.1175
191.5652	0.3284
191.7832	0.326
192.0012	0.1791
192.2192	0.1768
192.4371	0.1626
192.6551	0.1423
192.873	0.2293
193.091	0.1924
193.3089	0.2039
193.5268	0.1539
193.7447	0.1954
193.9626	0.328
194.1805	0.185
194.3984	0.141
194.6162	0.339
194.8341	0.3326
195.0519	0.2253
195.2697	0.29
195.4875	0.3145
195.7054	0.3168
195.9231	0.1937
196.1409	0.3532
196.3587	0.3123
196.5765	0.3532
196.7942	0.3442
197.012	0.3436
197.2297	0.2747
197.4474	0.4052
197.6651	0.3472
197.8828	0.2749
198.1005	0.4744
198.3182	0.3958
198.5358	0.3718
198.7535	0.3565
198.9711	0.3875
199.1888	0.3744
199.4064	0.4251
199.624	0.3628
199.8416	0.353
200.0592	0.4111
200.2767	0.432
200.4943	0.4912
200.7119	0.3947
200.9294	0.4174
201.1469	0.4801
201.3645	0.4664
201.582	0.3824
201.7995	0.4058
202.017	0.3979
202.2344	0.4152
202.4519	0.3783
202.6694	0.4113
202.8868	0.4002
203.1042	0.418
203.3217	0.3704
203.5391	0.405
203.7565	0.3412
203.9739	0.366
204.1913	0.3378
204.4086	0.3514
204.626	0.3629
204.8433	0.3757
205.0607	0.3681
205.278	0.3508
205.4953	0.3604
205.7126	0.3486
205.9299	0.2977
206.1472	0.3258
206.3644	0.3493
206.5817	0.315
206.7989	0.3342
207.0162	0.3178
207.2334	0.3121
207.4506	0.2975
207.6678	0.3244
207.885	0.2743
208.1022	0.3255
208.3194	0.3004
208.5365	0.3019
208.7537	0.2824
208.9708	0.3006
209.1879	0.2963
209.405	0.2715
209.6222	0.2849
209.8392	0.2924
210.0563	0.2702
210.2734	0.2677
210.4905	0.2718
210.7075	0.2719
210.9245	0.2613
211.1416	0.2618
211.3586	0.2733
211.5756	0.2434
211.7926	0.2651
212.0096	0.2709
212.2265	0.2513
212.4435	0.243
212.6604	0.2503
212.8774	0.2338
213.0943	0.2409
213.3112	0.2423
213.5281	0.2278
213.745	0.2383
213.9619	0.2594
214.1788	0.2617
214.3956	0.2423
214.6125	0.2508
214.8293	0.2478
215.0461	0.2636
215.2629	0.2503
215.4798	0.2482
215.6965	0.2425
215.9133	0.2347
216.1301	0.2344
216.3469	0.2446
216.5636	0.2459
216.7803	0.2423
216.9971	0.2656
217.2138	0.2491
217.4305	0.2384
217.6472	0.2423
217.8639	0.2436
218.0805	0.2536
218.2972	0.2433
218.5138	0.2489
218.7305	0.2607
218.9471	0.2385
219.1637	0.2704
219.3803	0.2529
219.5969	0.2509
219.8135	0.2691
220.0301	0.2644
220.2466	0.2562
220.4632	0.2595
220.6797	0.2556
220.8962	0.2552
221.1127	0.269
221.3292	0.2519
221.5457	0.2742
221.7622	0.2623
221.9787	0.2867
222.1951	0.2649
222.4116	0.2703
222.628	0.2737
222.8444	0.2666
223.0608	0.2665
223.2772	0.2832
223.4936	0.2732
223.71	0.2916
223.9264	0.2775
224.1427	0.289
224.3591	0.2881
224.5754	0.2857
224.7917	0.2854
225.008	0.2912
225.2243	0.3064
225.4406	0.304
225.6569	0.3107
225.8732	0.3115
226.0894	0.3022
226.3057	0.317
226.5219	0.3173
226.7381	0.3242
226.9543	0.3093
227.1705	0.3044
227.3867	0.315
227.6029	0.3143
227.8191	0.3327
228.0352	0.3456
228.2513	0.3354
228.4675	0.3426
228.6836	0.3321
228.8997	0.3469
229.1158	0.3459
229.3319	0.3503
229.548	0.3483
229.764	0.3502
229.9801	0.3638
230.1961	0.3658
230.4121	0.37
230.6282	0.3772
230.8442	0.3768
231.0602	0.3767
231.2761	0.3831
231.4921	0.3892
231.7081	0.3968
231.924	0.3981
232.14	0.4087
232.3559	0.3992
232.5718	0.4151
232.7877	0.4071
233.0036	0.4147
233.2195	0.4082
233.4353	0.4148
233.6512	0.4196
233.867	0.4293
234.0829	0.4335
234.2987	0.4314
234.5145	0.4298
234.7303	0.4315
234.9461	0.4411
235.1619	0.4344
235.3776	0.4411
235.5934	0.4404
235.8091	0.45
236.0249	0.4547
236.2406	0.4347
236.4563	0.4458
236.672	0.4398
236.8877	0.4403
237.1034	0.4422
237.319	0.4453
237.5347	0.4456
237.7503	0.4373
237.966	0.4655
238.1816	0.4494
238.3972	0.4576
238.6128	0.4618
238.8284	0.4675
239.0439	0.4614
239.2595	0.4582
239.475	0.4632
239.6906	0.4565
239.9061	0.4639
240.1216	0.4662
240.3371	0.4553
240.5526	0.4494
240.7681	0.4631
240.9836	0.466
241.199	0.4554
241.4145	0.4442
241.6299	0.4459
241.8453	0.438
242.0607	0.4389
242.2761	0.4369
242.4915	0.433
242.7069	0.4194
242.9223	0.4164
243.1376	0.4146
243.353	0.4032
243.5683	0.4015
243.7836	0.3955
243.9989	0.3825
244.2142	0.3815
244.4295	0.3803
244.6448	0.3636
244.86	0.359
245.0753	0.3493
245.2905	0.3429
245.5057	0.342
245.721	0.3373
245.9362	0.3336
246.1514	0.3258
246.3665	0.3176
246.5817	0.3058
246.7969	0.3032
247.012	0.2963
247.2271	0.2992
247.4423	0.2907
247.6574	0.2836
247.8725	0.2708
248.0876	0.2753
248.3026	0.2712
248.5177	0.2581
248.7328	0.2583
248.9478	0.2534
249.1628	0.2483
249.3779	0.242
249.5929	0.2443
249.8079	0.2411
250.0228	0.2292
250.2378	0.2311
250.4528	0.2303
250.6677	0.2202
250.8827	0.2186
251.0976	0.2146
251.3125	0.2204
251.5274	0.2155
251.7423	0.2088
251.9572	0.2037
252.172	0.21
252.3869	0.2104
252.6017	0.2012
252.8166	0.1949
253.0314	0.2015
253.2462	0.1952
253.461	0.1962
253.6758	0.1921
253.8906	0.1981
254.1053	0.1937
254.3201	0.1927
254.5348	0.1931
254.7496	0.1803
254.9643	0.1937
255.179	0.1919
255.3937	0.187
255.6083	0.1853
255.823	0.1872
256.0377	0.1849
256.2523	0.1823
256.467	0.183
256.6816	0.1865
256.8962	0.1862
257.1108	0.1885
257.3254	0.1821
257.54	0.1801
257.7545	0.1823
257.9691	0.18
258.1836	0.1772
258.3981	0.1856
258.6127	0.172
258.8272	0.1859
259.0417	0.1756
259.2561	0.1791
259.4706	0.1757
259.6851	0.1779
259.8995	0.1813
260.114	0.1791
260.3284	0.1727
260.5428	0.1829
260.7572	0.1771
260.9716	0.1786
261.186	0.1788
261.4003	0.1757
261.6147	0.175
261.829	0.1795
262.0433	0.1806
262.2577	0.1781
262.472	0.1813
262.6863	0.1851
262.9005	0.1731
263.1148	0.1799
263.3291	0.1794
263.5433	0.1845
263.7576	0.179
263.9718	0.1814
264.186	0.184
264.4002	0.1815
264.6144	0.1952
264.8286	0.1839
265.0427	0.1849
265.2569	0.1882
265.471	0.1857
265.6851	0.1904
265.8993	0.183
266.1134	0.1862
266.3275	0.1857
266.5415	0.1878
266.7556	0.1908
266.9697	0.1853
267.1837	0.1894
267.3978	0.1849
267.6118	0.1856
267.8258	0.1931
268.0398	0.1874
268.2538	0.1883
268.4677	0.178
268.6817	0.1875
268.8957	0.1765
269.1096	0.1837
269.3235	0.1782
269.5374	0.1834
269.7514	0.1867
269.9652	0.1854
270.1791	0.1816
270.393	0.1841
270.6068	0.1846
270.8207	0.1735
271.0345	0.1829
271.2483	0.1792
271.4622	0.1825
271.676	0.1802
271.8897	0.1761
272.1035	0.1835
272.3173	0.1819
272.531	0.1803
272.7448	0.1802
272.9585	0.1769
273.1722	0.1746
273.3859	0.1802
273.5996	0.1755
273.8133	0.1851
274.0269	0.1783
274.2406	0.1831
274.4542	0.18
274.6679	0.1883
274.8815	0.1926
275.0951	0.1907
275.3087	0.1885
275.5223	0.1892
275.7358	0.1898
275.9494	0.1919
276.1629	0.1928
276.3765	0.1933
276.59	0.1888
276.8035	0.1938
277.017	0.197
277.2305	0.193
277.444	0.1918
277.6574	0.1967
277.8709	0.2014
278.0843	0.1909
278.2978	0.2005
278.5112	0.1975
278.7246	0.1922
278.938	0.1993
279.1513	0.1978
279.3647	0.1932
279.5781	0.1904
279.7914	0.1877
280.0047	0.1967
280.2181	0.1895
280.4314	0.1893
280.6447	0.1937
280.8579	0.1874
281.0712	0.1926
281.2845	0.183
281.4977	0.1879
281.711	0.1872
281.9242	0.1866
282.1374	0.1926
282.3506	0.1895
282.5638	0.1878
282.7769	0.1836
282.9901	0.1858
283.2033	0.1867
283.4164	0.1879
283.6295	0.1881
283.8426	0.1847
284.0557	0.183
284.2688	0.1838
284.4819	0.1832
284.695	0.191
284.908	0.1825
285.1211	0.1862
285.3341	0.1814
285.5471	0.1837
285.7601	0.1857
285.9731	0.19
286.1861	0.1877
286.3991	0.1937
286.612	0.189
286.825	0.1895
287.0379	0.1845
287.2508	0.1864
287.4637	0.1911
287.6766	0.1822
287.8895	0.1843
288.1024	0.1866
288.3152	0.183
288.5281	0.1857
288.7409	0.1881
288.9538	0.188
289.1666	0.1882
289.3794	0.1818
289.5922	0.1797
289.8049	0.1829
290.0177	0.1858
290.2304	0.1829
290.4432	0.1923
290.6559	0.1878
290.8686	0.1897
291.0813	0.1816
291.294	0.1848
291.5067	0.1846
291.7194	0.1839
291.932	0.1858
292.1447	0.1873
292.3573	0.1864
292.5699	0.1912
292.7825	0.1836
292.9951	0.1863
293.2077	0.1832
293.4203	0.1828
293.6328	0.1852
293.8454	0.182
294.0579	0.184
294.2704	0.1964
294.4829	0.1856
294.6954	0.188
294.9079	0.1779
295.1204	0.1834
295.3328	0.1892
295.5453	0.1918
295.7577	0.1877
295.9701	0.1879
296.1825	0.193
296.3949	0.1853
296.6073	0.1831
296.8197	0.1828
297.0321	0.191
297.2444	0.179
297.4567	0.1894
297.6691	0.1874
297.8814	0.1855
298.0937	0.1851
298.306	0.1848
298.5182	0.1919
298.7305	0.1762
298.9428	0.1895
299.155	0.1833
299.3672	0.1837
299.5794	0.188
299.7916	0.1832
300.0038	0.1892
300.216	0.1796
300.4282	0.1808
300.6403	0.1889
300.8525	0.1859
301.0646	0.1856
301.2767	0.1876
301.4888	0.1854
301.7009	0.1847
301.913	0.1859
302.125	0.184
302.3371	0.1857
302.5491	0.184
302.7612	0.1979
302.9732	0.1903
303.1852	0.1847
303.3972	0.1854
303.6092	0.1908
303.8211	0.1865
304.0331	0.1796
304.245	0.1867
304.457	0.1812
304.6689	0.1827
304.8808	0.1782
305.0927	0.1817
305.3046	0.1775
305.5164	0.1804
305.7283	0.1828
305.9401	0.1771
306.152	0.1756
306.3638	0.1797
306.5756	0.1761
306.7874	0.1747
306.9992	0.1732
307.2109	0.1708
307.4227	0.1649
307.6344	0.172
307.8462	0.1654
308.0579	0.1706
308.2696	0.1654
308.4813	0.1667
308.693	0.1569
308.9046	0.1698
309.1163	0.1615
309.328	0.1593
309.5396	0.1544
309.7512	0.1516
309.9628	0.1567
310.1744	0.1528
310.386	0.1532
310.5976	0.146
310.8091	0.1524
311.0207	0.1479
311.2322	0.1445
311.4437	0.1467
311.6552	0.147
311.8667	0.1506
312.0782	0.1454
312.2897	0.1464
312.5012	0.1457
312.7126	0.1394
312.924	0.1422
313.1355	0.1418
313.3469	0.1444
313.5583	0.1422
313.7696	0.1348
313.981	0.1434
314.1924	0.1351
314.4037	0.1365
314.6151	0.1332
314.8264	0.1437
315.0377	0.1334
315.249	0.1342
315.4603	0.1347
315.6716	0.135
315.8828	0.1349
316.0941	0.1323
316.3053	0.1278
316.5165	0.1342
316.7277	0.1294
316.9389	0.1372
317.1501	0.1344
317.3613	0.1354
317.5724	0.1367
317.7836	0.1341
317.9947	0.1347
318.2058	0.1249
318.417	0.1309
318.6281	0.1312
318.8391	0.1334
319.0502	0.1347
319.2613	0.1314
319.4723	0.1245
319.6834	0.1351
319.8944	0.13
320.1054	0.1297
320.3164	0.1294
320.5274	0.1306
320.7383	0.1317
320.9493	0.1279
321.1602	0.1261
321.3712	0.1329
321.5821	0.1269
321.793	0.1304
322.0039	0.132
322.2148	0.1285
322.4257	0.1283
322.6365	0.1244
322.8474	0.1356
323.0582	0.1331
323.269	0.1337
323.4798	0.1293
323.6906	0.1283
323.9014	0.132
324.1122	0.1267
324.3229	0.1359
324.5337	0.1357
324.7444	0.1338
324.9551	0.1323
325.1658	0.1329
325.3765	0.135
325.5872	0.1319
325.7979	0.1339
326.0085	0.1295
326.2192	0.1315
326.4298	0.1381
326.6404	0.1402
326.851	0.1325
327.0616	0.1351
327.2722	0.1393
327.4828	0.1344
327.6933	0.1464
327.9039	0.135
328.1144	0.1334
328.3249	0.1436
328.5354	0.1441
328.7459	0.1335
328.9564	0.1422
329.1669	0.1426
329.3773	0.1456
329.5878	0.1429
329.7982	0.1416
330.0086	0.1407
330.219	0.1454
330.4294	0.1434
330.6398	0.147
330.8502	0.1459
331.0605	0.1463
331.2708	0.1432
331.4812	0.1415
331.6915	0.148
331.9018	0.1447
332.1121	0.1541
332.3224	0.1386
332.5326	0.1412
332.7429	0.147
332.9531	0.1512
333.1633	0.1467
333.3735	0.1389
333.5837	0.1458
333.7939	0.1451
334.0041	0.1511
334.2143	0.1411
334.4244	0.1547
334.6346	0.148
334.8447	0.1385
335.0548	0.146
335.2649	0.1509
335.475	0.1459
335.685	0.144
335.8951	0.146
336.1051	0.1518
336.3152	0.1515
336.5252	0.1443
336.7352	0.1431
336.9452	0.1441
337.1552	0.1451
337.3652	0.1436
337.5751	0.145
337.7851	0.1474
337.995	0.15
338.2049	0.1391
338.4148	0.1477
338.6247	0.1452
338.8346	0.1454
339.0445	0.1431
339.2543	0.1494
339.4642	0.1474
339.674	0.1415
339.8838	0.1499
340.0936	0.1515
340.3034	0.1452
340.5132	0.1437
340.7229	0.1545
340.9327	0.1579
341.1424	0.1449
341.3522	0.1521
341.5619	0.1534
341.7716	0.1538
341.9813	0.154
342.1909	0.1559
342.4006	0.152
342.6102	0.1514
342.8199	0.1599
343.0295	0.1501
343.2391	0.1587
343.4487	0.162
343.6583	0.1688
343.8679	0.156
344.0774	0.1554
344.287	0.1593
344.4965	0.1624
344.706	0.1647
344.9155	0.1522
345.125	0.1618
345.3345	0.1667
345.544	0.1643
345.7534	0.1731
345.9629	0.1742
346.1723	0.1693
346.3817	0.1655
346.5911	0.1697
346.8005	0.1786
347.0099	0.1723
347.2193	0.1817
347.4286	0.1776
347.638	0.1709
347.8473	0.1745
348.0566	0.1788
348.2659	0.172
348.4752	0.1725
348.6845	0.1819
348.8937	0.1798
349.103	0.1816
349.3122	0.1781
349.5214	0.1795
349.7306	0.1872
349.9398	0.1787
350.149	0.1702
350.3582	0.1808
350.5674	0.1825
350.7765	0.1813
350.9856	0.1758
351.1948	0.1792
351.4039	0.1813
351.613	0.1762
351.822	0.1941
352.0311	0.1886
352.2402	0.1806
352.4492	0.1795
352.6582	0.1861
352.8672	0.1828
353.0762	0.1849
353.2852	0.182
353.4942	0.183
353.7032	0.1823
353.9121	0.1838
354.1211	0.1941
354.33	0.1842
354.5389	0.1833
354.7478	0.1865
354.9567	0.1908
355.1655	0.1813
355.3744	0.1867
355.5833	0.184
355.7921	0.1875
356.0009	0.1832
356.2097	0.1846
356.4185	0.1886
356.6273	0.1888
356.8361	0.1816
357.0448	0.1869
357.2536	0.1923
357.4623	0.185
357.671	0.1877
357.8797	0.1905
358.0884	0.1849
358.2971	0.1938
358.5057	0.1945
358.7144	0.1872
358.923	0.1956
359.1316	0.1923
359.3402	0.1934
359.5488	0.1946
359.7574	0.1913
359.966	0.1955
360.1746	0.1878
360.3831	0.2032
360.5916	0.2017
360.8002	0.1984
361.0087	0.1971
361.2172	0.1948
361.4256	0.1977
361.6341	0.2054
361.8426	0.1927
362.051	0.2017
362.2594	0.1956
362.4678	0.1986
362.6762	0.2029
362.8846	0.2026
363.093	0.2075
363.3014	0.2102
363.5097	0.2068
363.718	0.2108
363.9264	0.2125
364.1347	0.2075
364.343	0.214
364.5513	0.2126
364.7595	0.2161
364.9678	0.2132
365.176	0.2199
365.3842	0.2154
365.5925	0.2219
365.8007	0.211
366.0089	0.2292
366.217	0.2204
366.4252	0.221
366.6333	0.223
366.8415	0.2236
367.0496	0.219
367.2577	0.221
367.4658	0.218
367.6739	0.2179
367.882	0.2325
368.09	0.2187
368.2981	0.2271
368.5061	0.2233
368.7141	0.2284
368.9221	0.2307
369.1301	0.2226
369.3381	0.2275
369.5461	0.2342
369.754	0.234
369.962	0.2329
370.1699	0.2313
370.3778	0.2368
370.5857	0.2417
370.7936	0.2301
371.0015	0.2298
371.2093	0.2354
371.4172	0.2398
371.625	0.2367
371.8328	0.2287
372.0406	0.246
372.2484	0.2381
372.4562	0.2443
372.664	0.2401
372.8717	0.2414
373.0795	0.2518
373.2872	0.2527
373.4949	0.2386
373.7026	0.2404
373.9103	0.2395
374.118	0.2482
374.3256	0.2415
374.5333	0.2452
374.7409	0.2382
374.9485	0.2469
375.1561	0.2513
375.3637	0.2434
375.5713	0.2499
375.7789	0.2403
375.9864	0.2445
376.194	0.257
376.4015	0.249
376.609	0.2507
376.8165	0.2562
377.024	0.2522
377.2315	0.2522
377.4389	0.2554
377.6464	0.2509
377.8538	0.2572
378.0612	0.2656
378.2686	0.2597
378.476	0.2638
378.6834	0.2559
378.8908	0.2703
379.0981	0.2527
379.3055	0.2614
379.5128	0.2581
379.7201	0.2616
379.9274	0.262
380.1347	0.2561
380.342	0.2692
380.5492	0.2667
380.7565	0.2665
380.9637	0.2671
381.1709	0.265
381.3781	0.2662
381.5853	0.2613
381.7925	0.2685
381.9997	0.2721
382.2068	0.269
382.4139	0.2682
382.6211	0.2715
382.8282	0.2803
383.0353	0.2751
383.2424	0.2636
383.4494	0.266
383.6565	0.2797
383.8635	0.2773
384.0706	0.2905
384.2776	0.2745
384.4846	0.2772
384.6916	0.2835
384.8986	0.2741
385.1055	0.2739
385.3125	0.2784
385.5194	0.2768
385.7263	0.2797
385.9333	0.2861
386.1402	0.279
386.347	0.2745
386.5539	0.277
386.7608	0.2757
386.9676	0.2799
387.1744	0.2681
387.3813	0.2875
387.5881	0.2853
387.7948	0.2789
388.0016	0.2843
388.2084	0.2751
388.4151	0.2739
388.6219	0.2647
388.8286	0.2822
389.0353	0.2703
389.242	0.2703
389.4487	0.2668
389.6553	0.2641
389.862	0.2661
390.0686	0.2748
390.2753	0.2759
390.4819	0.2652
390.6885	0.267
390.8951	0.2718
391.1016	0.2709
391.3082	0.261
391.5147	0.2583
391.7213	0.2691
391.9278	0.2535
392.1343	0.2585
392.3408	0.2603
392.5473	0.2613
392.7537	0.2557
392.9602	0.2599
393.1666	0.2618
393.373	0.2485
393.5794	0.2469
393.7858	0.2583
393.9922	0.252
394.1986	0.2503
394.4049	0.2515
394.6113	0.2497
394.8176	0.2561
395.0239	0.2433
395.2302	0.2518
395.4365	0.2461
395.6428	0.2452
395.8491	0.2473
396.0553	0.2456
396.2615	0.2493
396.4678	0.2535
396.674	0.2418
396.8802	0.2283
397.0863	0.2327
397.2925	0.2372
397.4987	0.2368
397.7048	0.2488
397.9109	0.2396
398.117	0.2338
398.3231	0.2385
398.5292	0.2203
398.7353	0.2378
398.9413	0.2314
399.1474	0.2285
399.3534	0.2355
399.5594	0.2379
399.7654	0.2306
399.9714	0.2376
400.1774	0.237
400.3833	0.2348
400.5893	0.235
400.7952	0.2386
401.0011	0.2291
401.207	0.2364
401.4129	0.2347
401.6188	0.2327
401.8247	0.2451
402.0305	0.2279
402.2364	0.2263
402.4422	0.2224
402.648	0.2355
402.8538	0.2284
403.0596	0.2344
403.2654	0.2353
403.4711	0.2266
403.6768	0.2291
403.8826	0.2289
404.0883	0.236
404.294	0.2361
404.4997	0.2275
404.7054	0.2358
404.911	0.2286
405.1167	0.2282
405.3223	0.2294
405.5279	0.231
405.7335	0.2312
405.9391	0.2289
406.1447	0.2284
406.3502	0.2346
406.5558	0.2263
406.7613	0.2318
406.9668	0.22
407.1724	0.2312
407.3778	0.2328
407.5833	0.2216
407.7888	0.2323
407.9942	0.2321
408.1997	0.2265
408.4051	0.2411
408.6105	0.2344
408.8159	0.2275
409.0213	0.2363
409.2267	0.242
409.432	0.2331
409.6374	0.2333
409.8427	0.24
410.048	0.2315
410.2533	0.2433
410.4586	0.2172
410.6639	0.2293
410.8691	0.2257
411.0744	0.2278
411.2796	0.2283
411.4848	0.2357
411.69	0.2191
411.8952	0.236
412.1004	0.2261
412.3056	0.2284
412.5107	0.2289
412.7158	0.2296
412.921	0.2305
413.1261	0.2284
413.3312	0.2397
413.5362	0.2463
413.7413	0.2192
413.9464	0.2181
414.1514	0.224
414.3564	0.2129
414.5614	0.2231
414.7664	0.2221
414.9714	0.2098
415.1764	0.2274
415.3813	0.2293
415.5863	0.2269
415.7912	0.2157
415.9961	0.2293
416.201	0.228
416.4059	0.2292
416.6108	0.2276
416.8156	0.2276
417.0205	0.2139
417.2253	0.2177
417.4301	0.2288
417.6349	0.2207
417.8397	0.2226
418.0445	0.2185
418.2492	0.2173
418.454	0.2141
418.6587	0.217
418.8634	0.2211
419.0681	0.2318
419.2728	0.2209
419.4775	0.227
419.6822	0.2222
419.8868	0.2187
420.0915	0.214
420.2961	0.2098
420.5007	0.2168
420.7053	0.2098
420.9099	0.2138
421.1144	0.2109
421.319	0.209
421.5235	0.2103
421.728	0.2214
421.9325	0.2158
422.137	0.2037
422.3415	0.2032
422.546	0.2029
422.7504	0.2093
422.9549	0.2088
423.1593	0.1992
423.3637	0.2094
423.5681	0.2164
423.7725	0.1999
423.9769	0.2134
424.1812	0.2032
424.3856	0.1931
424.5899	0.1944
424.7942	0.1966
424.9985	0.1936
425.2028	0.201
425.4071	0.2118
425.6113	0.191
425.8156	0.1905
426.0198	0.2057
426.224	0.1943
426.4282	0.1798
426.6324	0.1879
426.8366	0.1857
427.0407	0.1897
427.2449	0.1853
427.449	0.1858
427.6531	0.1954
427.8572	0.1881
428.0613	0.1924
428.2654	0.1835
428.4694	0.1743
428.6735	0.1847
428.8775	0.1875
429.0815	0.1805
429.2855	0.1774
429.4895	0.1784
429.6935	0.1829
429.8975	0.1606
430.1014	0.1815
430.3053	0.1745
430.5093	0.1711
430.7132	0.169
430.9171	0.1618
431.1209	0.1658
431.3248	0.1567
431.5286	0.159
431.7325	0.167
431.9363	0.1618
432.1401	0.155
432.3439	0.165
432.5477	0.1535
432.7514	0.1545
432.9552	0.148
433.1589	0.1432
433.3627	0.1547
433.5664	0.1438
433.7701	0.1501
433.9737	0.1509
434.1774	0.1428
434.3811	0.1374
434.5847	0.1343
434.7883	0.1488
434.9919	0.1326
435.1955	0.1365
435.3991	0.1317
435.6027	0.1259
435.8062	0.147
436.0098	0.1328
436.2133	0.1249
436.4168	0.1276
436.6203	0.1222
436.8238	0.1209
437.0272	0.1272
437.2307	0.1114
437.4341	0.1193
437.6375	0.124
437.841	0.1089
438.0443	0.1168
438.2477	0.1037
438.4511	0.1046
438.6545	0.1101
438.8578	0.1151
439.0611	0.1195
439.2644	0.1168
439.4677	0.1058
439.671	0.0961
439.8743	0.1029
440.0775	0.0957
440.2808	0.1022
440.484	0.1014
440.6872	0.1
440.8904	0.0891
441.0936	0.0937
441.2967	0.0884
441.4999	0.0885
441.703	0.0919
441.9062	0.0974
442.1093	0.1012
442.3124	0.0873
442.5155	0.0829
442.7185	0.0791
442.9216	0.0814
443.1246	0.084
443.3276	0.0784
443.5307	0.0706
443.7337	0.073
443.9366	0.0735
444.1396	0.0689
444.3426	0.077
444.5455	0.0726
444.7484	0.0668
444.9513	0.0664
445.1542	0.0771
445.3571	0.0627
445.56	0.0641
445.7628	0.0682
445.9657	0.0723
446.1685	0.0702
446.3713	0.0693
446.5741	0.0653
446.7769	0.0643
446.9797	0.0596
447.1824	0.06
447.3852	0.0455
447.5879	0.0541
447.7906	0.0462
447.9933	0.0596
448.196	0.0516
448.3986	0.0523
448.6013	0.0464
448.8039	0.0553
449.0066	0.0604
449.2092	0.0517
449.4118	0.048
449.6143	0.0518
449.8169	0.0444
450.0195	0.0527
450.222	0.0514
450.4245	0.0531
450.627	0.0493
450.8295	0.0427
451.032	0.0368
451.2345	0.0345
451.4369	0.0393
451.6394	0.0408
451.8418	0.0335
452.0442	0.0408
452.2466	0.031
452.449	0.04
452.6513	0.0344
452.8537	0.0259
453.056	0.0302
453.2583	0.0282
453.4607	0.0214
453.663	0.028
453.8652	0.0307
454.0675	0.0379
454.2697	0.0231
454.472	0.0295
454.6742	0.032
454.8764	0.036
455.0786	0.024
455.2808	0.0241
455.4829	0.0369
455.6851	0.0296
455.8872	0.0249
456.0893	0.0337
456.2915	0.0197
456.4935	0.0276
456.6956	0.0254
456.8977	0.0235
457.0997	0.0321
457.3018	0.0181
457.5038	0.0299
457.7058	0.0267
457.9078	0.024
458.1098	0.0276
458.3117	0.023
458.5137	0.0106
458.7156	0.0167
458.9175	0.0247
459.1194	0.0192
459.3213	0.0181
459.5232	0.022
459.725	0.0173
459.9269	0.0186
460.1287	0.0142
460.3305	0.0197
460.5323	0.018
460.7341	0.0186
460.9359	0.0071
461.1376	0.0192
461.3394	0.0124
461.5411	0.0213
461.7428	0.0151
461.9445	0.0137
462.1462	0.0116
462.3479	0.0153
462.5495	0.0272
462.7512	0.0291
462.9528	0.0149
463.1544	0.0126
463.356	0.0056
463.5576	0.0222
463.7592	0.0148
463.9607	0.0085
464.1623	0.0161
464.3638	0.0135
464.5653	0.007
464.7668	0.0218
464.9683	0.0154
465.1697	0.0111
465.3712	0.0106
465.5726	0.0073
465.7741	0.018
465.9755	0.004
466.1769	0.0123
466.3782	0.0106
466.5796	0.0184
466.7809	0.0124
466.9823	0.0122
467.1836	0.0082
467.3849	0.0105
467.5862	0.0015
467.7875	0.0117
467.9887	0.0095
468.19	0.0089
468.3912	0.009
468.5924	0.0068
468.7936	0.0189
468.9948	0.0082
469.196	0.014
469.3972	0.0059
469.5983	0.0116
469.7994	0.0147
470.0006	0.0119
470.2017	0.0087
470.4027	0.0216
470.6038	0.0156
470.8049	0.0035
471.0059	0.0141
471.2069	0.0107
471.408	0.0143
471.6089	0.0068
471.8099	0.0229
472.0109	0.0112
472.2119	0.0168
472.4128	0.0083
472.6137	0.0107
472.8146	0.0109
473.0155	0.0141
473.2164	0.0134
473.4173	0.0054
473.6181	0.0083
473.819	0.0032
474.0198	0.0057
474.2206	0.0033
474.4214	0.0083
474.6222	-0.0002
474.8229	0.0057
475.0237	0.0211
475.2244	0.0063
475.4251	0.003
475.6258	0.0006
475.8265	0.012
476.0272	0.0074
476.2278	0.009
476.4285	0.0068
476.6291	0.0015
476.8297	0.0135
477.0303	-0.0033
477.2309	0.0055
477.4315	0.0087
477.632	0.0013
477.8326	0.0075
478.0331	0.0094
478.2336	0.0036
478.4341	0.0146
478.6346	0.0007
478.8351	0.0042
479.0355	0.0098
479.236	0.0116
479.4364	0.0086
479.6368	0.0089
479.8372	0.0058
480.0376	0.0065
480.2379	0.0076
480.4383	0.0175
480.6386	0.0011
480.8389	0.0003
481.0392	-0.0001
481.2395	0.0108
481.4398	0.0028
481.6401	0.0087
481.8403	0.0014
482.0405	0.0098
482.2408	0.0126
482.441	0.0045
482.6411	0.0093
482.8413	-0.0009
483.0415	0.0102
483.2416	0.004
483.4417	0.0148
483.6419	0.0015
483.8419	0.0038
484.042	0.0029
484.2421	0.0078
484.4422	0.0074
484.6422	0.0119
484.8422	0.0045
485.0422	0.0081
485.2422	0.0022
485.4422	0.0038
485.6422	0.0025
485.8421	0.0059
486.042	0.0085
486.242	-0.0003
486.4419	0.0032
486.6417	0.0036
486.8416	0.0063
487.0415	0.0027
487.2413	-0.0026
487.4411	0.0076
487.641	0.001
487.8408	0.0073
488.0405	0.0121
488.2403	0.0073
488.4401	0.0104
488.6398	0.0119
488.8395	0.0019
489.0392	0.0102
489.2389	0.0146
489.4386	-0.005
489.6383	0.0075
489.8379	0.006
490.0376	0.0169
490.2372	0.0036
490.4368	0.0098
490.6364	0.0061
490.836	-0.0024
491.0355	0.0005
491.2351	0.0068
491.4346	0.0115
491.6341	-0.0003
491.8336	0.0054
492.0331	0.0086
492.2326	0.0151
492.432	0.0069
492.6315	0.0101
492.8309	0.0045
493.0303	0.0091
493.2297	0.0126
493.4291	0.0041
493.6284	0.0152
493.8278	0.0034
494.0271	-0.0001
494.2264	0.0053
494.4257	0.0052
494.625	0.009
494.8243	0.0079
495.0236	0.0116
495.2228	0.0002
495.422	0.0126
495.6213	0.0059
495.8205	0.005
496.0196	0.0046
496.2188	-0.0007
496.418	0.0085
496.6171	-0.0012
496.8162	0.0091
497.0153	0.0102
497.2144	0.0106
497.4135	0.0068
497.6126	0.005
497.8116	0.0013
498.0107	0.0115
498.2097	0.0079
498.4087	0.0125
498.6077	-0.0024
498.8067	0.0088
499.0056	0.0066
499.2046	0.0033
499.4035	0.0028
499.6024	-0.0033
499.8013	0.0099
500.0002	0.0106
500.199	0.0108
500.3979	-0.0008
500.5967	0.0091
500.7956	0.004
500.9944	0.0081
501.1932	0.0094
501.3919	0.0056
501.5907	0.0069
501.7895	-0.0024
501.9882	0.0055
502.1869	0.0118
502.3856	0.0023
502.5843	-0
502.783	0.0086
502.9816	0.0077
503.1803	0.0085
503.3789	0.0117
503.5775	0.0053
503.7761	0.0014
503.9747	0.0064
504.1732	0.0062
504.3718	0.0203
504.5703	0.0038
504.7689	-0.0032
504.9674	0.0044
505.1658	0.0043
505.3643	0.0085
505.5628	0.0092
505.7612	0.0082
505.9597	0.0002
506.1581	0.0007
506.3565	-0.0004
506.5549	0.0053
506.7532	0.0034
506.9516	-0.0012
507.1499	0.0079
507.3482	0.0014
507.5465	0.0075
507.7448	0.0067
507.9431	0.0127
508.1414	-0.0011
508.3396	0.0087
508.5379	-0.0037
508.7361	0.0089
508.9343	0.0053
509.1325	-0.0011
509.3306	-0.0021
509.5288	-0.0042
509.7269	0.0104
509.9251	0.0114
510.1232	0.0054
510.3213	0.014
510.5193	0.0039
510.7174	0.0038
510.9154	0.0112
511.1135	0.0021
511.3115	0.0079
511.5095	0.0104
511.7075	0.0123
511.9055	0.0064
512.1034	-0.001
512.3014	0.0007
512.4993	0.01
512.6972	0.0025
512.8951	0.0036
513.093	0.0047
513.2908	0.0182
513.4887	-0.0006
513.6865	0.007
513.8844	0.0143
514.0822	0.0069
514.2799	-0.0015
514.4777	0.002
514.6755	0.0093
514.8732	0.0045
515.0709	0.0062
515.2687	0.006
515.4664	0.0142
515.664	0.0068
515.8617	0.0102
516.0594	0.0025
516.257	0.0098
516.4546	0.0201
516.6522	0.0066
516.8498	0.0038
517.0474	0.0165
517.2449	0.0102
517.4425	0.0049
517.64	0.0138
517.8375	0.0059
518.035	-0.0017
518.2325	0.0013
518.43	-0.0017
518.6274	0.0087
518.8249	-0.0038
519.0223	0.005
519.2197	0.0013
519.4171	0.0069
519.6145	0.0106
519.8118	-0.0036
520.0092	0.0046
520.2065	0.0184
520.4038	0.0078
520.6011	0.0167
520.7984	0.0135
520.9956	0.0074
521.1929	0.0094
521.3901	0.0088
521.5874	0.0062
521.7846	0.0041
521.9818	0.0027
522.1789	-0.0048
522.3761	0.027
522.5732	0.0034
522.7704	-0.0094
522.9675	-0.0061
523.1646	0.006
523.3617	0.0161
523.5587	0.0044
523.7558	0.01
523.9528	0.0069
524.1498	0.0001
524.3468	-0.0004
524.5438	0.0031
524.7408	-0.0004
524.9378	0.0152
525.1347	0.0127
525.3316	0.0015
525.5285	0.0061
525.7254	0.011
525.9223	0.0183
526.1192	0.0079
526.316	0.0077
526.5129	0.007
526.7097	0.0029
526.9065	0.0089
527.1033	0.008
527.3	0.009
527.4968	0.0111
527.6935	-0.0016
527.8903	0.0048
528.087	0.006
528.2837	0.0146
528.4804	0.0024
528.677	0.001
528.8737	0.0125
529.0703	0.0075
529.2669	0.0173
529.4635	-0.009
529.6601	0.0019
529.8567	-0.0044
530.0532	0.0054
530.2498	-0.0025
530.4463	-0.0011
530.6428	0.0061
530.8393	0.0119
531.0358	0.006
531.2322	-0.0038
531.4287	0.0068
531.6251	-0.0049
531.8215	0.0005
532.0179	0.0133
532.2143	0.0028
532.4107	0.0097
532.607	0.0012
532.8034	0.0043
532.9997	-0.0007
533.196	0.0109
533.3923	0.0144
533.5886	0.013
533.7848	0.0087
533.9811	0.0087
534.1773	0.0091
534.3735	0.0124
534.5697	0.0027
534.7659	0.0079
534.9621	0.0147
535.1582	0.0145
535.3544	0.0087
535.5505	0.0067
535.7466	0.0101
535.9427	0.0068
536.1387	0.0004
536.3348	0.0115
536.5308	0.0053
536.7269	0.0025
536.9229	0.011
537.1189	0.0049
537.3148	0.0043
537.5108	0.0064
537.7068	0.0168
537.9027	-0.0057
538.0986	0.0082
538.2945	0.0044
538.4904	0.0021
538.6863	-0.0019
538.8821	0.0085
539.078	0.0061
539.2738	0.0026
539.4696	-0.0079
539.6654	0.0026
539.8611	0.0165
540.0569	-0.0003
540.2526	0.0144
540.4484	-0.0079
540.6441	0.0087
540.8398	0.0078
541.0355	-0.0067
541.2311	0.0018
541.4268	0.0157
541.6224	0.0125
541.818	0.0144
542.0136	0.0129
542.2092	0.0174
542.4048	0.0061
542.6003	-0.0012
542.7959	0.0097
542.9914	0.021
543.1869	0.0063
543.3824	0.011
543.5779	0.0105
543.7734	0.0094
543.9688	0.0031
544.1642	-0.0043
544.3596	0.0141
544.555	0.0011
544.7504	0.0172
544.9458	0.0096
545.1411	0.0021
545.3365	0.0084
545.5318	0.0026
545.7271	0.0108
545.9224	0.0033
546.1177	0.0081
546.3129	0.0099
546.5081	-0.0001
546.7034	0.0124
546.8986	0.0075
547.0938	0.0001
547.289	0.0071
547.4841	0.006
547.6793	0.0097
547.8744	0.0158
548.0695	0.0044
548.2646	-0.0018
548.4597	-0.0015
548.6548	0.0105
548.8498	0.0068
549.0448	0.013
549.2399	0.0072
549.4349	0.0095
549.6298	0.0114
549.8248	0.0039
550.0198	0.0033
550.2147	0.0099
550.4096	0.0029
550.6045	0.0069
550.7994	0.0021
550.9943	0.0027
551.1892	-0.0035
551.384	0.0132
551.5788	0.0115
551.7737	0.004
551.9685	0.005
552.1632	0.0005
552.358	-0.0033
552.5528	0.0108
552.7475	0.0118
552.9422	0.0131
553.1369	0.0162
553.3316	0.0097
553.5263	0.0087
553.7209	0.0022
553.9156	-0.0048
554.1102	0.0101
554.3048	0.008
554.4994	0.0029
554.694	0.0116
554.8885	0.0043
555.0831	0.013
555.2776	0.0022
555.4721	0.0123
555.6666	0.006
555.8611	0.0105
556.0555	0.0013
556.25	0.0002
556.4444	-0.0048
556.6388	-0.0024
556.8332	-0.0008
557.0276	0.0044
557.222	-0.001
557.4163	0.01
557.6107	0.0044
557.805	-0.0066
557.9993	0.0107
558.1936	-0.0052
558.3879	0.008
558.5821	-0.0051
558.7764	0.0103
558.9706	-0.0025
559.1648	0.0138
559.359	-0.0061
559.5532	0.0015
559.7473	-0.0017
559.9415	0.0001
560.1356	0.0151
560.3297	0.0016
560.5238	0.0116
560.7179	0.0023
560.9119	-0.0014
561.106	0.0005
561.3	-0.0012
561.494	-0.0007
561.688	0.0052
561.882	0.0007
562.076	0.0062
562.2699	0.0115
562.4639	0.0154
562.6578	0.0093
562.8517	0.0013
563.0456	0.0115
563.2395	0.0123
563.4333	0.0066
563.6272	0.0035
563.821	-0.0036
564.0148	0.0005
564.2086	0.0097
564.4024	0.0065
564.5961	0.0083
564.7899	0.0208
564.9836	0.0036
565.1773	0.0093
565.371	0.0051
565.5647	0.009
565.7584	0.022
565.952	0.0078
566.1456	0.0079
566.3393	0.0076
566.5329	-0.0018
566.7264	0.0099
566.92	0.0122
567.1136	-0.0002
567.3071	-0.0039
567.5006	0.0139
567.6941	0.0131
567.8876	0.0048
568.0811	0.0159
568.2745	0.0019
568.468	0.0098
568.6614	0.0118
568.8548	0.0107
569.0482	0.0022
569.2416	0.0076
569.4349	0.0067
569.6283	0.0006
569.8216	0.0122
570.0149	0.0023
570.2082	0.0082
570.4015	0.003
570.5947	0.0074
570.788	0.0088
570.9812	0.0061
571.1744	0.0026
571.3676	0.0069
571.5608	0.0026
571.754	0.0133
571.9471	0.0096
572.1402	0.0078
572.3333	0.0068
572.5264	0.0043
572.7195	0.005
572.9126	0.0053
573.1057	0.0024
573.2987	0.0021
573.4917	0.0036
573.6847	0.0008
573.8777	0.0082
574.0707	0.0018
574.2636	0.002
574.4566	0.0019
574.6495	0.0046
574.8424	0.0061
575.0353	0.0072
575.2281	0.004
575.421	0.0027
575.6138	0.0026
575.8067	0.0008
575.9995	0.0009
576.1923	0.006
576.385	0.0073
576.5778	0.0074
576.7706	0.0045
576.9633	0.0056
577.156	-0.0024
577.3487	0.0047
577.5414	0.0033
577.734	0.0028
577.9267	0.0084
578.1193	0.0088
578.3119	0.003
578.5045	0.0039
578.6971	0.0022
578.8897	0.0037
579.0822	0.0066
579.2747	0.0022
579.4673	0.0051
579.6598	0.0083
579.8522	0.0029
580.0447	0.0046
580.2372	0.0108
580.4296	0.0097
580.622	0.0055
580.8144	0.0053
581.0068	0.0079
581.1992	0.0071
581.3915	0
581.5839	0.0036
581.7762	0.0054
581.9685	0.003
582.1608	0.0049
582.353	0.0044
582.5453	0.007
582.7375	0.0065
582.9298	-0.0012
583.122	0
583.3142	0.0073
583.5063	0.0042
583.6985	0.0044
583.8906	0.0049
584.0827	0.0038
584.2749	0.0015
584.4669	-0.0012
584.659	0.0083
584.8511	0.0085
585.0431	0.0086
585.2352	0.0053
585.4272	0.0078
585.6192	0.004
585.8111	0.0036
586.0031	0.0023
586.195	0.0042
586.387	0.0025
586.5789	0.0079
586.7708	0.0066
586.9627	0.0071
587.1545	0.0056
587.3464	0.0036
587.5382	0.0065
587.73	0.0117
587.9218	0.0026
588.1136	0.0064
588.3053	0.0048
588.4971	0.0017
588.6888	0.0036
588.8805	0.0043
589.0722	0.0093
589.2639	0.0034
589.4556	0.0106
589.6472	0.0158
589.8389	0.0059
590.0305	-0.0022
590.2221	0.0104
590.4137	0.0061
590.6052	-0.0009
590.7968	0.0034
590.9883	-0.0016
591.1798	0.0074
591.3713	0.0058
591.5628	0.0064
591.7543	0.0065
591.9458	0.0013
592.1372	0.0112
592.3286	0.0022
592.52	0.0035
592.7114	0.0074
592.9028	0.0092
593.0941	0.0044
593.2855	0.0064
593.4768	0.0093
593.6681	0.0086
593.8594	0.0092
594.0506	0.0078
594.2419	0.0024
594.4331	0.004
594.6244	0.0037
594.8156	0.0056
595.0067	-0.0024
595.1979	-0.0019
595.3891	0.0068
595.5802	0.01
595.7713	0.0041
595.9624	0.0063
596.1535	0.006
596.3446	0.0014
596.5357	0.0079
596.7267	0.0082
596.9177	0.0085
597.1087	0.0018
597.2997	0.0112
597.4907	0.0014
597.6817	0.0122
597.8726	0.0092
598.0635	0.0016
598.2544	0.0063
598.4453	0.0083
598.6362	0.0063
598.827	0.0022
599.0179	0.0087
599.2087	0.0073
599.3995	0.0076
599.5903	0.01
599.7811	0.0037
599.9718	0.0014
600.1626	0.0022
600.3533	0.0045
600.544	0.0064
600.7347	0.006
600.9254	0.0088
601.116	0.005
601.3067	0.0011
601.4973	0.011
601.6879	0.0035
601.8785	0.0086
602.0691	0.0082
602.2596	0.0058
602.4502	0.0092
602.6407	0.0031
602.8312	0.008
603.0217	0.0038
603.2122	0.0037
603.4027	0.0004
603.5931	0.0033
603.7835	0.0031
603.9739	0.0099
604.1643	0.0129
604.3547	0.0111
604.5451	0.0078
604.7354	-0.0035
604.9257	0.0036
605.116	-0.0019
605.3063	0.0061
605.4966	0.0028
605.6869	0.0083
605.8771	0.006
606.0673	0.0066
606.2575	0.0011
606.4477	0.0096
606.6379	-0.0002
606.8281	-0
607.0182	0.0066
607.2083	0.0075
607.3985	0.0089
607.5885	0.0065
607.7786	0.0005
607.9687	0.0047
608.1587	0.0067
608.3488	0.0052
608.5388	0.0022
608.7288	-0.0077
608.9187	0.0032
609.1087	0.0043
609.2986	0.0091
609.4886	0.0019
609.6785	0.0018
609.8684	0.0016
610.0582	0.003
610.2481	-0.0001
610.4379	0.0054
610.6278	0.0012
610.8176	0.0055
611.0074	0.0066
611.1971	0.0038
611.3869	0.0038
611.5766	-0.0022
611.7664	0.0078
611.9561	0.0087
612.1458	-0.0002
612.3354	-0.0003
612.5251	0.0054
612.7147	0.0114
612.9044	0.0015
613.094	0.0021
613.2836	-0.001
613.4731	0.0069
613.6627	0.0112
613.8522	0.0102
614.0417	0.0049
614.2313	0.0033
614.4207	0.008
614.6102	-0.0002
614.7997	0.0103
614.9891	0.0107
615.1785	0.0012
615.3679	0.0051
615.5573	0.0076
615.7467	-0.0041
615.9361	0.0068
616.1254	0.0075
616.3147	0.0134
616.504	0.0045
616.6933	0.0023
616.8826	0.0008
617.0718	0.0109
617.2611	0.0074
617.4503	0.002
617.6395	0.0056
617.8287	0.0074
618.0179	0.0034
618.207	0.014
618.3961	-0.0004
618.5853	-0.0008
618.7744	0.015
618.9634	0.0155
619.1525	-0.0012
619.3416	0.0047
619.5306	0.0123
619.7196	0.0107
619.9086	0.0009
620.0976	-0.0047
620.2866	0.0073
620.4755	0.0036
620.6645	0.0083
620.8534	0.0023
621.0423	-0.0016
621.2312	0.0046
621.42	0.0156
621.6089	0.0061
621.7977	-0.001
621.9865	0.0088
622.1753	-0.0048
622.3641	-0.0088
622.5529	0.0066
622.7416	0.0055
622.9303	0.0008
623.1191	0.0059
623.3078	0.0121
623.4964	0.0063
623.6851	0.0105
623.8737	0.0037
624.0624	-0.0027
624.251	0.0029
624.4396	0.0027
624.6282	0.0104
624.8167	-0
625.0053	0.0176
625.1938	0.0042
625.3823	0.0047
625.5708	-0.0004
625.7593	0.0039
625.9477	0.0089
626.1362	0.0008
626.3246	0.0028
626.513	0.0031
626.7014	0.0133
626.8898	0.0135
627.0781	0.0046
627.2665	0.0074
627.4548	-0.0067
627.6431	0.0106
627.8314	0.0104
628.0197	0.0093
628.2079	0.0114
628.3962	0.0078
628.5844	0.0061
628.7726	-0.0026
628.9608	0.0082
629.1489	0.0045
629.3371	-0.0134
629.5252	0.0056
629.7134	-0.002
629.9015	0.0163
630.0895	-0.0033
630.2776	0.0041
630.4657	0.0165
630.6537	0.0113
630.8417	-0.0024
631.0297	0.009
631.2177	0.0103
631.4057	0.0147
631.5936	0.0078
631.7815	0.0051
631.9695	0.0112
632.1574	0.0098
632.3452	0.0153
632.5331	0.0084
632.7209	0.0123
632.9088	0.0008
633.0966	0.0275
633.2844	0.0054
633.4722	0.0033
633.6599	0.0225
633.8477	0.0117
634.0354	0.0114
634.2231	-0.0101
634.4108	0.0119
634.5985	0.0144
634.7861	0.0001
634.9738	0.0068
635.1614	0.0119
635.349	-0.0095
635.5366	0.0248
635.7242	-0.0015
635.9117	0.0165
636.0993	0.0019
636.2868	0.0025
636.4743	0.0025
636.6618	0.0034
636.8492	0.003
637.0367	-0.0024
637.2241	0.0026
637.4115	0.021
637.5989	0.0093
637.7863	0.0305
637.9737	0.0071
638.161	0.0089
638.3484	0.007
638.5357	-0.0002
638.723	0.0158
638.9103	-0.0222
639.0975	0.0059
639.2848	0.011
639.472	0.0019
639.6592	-0.0024
639.8464	0.0183
640.0336	0.0057
640.2208	-0.007
640.4079	-0.0084
640.595	-0.0017
640.7821	0.0116
640.9692	0.0079
641.1563	-0.0084
641.3434	0.026
641.5304	0.0114
641.7174	0.0151
641.9044	0.0147
642.0914	0.0262
642.2784	0.0018
642.4653	0.0009
642.6523	0.0061
642.8392	-0.013
643.0261	0.0065
643.213	0.0028
643.3999	0.0041
643.5867	-0.0085
643.7735	-0.0157
643.9604	0.0038
644.1472	0.0013
644.3339	-0.013
644.5207	-0.0026
644.7075	0.0172
644.8942	0.0143
645.0809	0.0061
645.2676	-0.0142
645.4543	0.0177
645.6409	0.0249
645.8276	0.0117
646.0142	-0.0107
646.2008	0.006
646.3874	-0.0028
646.574	0.008
646.7605	0.0085
646.9471	0.018
647.1336	0.0008
647.3201	0.0059
647.5066	-0.0007
647.6931	0.0078
647.8795	0.0101
648.0659	0.0097
648.2524	0.0058
648.4388	0.0128
648.6252	0.0057
648.8115	0.0087
648.9979	-0
649.1842	0.0097
649.3705	0.0083
649.5568	-0.0075
649.7431	-0.0119
649.9294	0.0068
650.1156	-0.0051
650.3018	0.0127
650.488	0.0077
650.6742	0.0171
650.8604	0.0002
651.0466	-0.0061
651.2327	-0.0052
651.4188	-0.011
651.6049	0.0264
651.791	-0.0009
651.9771	0.014
652.1632	0.0021
652.3492	-0.0022
652.5352	0.0196
652.7212	0.0121
652.9072	-0.0059
653.0932	0.0072
653.2791	0.0036
653.465	0.0084
653.651	0.0083
653.8369	-0.0011
654.0227	0.0021
654.2086	-0.0042
654.3944	0.0065
654.5803	0.0027
654.7661	0.0023
654.9519	0.0028
655.1377	0
655.3234	0
655.5092	0
655.6949	0
655.8806	0
656.0663	0
656.2519	0
656.4376	0
656.6232	0
656.8088	0
656.9945	0
657.18	0
657.3656	0
657.5511	0
657.7367	0
657.9222	0
658.1077	0
658.2932	0
658.4786	0
658.6641	0
658.8495	0
659.0349	0
659.2203	0
659.4057	0
659.591	0.1308
659.7764	0.0268
659.9617	-0.0045
660.147	-0.0006
660.3323	-0.0057
660.5176	-0.004
660.7028	0.002
660.888	0.0096
661.0733	0.0248
661.2585	-0.0096
661.4436	0.0244
661.6288	0.0165
661.8139	-0.0001
661.9991	-0.0089
662.1842	0.0095
662.3693	0.0073
662.5544	0.0142
662.7394	0.019
662.9245	0.011
663.1095	-0.0124
663.2945	-0.0062
663.4795	-0.0103
663.6644	-0.0066
663.8494	0.0059
664.0343	0.0053
664.2193	0.0052
664.4042	0.0056
664.589	0.0017
664.7739	0.0146
664.9587	-0.0001
665.1436	-0.0018
665.3284	-0.0013
665.5132	-0.0041
665.698	0.0124
665.8827	0.0113
666.0675	-0.0119
666.2522	0.0147
666.4369	-0.0135
666.6216	0.0061
666.8063	0.0095
666.9909	0.0074
667.1756	0.0042
667.3602	0.0032
667.5448	0.0134
667.7294	0.0083
667.9139	-0.0263
668.0985	-0.0001
668.283	0.023
668.4675	0.0181
668.652	0.0309
668.8365	0.0093
669.0209	0.0187
669.2054	0.0079
669.3898	-0.0067
669.5742	0.028
669.7586	0.0205
669.943	0.0129
670.1273	0.0069
670.3117	0.0177
670.496	0.0139
670.6803	0.0049
670.8646	-0.0088
671.0488	0.0224
671.2331	-0.0018
671.4173	0.0166
671.6015	0.0013
671.7857	0.01
671.9699	0.0057
672.1541	0.0205
672.3382	0.0075
672.5223	0.0017
672.7064	0.0035
672.8905	-0.0073
673.0746	0.0133
673.2587	0.0069
673.4427	-0.0006
673.6267	0.0169
673.8107	0.023
673.9947	0.0198
674.1787	0.0033
674.3626	0.0066
674.5465	0.0102
674.7304	-0.0296
674.9143	0.0018
675.0982	0.0121
675.2821	0.0081
675.4659	-0.0056
675.6497	0.0046
675.8335	0.0118
676.0173	-0.0089
676.2011	0.0273
676.3849	0.005
676.5686	0.0121
676.7523	-0.0108
676.936	0.0092
677.1197	-0.0055
677.3034	0.0363
677.487	0.0056
677.6706	-0.0029
677.8542	0.012
678.0378	-0.0036
678.2214	-0.0019
678.405	-0.0139
678.5885	0.0133
678.772	0.0212
678.9555	0.0114
679.139	0.0177
679.3225	0.0062
679.5059	-0.0074
679.6894	-0.002
679.8728	-0.0033
680.0562	0.0147
680.2395	-0.0098
680.4229	-0.005
680.6062	0.0077
680.7896	-0.0208
680.9729	0.0227
681.1562	0.0074
681.3394	0.0203
681.5227	-0.0089
681.7059	-0.0006
681.8891	0.014
682.0723	-0.0077
682.2555	-0.0007
682.4387	0.0214
682.6218	0.0157
682.805	0.0054
682.9881	0.0259
683.1712	0.0193
683.3542	0.0203
683.5373	-0.007
683.7203	0.0155
683.9034	0.0039
684.0864	-0.0001
684.2694	0.0009
684.4523	0.007
684.6353	0.0048
684.8182	-0.0061
685.0011	0.0104
685.184	0.0124
685.3669	0.0197
685.5498	-0.0049
685.7326	-0.0014
685.9154	-0.0177
686.0982	0.0155
686.281	0.0002
686.4638	-0.0071
686.6465	-0.0033
686.8293	-0.0144
687.012	0.0123
687.1947	0.0076
687.3774	-0.0005
687.56	0.0061
687.7427	0.0036
687.9253	-0.0192
688.1079	0.0091
688.2905	0.0057
688.4731	0.0228
688.6556	-0.0048
688.8382	-0.0336
689.0207	0.0052
689.2032	0.025
689.3857	-0.0014
689.5681	-0.0182
689.7506	0.0341
689.933	-0.005
690.1154	0.0135
690.2978	0.0132
690.4802	0.0219
690.6626	0.0082
690.8449	0.0046
691.0272	-0.0122
691.2095	-0.0182
691.3918	0.0072
691.5741	0.0044
691.7563	0.0193
691.9386	0.0236
692.1208	0.0051
692.303	0.0014
692.4852	-0.0015
692.6673	0.0159
692.8495	-0.0215
693.0316	-0.0086
693.2137	0.0026
693.3958	-0.0064
693.5778	-0.0027
693.7599	0.0012
693.9419	-0.0035
694.1239	0.003
694.3059	0.0189
694.4879	-0.0181
694.6699	-0.0068
694.8518	0.0064
695.0337	0.0098
695.2157	0.0244
695.3975	-0.0058
695.5794	-0.0096
695.7613	0.0043
695.9431	0.0135
696.1249	0.0371
696.3067	-0.0042
696.4885	0.015
696.6703	-0.0015
696.852	-0.0014
697.0337	0.0185
697.2154	0.0055
697.3971	0.0015
697.5788	0.0201
697.7605	-0.0091
697.9421	0.0177
698.1237	0.0277
698.3053	-0.029
698.4869	0.0021
698.6685	0.0017
698.85	0.0183
699.0315	-0.0081
699.213	0.0008
699.3945	0.0043
699.576	0.0297
699.7575	0.0277
699.9389	-0.0105
700.1203	0.0124
700.3017	0.0282
700.4831	0.0052
700.6645	0.023
700.8458	-0.0001
701.0271	0.0312
701.2084	0.0066
701.3897	0.0003
701.571	-0.0157
701.7523	0.0083
701.9335	0.0109
702.1147	0.0149
702.2959	-0.0001
702.4771	-0.0019
702.6583	0.0101
702.8394	-0.013
703.0205	0.0116
703.2016	-0.0079
703.3827	-0.0035
703.5638	0.0106
703.7449	0.0289
703.9259	0.0039
704.1069	0.0019
704.2879	0.0211
704.4689	-0.0079
704.6499	0.0262
704.8308	0.0003
705.0117	0.006
705.1927	0.0283
705.3735	0.0047
705.5544	0.009
705.7353	-0.0051
705.9161	-0.0202
706.0969	0.0191
706.2777	0.0103
706.4585	0.0043
706.6393	0.0149
706.82	0.0033
707.0007	0.0034
707.1815	-0.0025
707.3621	0.0327
707.5428	0.0151
707.7235	0.0052
707.9041	0.0154
708.0847	-0.0016
708.2653	0.0158
708.4459	0.0144
708.6265	0.0074
708.807	0.001
708.9875	0.0047
709.168	0.0074
709.3485	0.0267
709.529	0.0205
709.7095	-0.0113
709.8899	0.0132
710.0703	0.0307
710.2507	0.01
710.4311	-0.0105
710.6115	0.0033
710.7918	0.0173
710.9721	-0.0059
711.1524	0.013
711.3327	0.0046
711.513	0.0003
711.6932	-0.0005
711.8735	0.0266
712.0537	-0.0387
712.2339	-0.0213
712.4141	-0.0038
712.5942	0.0025
712.7744	0.0161
712.9545	0.0215
713.1346	0.0322
713.3147	-0.0018
713.4947	0.0052
713.6748	0.0142
713.8548	0.0104
714.0348	0.0229
714.2148	0.0067
714.3948	0.0112
714.5748	0.0256
714.7547	0.0124
714.9346	0.0259
715.1145	0.0144
715.2944	-0.0172
715.4743	0.0141
715.6541	-0.0005
715.834	0.0351
716.0138	0.0188
716.1936	0.0084
716.3733	0.0121
716.5531	-0.0123
716.7328	0.0194
716.9126	0.0338
717.0923	-0.0034
717.2719	-0.0104
717.4516	-0.0126
717.6312	0.0136
717.8109	0.0363
717.9905	0.0119
718.1701	0.0103
718.3496	-0.0021
718.5292	-0.0027
718.7087	-0.0031
718.8882	0.0213
719.0677	-0.0088
719.2472	0.0302
719.4267	0.0051
719.6061	-0.0022
719.7856	0.0636
719.965	-0.0014
720.1443	0.0232
720.3237	0.0075
720.5031	-0.0073
720.6824	-0.0054
720.8617	-0.006
721.041	0.0208
721.2203	-0.0225
721.3995	-0.0268
721.5788	-0.0152
721.758	0.0049
721.9372	-0.0045
722.1164	0.0125
722.2956	-0.0079
722.4747	0.0307
722.6538	-0.0067
722.8329	0.0329
723.012	0.038
723.1911	0.005
723.3702	0.0299
723.5492	-0.0052
723.7282	0.0025
723.9072	0.0208
724.0862	0.0008
724.2652	0.0121
724.4441	-0.0086
724.623	0.0094
724.8019	0.0166
724.9808	0.0124
725.1597	0.0187
725.3385	0.0275
725.5174	0.0143
725.6962	-0.0042
725.875	0.0154
726.0538	-0.0114
726.2325	0.0348
726.4112	-0.0169
726.59	0.0136
726.7687	-0.0135
726.9474	0.0392
727.126	0.0122
727.3047	-0.0117
727.4833	0.0347
727.6619	-0.004
727.8405	0.0096
728.0191	0.0288
728.1976	0.0326
728.3762	0.0235
728.5547	0.0036
728.7332	0.0178
728.9116	0.0109
729.0901	-0.0131
729.2686	0.0172
729.447	-0.0029
729.6254	-0.0004
729.8038	-0.0032
729.9821	-0.021
730.1605	0.0047
730.3388	-0.0152
730.5171	0.024
730.6954	-0.0125
730.8737	0.0096
731.0519	0.0025
731.2302	0.0249
731.4084	-0.008
731.5866	-0.0232
731.7648	0.002
731.9429	-0.0107
732.1211	-0.0004
732.2992	0.0014
732.4773	-0.0023
732.6554	-0.0314
732.8335	0.0136
733.0115	0.0163
733.1896	-0.0043
733.3676	0.0176
733.5456	0.0091
733.7235	0.0037
733.9015	-0.0057
734.0794	-0.0163
734.2574	-0.0172
734.4353	0.0009
734.6131	0.0044
734.791	0.0033
734.9689	0.0156
735.1467	-0.0067
735.3245	0.0287
735.5023	0.0145
735.68	-0.014
735.8578	0.0116
736.0355	-0.0048
736.2132	-0.003
736.3909	0.0031
736.5686	0.0057
736.7463	-0.0042
736.9239	0.0215
737.1015	0.0107
737.2791	0.0095
737.4567	0.012
737.6343	-0.0277
737.8118	0.0286
737.9894	-0.0142
738.1669	0.0183
738.3444	0.0232
738.5218	-0.0067
738.6993	0.0086
738.8767	-0.0048
739.0541	0.0113
739.2315	0.0002
739.4089	0.0176
739.5863	0.0041
739.7636	0.0055
739.9409	-0.0123
740.1182	0.0212
740.2955	0.0271
740.4728	-0.0112
740.65	0.0088
740.8272	0.0416
741.0044	-0.0001
741.1816	0.0201
741.3588	-0.0399
741.5359	-0.0105
741.7131	0.0133
741.8902	0.0032
742.0673	-0.0323
742.2444	0.0209
742.4214	0.0033
742.5985	-0.0228
742.7755	0.0234
742.9525	-0.0374
743.1295	-0.0174
743.3064	0.0077
743.4834	0.0054
743.6603	0.0259
743.8372	-0.0179
744.0141	0.0287
744.191	0.0079
744.3678	-0.0398
744.5446	0.0017
744.7215	0.0088
744.8982	0.0003
745.075	0.0388
745.2518	0.0003
745.4285	-0.0267
745.6052	-0.0113
745.7819	0.0018
745.9586	0.0085
746.1353	-0.0122
746.3119	0.0113
746.4885	0.0269
746.6651	-0.0116
746.8417	0.0003
747.0183	0.0075
747.1948	0.0193
747.3714	0.0127
747.5479	0.0216
747.7244	0.0021
747.9008	-0.0122
748.0773	0.0421
748.2537	0.0184
748.4301	0.0389
748.6065	-0.0213
748.7829	-0.0193
748.9593	0.0127
749.1356	-0.0042
749.3119	0.0083
749.4882	0.0229
749.6645	-0.0061
749.8408	-0.0031
750.017	0.0237
750.1933	-0.0065
750.3695	0.0172
750.5457	0.0186
750.7218	-0.0139
750.898	-0.0143
751.0741	-0.0033
751.2502	0.0178
751.4263	0.0066
751.6024	0.029
751.7784	-0.0118
751.9545	0.0145
752.1305	-0.0061
752.3065	0.0093
752.4825	0.0216
752.6584	0.009
752.8344	-0.0019
753.0103	-0.027
753.1862	0.0193
753.3621	-0.0091
753.5379	-0.0031
753.7138	0.0071
753.8896	0.0233
754.0654	-0.0088
754.2412	-0.0011
754.417	0.0009
754.5927	0.0123
754.7685	0.0154
754.9442	0.0119
755.1199	0.0023
755.2956	0.0092
755.4712	0.0138
755.6469	0.011
755.8225	-0.002
755.9981	0.0156
756.1736	-0.0057
756.3492	-0.0066
756.5248	0.0013
756.7003	0.0048
756.8758	0.0105
757.0513	0.0012
757.2267	0.0097
757.4022	-0.0073
757.5776	0.0088
757.753	0.0228
757.9284	0.0028
758.1038	0.0142
758.2791	-0.0053
758.4545	0.0002
758.6298	0.0102
758.8051	0.0027
758.9803	0.0035
759.1556	-0.0205
759.3308	-0.0103
759.506	0.0086
759.6812	0.0088
759.8564	-0.011
760.0316	0.0133
760.2067	0.0114
760.3819	0.0006
760.557	-0.0109
760.732	-0.0153
760.9071	0.0077
761.0821	-0.0103
761.2572	0.0047
761.4322	0.0208
761.6072	-0.0065
761.7821	-0.024
761.9571	0.0257
762.132	-0.0069
762.3069	0.0042
762.4818	0.0282
762.6567	-0.0012
762.8316	0.0201
763.0064	0.0249
763.1812	0.0056
763.356	-0.0183
763.5308	0.0395
763.7055	0.0049
763.8803	-0.016
764.055	0.0189
764.2297	0.0063
764.4044	0.0015
764.579	0.0034
764.7537	-0.0026
764.9283	0.0085
765.1029	-0.0018
765.2775	0.0113
765.4521	-0.0015
765.6266	0.0152
765.8011	0.0352
765.9756	0.0086
766.1501	0.0105
766.3246	0.0031
766.4991	0.0125
766.6735	0.0515
766.8479	-0.028
767.0223	-0.0151
767.1967	0.0261
767.371	0.0297
767.5454	0.0185
767.7197	0.0202
767.894	0.013
768.0683	0.0374
768.2425	0.0178
768.4168	0.0193
768.591	-0.0025
768.7652	0.0106
768.9394	-0.0463
769.1135	-0.0083
769.2877	0.0231
769.4618	0.0328
769.6359	0.0058
769.81	0.0278
769.984	0.0014
770.1581	0.0128
770.3321	0.0353
770.5061	0.0057
770.6801	-0.0001
770.8541	-0.0018
771.028	0.0314
771.202	0.0316
771.3759	-0.0078
771.5498	0.0007
771.7236	-0.0023
771.8975	0.0223
772.0713	-0.0078
772.2451	0.0038
772.4189	0.0087
772.5927	-0.0037
772.7665	-0.0351
772.9402	0.0078
773.1139	0.015
773.2876	0.0167
773.4613	-0.0102
773.635	0.0057
773.8086	-0.0096
773.9822	-0.0102
774.1558	0.0163
774.3294	0.0172
774.503	0.0336
774.6765	0.0158
774.8501	0.0046
775.0236	0.0098
775.1971	-0.0078
775.3705	0.0213
775.544	-0.0161
775.7174	0.0173
775.8908	-0.0173
776.0642	-0.0035
776.2376	0.0426
776.4109	0.0006
776.5843	0.0141
776.7576	-0.0036
776.9309	0.0501
777.1041	0.0087
777.2774	-0.0164
777.4506	-0.0078
777.6238	0.0177
777.797	0.0244
777.9702	-0.0156
778.1434	-0.002
778.3165	-0.0407
778.4896	-0.0144
778.6627	0.0423
778.8358	-0.0047
779.0089	-0.038
779.1819	0.0236
779.3549	0.0212
779.5279	-0.004
779.7009	0.0453
779.8739	0.0405
780.0468	0.0252
780.2197	0.0106
780.3926	-0.0262
780.5655	0.0198
780.7384	0.0248
780.9112	0.0118
781.0841	0.0097
781.2569	0.015
781.4297	0.018
781.6024	0.0049
781.7752	0.0261
781.9479	0.0546
782.1206	-0.0106
782.2933	0.0201
782.466	0.0512
782.6386	-0.0058
782.8113	0.028
782.9839	0.0052
783.1565	0.0173
783.329	-0.0155
783.5016	-0.0103
783.6741	0.0129
783.8466	0.0214
784.0191	0.0201
784.1916	-0.0292
784.3641	-0.0627
784.5365	0.0619
784.7089	-0.0027
784.8813	0.0458
785.0537	0.023
785.2261	-0.0197
785.3984	0.0005
785.5707	-0.0118
785.743	0.0216
785.9153	-0.0161
786.0876	-0.0224
786.2598	0.0073
786.432	0.0314
786.6042	0.034
786.7764	-0.0391
786.9486	-0.0043
787.1207	0.0285
787.2928	0.0726
787.4649	0.0005
787.637	0.0291
787.8091	0.0276
787.9811	0.0366
788.1532	0.0252
788.3252	-0.0116
788.4972	0.0043
788.6691	0.0147
788.8411	-0.0108
789.013	0.0119
789.1849	-0.0407
789.3568	0.048
789.5287	0.0532
789.7005	-0.0434
789.8723	-0.0422
790.0442	0.0275
790.2159	0.0209
790.3877	-0.0002
790.5595	0.0188
790.7312	-0.0311
790.9029	-0.0309
791.0746	-0.0158
791.2463	-0.0609
791.4179	0.0019
791.5896	0.023
791.7612	0.0351
791.9328	0.0047
792.1044	-0.0214
792.2759	-0.0161
792.4474	0.0056
792.619	-0.0235
792.7905	-0.0071
792.9619	0.0548
793.1334	0.0444
793.3048	0.0328
793.4762	-0.0094
793.6476	-0.0592
793.819	0.0038
793.9904	-0.0423
794.1617	-0.0039
794.333	-0.0001
794.5043	0.0216
794.6756	0.0068
794.8469	-0.0128
795.0181	-0.0252
795.1893	0.0215
795.3605	0.011
795.5317	-0.0042
795.7029	0.0109
795.874	-0.0104
796.0452	0.0059
796.2163	0.0626
796.3873	0.0434
796.5584	0.0028
796.7294	-0.0063
796.9005	-0.0076
797.0715	-0.0438
797.2425	0.0874
797.4134	0.0916
797.5844	0.0239
797.7553	-0.0237
797.9262	0.0696
798.0971	0.0071
798.2679	-0.0039
798.4388	0.0031
798.6096	0.0163
798.7804	0.0058
798.9512	0.0718
799.122	0.0234
799.2927	0.0678
799.4635	-0.04
799.6342	-0.0734
799.8049	0.0148
799.9755	-0.0132
800.1462	0.0206
800.3168	0.0282
800.4874	-0.0791
800.658	0.0555
800.8286	0.07
800.9991	0.088
801.1696	-0.0419
801.3402	-0.0182
801.5106	-0.1079
801.6811	0.0483
801.8516	-0.0267
802.022	0.0536
802.1924	-0.0987
802.3628	0.0449
802.5332	0.0056
802.7035	-0.0235
802.8739	0.0643
803.0442	-0.0133
803.2145	0.0029
803.3847	0.0401
803.555	0.0404
803.7252	-0.0459
803.8954	-0.07
804.0656	0.0057
804.2358	-0.0041
804.4059	0.0202
804.5761	-0.0042
804.7462	-0.0352
804.9163	0.0255
805.0864	-0.0911
805.2564	0.0072
805.4264	0.0392
805.5965	0.0096
805.7665	0.0027
805.9364	0.0285
806.1064	0.0544
806.2763	0.0103
806.4462	0.0476
806.6161	0.0401
806.786	0.0129
806.9559	-0.0174
807.1257	-0.0073
807.2955	-0.0179
807.4653	-0.0302
807.6351	-0.0332
807.8048	-0.0203
807.9746	0.0022
808.1443	0.0247
808.314	0.0009
808.4837	0.0908
808.6533	0.0123
808.8229	0.0357
808.9926	0.0703
809.1622	0.0238
809.3317	-0.0335
809.5013	0.0051
809.6708	0.0097
809.8403	0.1394
810.0098	0.0728
810.1793	0.0037
810.3488	-0.0664
810.5182	0.0782
810.6876	0.0274
810.857	-0.0006
811.0264	0.0361
811.1958	0.1963
811.3651	-0.1083
811.5344	0.0119
811.7037	0.0064
811.873	0.0254
812.0422	-0.0151
812.2115	-0.0426
812.3807	-0.1315
812.5499	0.142
812.7191	-0.1071
812.8882	-0.0453
813.0574	0.0668
813.2265	-0.0371
813.3956	0.0455
813.5646	-0.0028
813.7337	-0.0605
813.9027	-0.1072
814.0718	-0.0142
814.2407	0.0061
814.4097	0.0571
814.5787	0.0817
814.7476	0.036
814.9165	0.0214
815.0854	0.0288
815.2543	0.0463
815.4232	0.069
815.592	0.0822
815.7608	-0.0395
815.9296	0.0495
816.0984	0.0633
816.2671	-0.2201
816.4359	0.3378
816.6046	-0.0603
816.7733	-0.0463
816.942	-0.0315
817.1106	0.0661
817.2793	-0.0393
817.4479	-0.0876
817.6165	-0.058
817.785	0.1613
817.9536	-0.0727
818.1221	-0.0147
818.2906	-0.0829
818.4591	-0.0488
818.6276	0.0567
818.7961	-0.1022
818.9645	0.0202
819.1329	0.0816
819.3013	0.0056
819.4697	-0.0715
819.638	0.3431
819.8064	-0.0323
819.9747	-0.0384
820.143	-0.1501
820.3113	0.2288
820.4795	0.0451
820.6477	0.097
820.816	0.0155
820.9842	0.097
821.1523	0.0861
821.3205	-0.0336
821.4886	-0.0146
821.6567	-0.0077
821.8248	0.175
821.9929	-0.0923
822.1609	-0.0773
822.329	-0.0181
822.497	0.1045
822.665	-0.0008
822.833	0.0105
823.0009	0.2542
823.1688	0.0576
823.3367	-0.201
823.5046	0.0605
823.6725	-0.0414
823.8404	0.3355
824.0082	-0.0537
824.176	-0.1111
824.3438	0.0712
824.5116	0.0024
824.6793	0.1392
824.847	0.2948
825.0147	0.0385
825.1824	0.1475
825.3501	-0.0913
825.5177	0.0026
825.6854	-0.1519
825.853	0.0316
826.0206	-0.042
826.1881	0.181
826.3557	-0.0414
826.5232	0.2881
826.6907	0.0708
826.8582	-0.0718
827.0257	0.2484
827.1931	0.1299
827.3605	-0.068
827.528	-0.1979
827.6953	-0.2194
827.8627	-0.0479
828.03	0.0468
828.1974	0.034
828.3647	0.1235
828.532	0.0122
828.6992	0.0502
828.8665	-0.2269
829.0337	0.0301
829.2009	0.1308
829.3681	-0.0869
829.5352	0.0513
829.7024	-0.1536
829.8695	0.1009
830.0366	0.1967
830.2037	-0.0086
830.3707	0.0516
830.5378	-0.0952
830.7048	-0.1181
830.8718	-0.0421
831.0388	-0.137
831.2057	-0.2307
831.3727	-0.1708
831.5396	0.1404
831.7065	-0.2285
831.8734	-0.0757
832.0402	0.0595
832.2071	-0.7203
832.3739	-0.2691
832.5407	-1.981
832.7075	-0.4257
832.8742	0.0953
833.041	0.3055
833.2077	1.0321
833.3744	0.1775
833.541	0.2322
833.7077	0.1035
833.8743	0.016
834.0409	0.0534
834.2075	0.0906
834.3741	-0.1591
834.5407	-0.0778
834.7072	0.1072
834.8737	0.123
835.0402	0.3184
835.2067	-0.0961
835.3731	-0.2004
835.5395	0.0296
835.706	-0.1098
835.8723	-0.0299
836.0387	0.6429
836.2051	0.1075
836.3714	0.0487
836.5377	-0.2212
836.704	0.1181
836.8703	-0.1579
837.0365	-0.8347
837.2027	-0.0814
837.3689	0.3432
837.5351	0.4991
837.7013	-0.1153
837.8674	-0.0065
838.0335	-0.0502
838.1997	-0.0568
838.3657	-0
838.5318	-0.4295
838.6978	-0.2291
838.8639	-0.0283
839.0299	0.1923
839.1958	0.2368
839.3618	-0
839.5277	0.0312
839.6937	-0.1507
839.8596	-0.0132
840.0254	-0.2911
840.1913	-0.2705
840.3571	-0.1229
840.523	-0
840.6888	0.2272
840.8545	-0.5672
841.0203	-0.0654
841.186	0.0972
841.3517	-0.2229
841.5174	0.1328
841.6831	0.3635
841.8488	0.4863
842.0144	-0.0737
842.18	0.1969
842.3456	-0.2393
842.5112	-0
842.6767	-0.1513
842.8422	0.0178
843.0077	0.1517
843.1732	0.4196
843.3387	0.4782
843.5042	0.0394
843.6696	0.5622
843.835	-0.1757
844.0004	0.1129
844.1657	-1.2291
844.3311	0.0214
844.4964	-0
844.6617	0.1235
844.827	-0
844.9923	0.4102
845.1575	-0.1259
845.3227	0.1079
845.4879	-0.324
845.6531	0.5062
845.8183	0.2824
845.9834	-0
846.1485	0.2803
846.3136	-0.0029
846.4787	-0.0619
846.6438	0.9294
846.8088	-0
846.9738	-0.5901
847.1388	0.0666
847.3038	0.2003
847.4687	-0
847.6337	-0.2015
847.7986	-0.0439
847.9635	-0.1686
848.1284	0.8433
848.2932	0.5188
848.458	-0
848.6228	0.0213
848.7876	0.2258
848.9524	-0.0666
849.1172	-1.128
849.2819	-0.8551
849.4466	-0
849.6113	1.0448
849.7759	-0
849.9406	-0.1376
850.1052	-1.3547
850.2698	-0
850.4344	-0
850.599	-0.0784
850.7635	0.2293
850.928	0.5413
851.0925	0.2341
851.257	-0.1932
851.4215	0.2343
851.5859	0.0268
851.7503	-0
851.9147	-0
852.0791	-0.1701
852.2434	0.715
852.4078	-0.0946
852.5721	0.2176
852.7364	-0.158
852.9007	-0.1165
853.0649	-0
853.2291	0.1139
853.3934	-0.0937
853.5575	-0.1396
853.7217	0.3355
853.8859	-0.6551
854.05	-0.2712
854.2141	1.8543
854.3782	-0.0042
854.5423	-0.599
854.7063	0.291
854.8703	0.1601
855.0343	0.0622
855.1983	-0.1253
855.3623	0.0807
855.5262	-0
855.6901	0.3128
855.854	0.1781
856.0179	1.1774
856.1818	0.5408
856.3456	0.2936
856.5094	-0.3413
856.6732	0.2156
856.837	-1.1541
857.0008	-0
857.1645	-0.3787
857.3282	-0.2312
857.4919	0.285
857.6556	-0.1995
857.8192	-0.2209
857.9828	0.0701
858.1465	-0
858.31	-0
858.4736	-0.7079
858.6372	0.8168
858.8007	-0.039
858.9642	0.4662
859.1277	0.8464
859.2911	-0.5619
859.4546	-0
859.618	-0.1839
859.7814	-0
859.9448	-0.4221
860.1081	-0
860.2715	-1
860.4348	0.9425
860.5981	-0
860.7614	-0.4109
860.9246	0.1676
861.0879	0.1742
861.2511	-0
861.4143	-0
861.5774	-0.038
861.7406	0.0154
861.9037	-0
862.0668	-0.7987
862.2299	0.5622
862.393	-0
862.556	-0.0093
862.7191	-0.3852
862.8821	0.2783
863.0451	-0.2019
863.208	-0.0714
863.371	-0.495
863.5339	0.5993
863.6968	0.6622
863.8597	-0.4076
864.0225	-0
864.1854	-0
864.3482	-1.0477
864.511	-0
864.6737	-0.2372
864.8365	-0.1029
864.9992	0.5476
865.1619	-0.1465
865.3246	-1.9619
865.4873	-0.2611
865.65	0.0313
865.8126	0.0383
865.9752	-0.0044
866.1378	-0.2422
866.3004	-0.3941
866.4629	-1.375
866.6254	-0.2549
866.7879	-0.1894
866.9504	-0.0674
867.1129	-0.4472
867.2753	-0.1571
867.4377	-0.1218
867.6001	-0.8684
867.7625	-0.1415
867.9249	-0
868.0872	-0
868.2495	0.1085
868.4118	-0
868.5741	-0
868.7363	-0
868.8986	0.3054
869.0608	-0.2015
869.223	-0.5645
869.3851	-0.1777
869.5473	0.1747
869.7094	2.2162
869.8715	-0
870.0336	0.0326
870.1957	-0
870.3577	0.7522
870.5197	0.0974
870.6817	-0.9512
870.8437	0.3175
871.0057	0.2278
871.1676	0.091
871.3295	-0
871.4914	-1.6628
871.6533	-0
871.8151	0.4854
871.977	0.4267
872.1388	-0.1828
872.3006	-0.4031
872.4623	-0.4328
872.6241	-0
872.7858	1.0332
872.9475	-0.1353
873.1092	0.0896
873.2709	-0
873.4325	-1.4337
873.5941	-0.2285
873.7557	-0
873.9173	-0.14
874.0789	-0.0373
874.2404	-0
874.4019	-0.1959
874.5634	-0
874.7249	0.1319
874.8863	0.3289
875.0478	-0.0033
875.2092	0.6227
875.3706	0.5217
875.5319	-0
875.6933	-0.1563
875.8546	-0
876.0159	0.3941
876.1772	-0
876.3385	-0
876.4997	-0.0425
876.6609	0.2995
876.8221	-0
876.9833	0.1697
877.1445	0.2525
877.3056	-0
877.4667	-0
877.6278	-0
877.7889	0.3805
877.9499	-0
878.111	-0.583
878.272	0.0843
878.433	-0
878.5939	-0.1257
878.7549	0.6076
878.9158	0.995
879.0767	-0.0137
879.2376	-0.0714
879.3984	0.2135
879.5593	0.2819
879.7201	-1.6628
879.8809	-0
880.0417	-0.4038
880.2024	0.3587
880.3632	-0.5577
880.5239	0.8152
880.6846	-0.1747
880.8452	-0.2626
881.0059	-0.3537
881.1665	0.8546
881.3271	-0
881.4877	0.2206
881.6483	-0
881.8088	-0
881.9693	-1.3283
882.1298	-1.3283
882.2903	-1.3283
