Data from D4ACN5uM440nmA_Absorbance_13-50-25-943.txt Node
Date: Fri Feb 21 13:50:25 GMT 2025
User: LASERRRRR
Spectrometer: FLMT03099
Trigger mode: 0
Integration Time (sec): 1.500000E-2
Scans to average: 1
Electric dark correction enabled: true
Nonlinearity correction enabled: false
Boxcar width: 0
XAxis mode: Wavelengths
Number of Pixels in Spectrum: 3648
>>>>>Begin Spectral Data<<<<<
179.3399	-0.5019
179.5586	-0.5019
179.7771	-0.5019
179.9957	-0.3004
180.2143	-0
180.4329	-0.0231
180.6514	-0.8204
180.8699	0.1474
181.0885	0.1891
181.307	1.0591
181.5255	-0
181.744	-0
181.9625	0.4444
182.181	-0
182.3994	-0.7164
182.6179	-0.2544
182.8363	-0
183.0547	-0.0983
183.2732	0.2796
183.4916	0.0859
183.71	0.4447
183.9284	-0.033
184.1467	0.6211
184.3651	-0.0466
184.5835	0.1132
184.8018	0.1434
185.0201	0.2649
185.2385	0.176
185.4568	0.1616
185.6751	0.2614
185.8934	0.3403
186.1117	-0.0141
186.3299	0.0015
186.5482	0.172
186.7664	0.0106
186.9847	0.1511
187.2029	0.1355
187.4211	-0.0125
187.6393	0.1665
187.8575	0.6673
188.0757	0.2259
188.2939	0.0019
188.512	0.0998
188.7302	0.1289
188.9483	0.3697
189.1665	0.5583
189.3846	0.1587
189.6027	0.0235
189.8208	0.0933
190.0389	0.1987
190.257	0.119
190.475	0.1425
190.6931	0.0572
190.9111	0.101
191.1292	0.1654
191.3472	0.176
191.5652	0.2256
191.7832	0.1809
192.0012	0.1335
192.2192	0.1105
192.4371	0.2444
192.6551	0.2039
192.873	0.1113
193.091	0.1216
193.3089	0.2059
193.5268	0.194
193.7447	0.2119
193.9626	0.3303
194.1805	0.2347
194.3984	0.2228
194.6162	0.2148
194.8341	0.3406
195.0519	0.2551
195.2697	0.2564
195.4875	0.3098
195.7054	0.2423
195.9231	0.2629
196.1409	0.3112
196.3587	0.3753
196.5765	0.3034
196.7942	0.3277
197.012	0.3257
197.2297	0.3315
197.4474	0.4306
197.6651	0.2768
197.8828	0.3619
198.1005	0.4511
198.3182	0.3861
198.5358	0.4137
198.7535	0.4172
198.9711	0.3527
199.1888	0.379
199.4064	0.3947
199.624	0.3872
199.8416	0.3848
200.0592	0.3911
200.2767	0.3936
200.4943	0.4885
200.7119	0.3849
200.9294	0.4082
201.1469	0.4199
201.3645	0.4506
201.582	0.3989
201.7995	0.4409
202.017	0.4227
202.2344	0.4276
202.4519	0.3919
202.6694	0.4048
202.8868	0.3812
203.1042	0.447
203.3217	0.3834
203.5391	0.3965
203.7565	0.3654
203.9739	0.3567
204.1913	0.3576
204.4086	0.3494
204.626	0.3726
204.8433	0.3661
205.0607	0.3828
205.278	0.3543
205.4953	0.3472
205.7126	0.337
205.9299	0.3398
206.1472	0.3455
206.3644	0.3399
206.5817	0.34
206.7989	0.3307
207.0162	0.3149
207.2334	0.3352
207.4506	0.3011
207.6678	0.3164
207.885	0.3167
208.1022	0.3043
208.3194	0.2937
208.5365	0.3051
208.7537	0.2729
208.9708	0.3049
209.1879	0.2969
209.405	0.2981
209.6222	0.2693
209.8392	0.3168
210.0563	0.263
210.2734	0.2627
210.4905	0.2717
210.7075	0.2861
210.9245	0.2673
211.1416	0.2627
211.3586	0.2554
211.5756	0.2512
211.7926	0.2612
212.0096	0.2651
212.2265	0.2429
212.4435	0.259
212.6604	0.2664
212.8774	0.2592
213.0943	0.2554
213.3112	0.2315
213.5281	0.2622
213.745	0.2318
213.9619	0.2445
214.1788	0.2404
214.3956	0.2564
214.6125	0.2625
214.8293	0.2509
215.0461	0.2653
215.2629	0.2594
215.4798	0.2427
215.6965	0.249
215.9133	0.2328
216.1301	0.2273
216.3469	0.2481
216.5636	0.2313
216.7803	0.2461
216.9971	0.2562
217.2138	0.2468
217.4305	0.256
217.6472	0.2508
217.8639	0.2432
218.0805	0.2463
218.2972	0.2467
218.5138	0.254
218.7305	0.2491
218.9471	0.2497
219.1637	0.2652
219.3803	0.2504
219.5969	0.2447
219.8135	0.2504
220.0301	0.2473
220.2466	0.2547
220.4632	0.2562
220.6797	0.258
220.8962	0.2539
221.1127	0.2566
221.3292	0.2725
221.5457	0.2745
221.7622	0.2633
221.9787	0.276
222.1951	0.274
222.4116	0.2812
222.628	0.2819
222.8444	0.2947
223.0608	0.275
223.2772	0.2857
223.4936	0.2754
223.71	0.2833
223.9264	0.2847
224.1427	0.2862
224.3591	0.2808
224.5754	0.2889
224.7917	0.2816
225.008	0.2962
225.2243	0.3089
225.4406	0.2933
225.6569	0.2944
225.8732	0.3178
226.0894	0.3029
226.3057	0.3004
226.5219	0.312
226.7381	0.3288
226.9543	0.319
227.1705	0.3098
227.3867	0.3197
227.6029	0.3251
227.8191	0.3342
228.0352	0.3329
228.2513	0.3426
228.4675	0.3387
228.6836	0.3406
228.8997	0.3364
229.1158	0.3628
229.3319	0.3633
229.548	0.3553
229.764	0.3532
229.9801	0.3692
230.1961	0.3663
230.4121	0.3675
230.6282	0.3779
230.8442	0.397
231.0602	0.3861
231.2761	0.3879
231.4921	0.3888
231.7081	0.3926
231.924	0.3931
232.14	0.3964
232.3559	0.4085
232.5718	0.4022
232.7877	0.4208
233.0036	0.4098
233.2195	0.4096
233.4353	0.4149
233.6512	0.4223
233.867	0.4259
234.0829	0.4214
234.2987	0.4241
234.5145	0.4203
234.7303	0.4289
234.9461	0.4364
235.1619	0.4378
235.3776	0.4432
235.5934	0.426
235.8091	0.4383
236.0249	0.4393
236.2406	0.4384
236.4563	0.4507
236.672	0.4356
236.8877	0.4558
237.1034	0.4519
237.319	0.4473
237.5347	0.4487
237.7503	0.4445
237.966	0.4616
238.1816	0.4514
238.3972	0.4533
238.6128	0.4593
238.8284	0.469
239.0439	0.4613
239.2595	0.4655
239.475	0.4564
239.6906	0.456
239.9061	0.4582
240.1216	0.463
240.3371	0.4592
240.5526	0.4584
240.7681	0.455
240.9836	0.453
241.199	0.4516
241.4145	0.4499
241.6299	0.4473
241.8453	0.4455
242.0607	0.4343
242.2761	0.437
242.4915	0.4256
242.7069	0.4238
242.9223	0.4269
243.1376	0.4125
243.353	0.4001
243.5683	0.3968
243.7836	0.3932
243.9989	0.3736
244.2142	0.3792
244.4295	0.3728
244.6448	0.3638
244.86	0.3598
245.0753	0.3515
245.2905	0.3379
245.5057	0.3359
245.721	0.3372
245.9362	0.3256
246.1514	0.3265
246.3665	0.3111
246.5817	0.3094
246.7969	0.2998
247.012	0.2953
247.2271	0.2908
247.4423	0.2855
247.6574	0.2848
247.8725	0.2752
248.0876	0.2671
248.3026	0.2767
248.5177	0.2584
248.7328	0.254
248.9478	0.2525
249.1628	0.2481
249.3779	0.2397
249.5929	0.2361
249.8079	0.2341
250.0228	0.2341
250.2378	0.232
250.4528	0.2256
250.6677	0.2257
250.8827	0.2219
251.0976	0.2124
251.3125	0.2194
251.5274	0.2128
251.7423	0.2067
251.9572	0.2096
252.172	0.1998
252.3869	0.2084
252.6017	0.2057
252.8166	0.2017
253.0314	0.1992
253.2462	0.2022
253.461	0.1951
253.6758	0.1873
253.8906	0.1909
254.1053	0.1933
254.3201	0.1956
254.5348	0.1843
254.7496	0.1803
254.9643	0.1874
255.179	0.1831
255.3937	0.1912
255.6083	0.1909
255.823	0.1834
256.0377	0.1829
256.2523	0.1847
256.467	0.1841
256.6816	0.1826
256.8962	0.1825
257.1108	0.1796
257.3254	0.1775
257.54	0.1815
257.7545	0.1835
257.9691	0.1819
258.1836	0.1802
258.3981	0.1757
258.6127	0.1736
258.8272	0.1845
259.0417	0.1716
259.2561	0.1795
259.4706	0.1781
259.6851	0.18
259.8995	0.1733
260.114	0.1778
260.3284	0.1754
260.5428	0.1758
260.7572	0.1715
260.9716	0.1834
261.186	0.1759
261.4003	0.1769
261.6147	0.1768
261.829	0.1802
262.0433	0.1823
262.2577	0.1813
262.472	0.1788
262.6863	0.185
262.9005	0.178
263.1148	0.1773
263.3291	0.1818
263.5433	0.1819
263.7576	0.1815
263.9718	0.1831
264.186	0.1802
264.4002	0.1791
264.6144	0.1854
264.8286	0.1839
265.0427	0.1921
265.2569	0.1852
265.471	0.1867
265.6851	0.1863
265.8993	0.1839
266.1134	0.1832
266.3275	0.1892
266.5415	0.1818
266.7556	0.1867
266.9697	0.1852
267.1837	0.1828
267.3978	0.1778
267.6118	0.1804
267.8258	0.1844
268.0398	0.1865
268.2538	0.1855
268.4677	0.1842
268.6817	0.1836
268.8957	0.1747
269.1096	0.1743
269.3235	0.18
269.5374	0.1832
269.7514	0.1824
269.9652	0.179
270.1791	0.1798
270.393	0.178
270.6068	0.1801
270.8207	0.1826
271.0345	0.174
271.2483	0.1732
271.4622	0.1765
271.676	0.1734
271.8897	0.1748
272.1035	0.1857
272.3173	0.1738
272.531	0.1794
272.7448	0.1762
272.9585	0.1711
273.1722	0.173
273.3859	0.1771
273.5996	0.1782
273.8133	0.1759
274.0269	0.1786
274.2406	0.183
274.4542	0.1806
274.6679	0.1809
274.8815	0.1869
275.0951	0.1873
275.3087	0.1819
275.5223	0.1777
275.7358	0.1864
275.9494	0.1884
276.1629	0.1892
276.3765	0.1835
276.59	0.1852
276.8035	0.1847
277.017	0.1897
277.2305	0.1859
277.444	0.1875
277.6574	0.1849
277.8709	0.1962
278.0843	0.1897
278.2978	0.1883
278.5112	0.1925
278.7246	0.1833
278.938	0.1902
279.1513	0.1887
279.3647	0.1905
279.5781	0.1821
279.7914	0.1833
280.0047	0.1897
280.2181	0.1901
280.4314	0.1851
280.6447	0.1911
280.8579	0.1834
281.0712	0.187
281.2845	0.1876
281.4977	0.1903
281.711	0.1825
281.9242	0.1871
282.1374	0.1857
282.3506	0.1852
282.5638	0.181
282.7769	0.1836
282.9901	0.1882
283.2033	0.1813
283.4164	0.1816
283.6295	0.1803
283.8426	0.1819
284.0557	0.1881
284.2688	0.1825
284.4819	0.1833
284.695	0.1856
284.908	0.1842
285.1211	0.1853
285.3341	0.1817
285.5471	0.1871
285.7601	0.1815
285.9731	0.1841
286.1861	0.1903
286.3991	0.1901
286.612	0.1914
286.825	0.1887
287.0379	0.1891
287.2508	0.1848
287.4637	0.1901
287.6766	0.1832
287.8895	0.1871
288.1024	0.1897
288.3152	0.1865
288.5281	0.1906
288.7409	0.1911
288.9538	0.1875
289.1666	0.1895
289.3794	0.1862
289.5922	0.186
289.8049	0.19
290.0177	0.1881
290.2304	0.1881
290.4432	0.1857
290.6559	0.1929
290.8686	0.1866
291.0813	0.1899
291.294	0.1901
291.5067	0.1869
291.7194	0.1859
291.932	0.1796
292.1447	0.1914
292.3573	0.1902
292.5699	0.1942
292.7825	0.1874
292.9951	0.1852
293.2077	0.1877
293.4203	0.1859
293.6328	0.1836
293.8454	0.1922
294.0579	0.1836
294.2704	0.1947
294.4829	0.1823
294.6954	0.1904
294.9079	0.1829
295.1204	0.185
295.3328	0.1891
295.5453	0.1913
295.7577	0.1946
295.9701	0.1871
296.1825	0.1925
296.3949	0.1885
296.6073	0.1908
296.8197	0.1908
297.0321	0.1893
297.2444	0.1838
297.4567	0.1938
297.6691	0.1867
297.8814	0.1928
298.0937	0.1938
298.306	0.1852
298.5182	0.194
298.7305	0.1938
298.9428	0.1921
299.155	0.1831
299.3672	0.192
299.5794	0.1877
299.7916	0.1831
300.0038	0.188
300.216	0.1897
300.4282	0.1894
300.6403	0.1906
300.8525	0.1926
301.0646	0.1933
301.2767	0.1863
301.4888	0.1861
301.7009	0.1939
301.913	0.1915
302.125	0.1866
302.3371	0.1936
302.5491	0.1896
302.7612	0.1919
302.9732	0.1977
303.1852	0.1943
303.3972	0.1918
303.6092	0.1893
303.8211	0.1878
304.0331	0.19
304.245	0.1879
304.457	0.1848
304.6689	0.1814
304.8808	0.187
305.0927	0.1888
305.3046	0.1771
305.5164	0.1782
305.7283	0.1838
305.9401	0.1708
306.152	0.1829
306.3638	0.178
306.5756	0.1794
306.7874	0.1712
306.9992	0.1731
307.2109	0.1714
307.4227	0.171
307.6344	0.1734
307.8462	0.1704
308.0579	0.1695
308.2696	0.1688
308.4813	0.1672
308.693	0.1653
308.9046	0.167
309.1163	0.162
309.328	0.1603
309.5396	0.1557
309.7512	0.1562
309.9628	0.1552
310.1744	0.1507
310.386	0.1439
310.5976	0.1486
310.8091	0.1525
311.0207	0.148
311.2322	0.1451
311.4437	0.1497
311.6552	0.1462
311.8667	0.1513
312.0782	0.1401
312.2897	0.1498
312.5012	0.1429
312.7126	0.1389
312.924	0.138
313.1355	0.1365
313.3469	0.1379
313.5583	0.138
313.7696	0.1346
313.981	0.1408
314.1924	0.1344
314.4037	0.1332
314.6151	0.1306
314.8264	0.1349
315.0377	0.1366
315.249	0.139
315.4603	0.1278
315.6716	0.1351
315.8828	0.1336
316.0941	0.1321
316.3053	0.1291
316.5165	0.1339
316.7277	0.1297
316.9389	0.1327
317.1501	0.1228
317.3613	0.1258
317.5724	0.127
317.7836	0.1241
317.9947	0.1247
318.2058	0.1302
318.417	0.1305
318.6281	0.1251
318.8391	0.1273
319.0502	0.129
319.2613	0.1276
319.4723	0.1258
319.6834	0.1263
319.8944	0.1231
320.1054	0.1254
320.3164	0.1222
320.5274	0.125
320.7383	0.1354
320.9493	0.1289
321.1602	0.1319
321.3712	0.1283
321.5821	0.1223
321.793	0.1334
322.0039	0.1233
322.2148	0.1304
322.4257	0.124
322.6365	0.1223
322.8474	0.1344
323.0582	0.1266
323.269	0.127
323.4798	0.1295
323.6906	0.1173
323.9014	0.1262
324.1122	0.123
324.3229	0.1343
324.5337	0.1359
324.7444	0.1353
324.9551	0.1264
325.1658	0.1228
325.3765	0.1335
325.5872	0.1331
325.7979	0.1328
326.0085	0.1247
326.2192	0.1307
326.4298	0.1384
326.6404	0.1381
326.851	0.1334
327.0616	0.1309
327.2722	0.134
327.4828	0.1353
327.6933	0.1441
327.9039	0.1311
328.1144	0.1352
328.3249	0.1374
328.5354	0.1326
328.7459	0.1325
328.9564	0.1354
329.1669	0.1452
329.3773	0.1388
329.5878	0.1355
329.7982	0.1379
330.0086	0.1343
330.219	0.1367
330.4294	0.138
330.6398	0.1421
330.8502	0.1473
331.0605	0.1361
331.2708	0.134
331.4812	0.1435
331.6915	0.1383
331.9018	0.1381
332.1121	0.1453
332.3224	0.1402
332.5326	0.1348
332.7429	0.1436
332.9531	0.1448
333.1633	0.1387
333.3735	0.1397
333.5837	0.1381
333.7939	0.1413
334.0041	0.1464
334.2143	0.1419
334.4244	0.1479
334.6346	0.1434
334.8447	0.1416
335.0548	0.1421
335.2649	0.143
335.475	0.1433
335.685	0.1473
335.8951	0.14
336.1051	0.1437
336.3152	0.1449
336.5252	0.1446
336.7352	0.138
336.9452	0.1389
337.1552	0.1425
337.3652	0.1389
337.5751	0.1435
337.7851	0.1432
337.995	0.1432
338.2049	0.1451
338.4148	0.1467
338.6247	0.143
338.8346	0.1427
339.0445	0.1497
339.2543	0.1441
339.4642	0.1438
339.674	0.1441
339.8838	0.1478
340.0936	0.1436
340.3034	0.1466
340.5132	0.1367
340.7229	0.1411
340.9327	0.1531
341.1424	0.1527
341.3522	0.1406
341.5619	0.1483
341.7716	0.1565
341.9813	0.1527
342.1909	0.1511
342.4006	0.1601
342.6102	0.1548
342.8199	0.152
343.0295	0.1522
343.2391	0.1532
343.4487	0.1585
343.6583	0.1664
343.8679	0.1523
344.0774	0.1489
344.287	0.1535
344.4965	0.1562
344.706	0.1652
344.9155	0.159
345.125	0.161
345.3345	0.1667
345.544	0.1582
345.7534	0.1638
345.9629	0.1678
346.1723	0.1655
346.3817	0.1651
346.5911	0.1658
346.8005	0.1692
347.0099	0.1667
347.2193	0.1728
347.4286	0.1724
347.638	0.1719
347.8473	0.1771
348.0566	0.1661
348.2659	0.1782
348.4752	0.1809
348.6845	0.1723
348.8937	0.1749
349.103	0.1718
349.3122	0.1724
349.5214	0.1815
349.7306	0.1818
349.9398	0.1761
350.149	0.1713
350.3582	0.1757
350.5674	0.1762
350.7765	0.1817
350.9856	0.1778
351.1948	0.1758
351.4039	0.1821
351.613	0.1804
351.822	0.1882
352.0311	0.1849
352.2402	0.1829
352.4492	0.19
352.6582	0.1777
352.8672	0.1818
353.0762	0.1828
353.2852	0.1805
353.4942	0.185
353.7032	0.1857
353.9121	0.1817
354.1211	0.1801
354.33	0.1857
354.5389	0.1791
354.7478	0.1901
354.9567	0.1837
355.1655	0.191
355.3744	0.1803
355.5833	0.1786
355.7921	0.1889
356.0009	0.1889
356.2097	0.1796
356.4185	0.189
356.6273	0.1869
356.8361	0.1951
357.0448	0.1887
357.2536	0.1912
357.4623	0.1872
357.671	0.1897
357.8797	0.1871
358.0884	0.1902
358.2971	0.1874
358.5057	0.1958
358.7144	0.1924
358.923	0.1907
359.1316	0.1964
359.3402	0.1986
359.5488	0.1871
359.7574	0.2054
359.966	0.1966
360.1746	0.1954
360.3831	0.2003
360.5916	0.2
360.8002	0.2035
361.0087	0.1983
361.2172	0.2039
361.4256	0.203
361.6341	0.21
361.8426	0.2047
362.051	0.2126
362.2594	0.1953
362.4678	0.2131
362.6762	0.2137
362.8846	0.212
363.093	0.2064
363.3014	0.2069
363.5097	0.1996
363.718	0.2116
363.9264	0.2134
364.1347	0.2174
364.343	0.213
364.5513	0.2187
364.7595	0.2216
364.9678	0.2247
365.176	0.2104
365.3842	0.2192
365.5925	0.2251
365.8007	0.2148
366.0089	0.225
366.217	0.2262
366.4252	0.2214
366.6333	0.225
366.8415	0.2256
367.0496	0.2273
367.2577	0.2311
367.4658	0.23
367.6739	0.2288
367.882	0.2352
368.09	0.2216
368.2981	0.2274
368.5061	0.2331
368.7141	0.2254
368.9221	0.2425
369.1301	0.2265
369.3381	0.2424
369.5461	0.2394
369.754	0.2339
369.962	0.2362
370.1699	0.2395
370.3778	0.2446
370.5857	0.2287
370.7936	0.2386
371.0015	0.2439
371.2093	0.2404
371.4172	0.2393
371.625	0.241
371.8328	0.2335
372.0406	0.2442
372.2484	0.2415
372.4562	0.2524
372.664	0.2521
372.8717	0.2564
373.0795	0.2564
373.2872	0.2503
373.4949	0.257
373.7026	0.2484
373.9103	0.2367
374.118	0.2599
374.3256	0.2611
374.5333	0.2482
374.7409	0.2501
374.9485	0.2548
375.1561	0.2633
375.3637	0.2529
375.5713	0.2625
375.7789	0.2557
375.9864	0.259
376.194	0.2711
376.4015	0.2569
376.609	0.2681
376.8165	0.2636
377.024	0.2631
377.2315	0.2684
377.4389	0.255
377.6464	0.2703
377.8538	0.2668
378.0612	0.2643
378.2686	0.2579
378.476	0.2696
378.6834	0.265
378.8908	0.2719
379.0981	0.2649
379.3055	0.2739
379.5128	0.2682
379.7201	0.2705
379.9274	0.2674
380.1347	0.2765
380.342	0.2753
380.5492	0.2755
380.7565	0.2716
380.9637	0.2782
381.1709	0.2727
381.3781	0.2821
381.5853	0.2843
381.7925	0.2731
381.9997	0.2831
382.2068	0.275
382.4139	0.2731
382.6211	0.2839
382.8282	0.2881
383.0353	0.2877
383.2424	0.2725
383.4494	0.2744
383.6565	0.2818
383.8635	0.2837
384.0706	0.2837
384.2776	0.28
384.4846	0.2826
384.6916	0.2847
384.8986	0.2855
385.1055	0.2918
385.3125	0.2872
385.5194	0.2882
385.7263	0.2876
385.9333	0.2964
386.1402	0.2919
386.347	0.2908
386.5539	0.2903
386.7608	0.2908
386.9676	0.2844
387.1744	0.2852
387.3813	0.2808
387.5881	0.2764
387.7948	0.2881
388.0016	0.2958
388.2084	0.2897
388.4151	0.2844
388.6219	0.2853
388.8286	0.282
389.0353	0.2863
389.242	0.2853
389.4487	0.2836
389.6553	0.2689
389.862	0.2641
390.0686	0.2834
390.2753	0.2771
390.4819	0.2746
390.6885	0.2762
390.8951	0.2799
391.1016	0.2738
391.3082	0.2766
391.5147	0.2672
391.7213	0.2808
391.9278	0.2827
392.1343	0.2765
392.3408	0.2688
392.5473	0.2762
392.7537	0.2676
392.9602	0.2694
393.1666	0.263
393.373	0.2639
393.5794	0.2697
393.7858	0.2697
393.9922	0.255
394.1986	0.2572
394.4049	0.2564
394.6113	0.2622
394.8176	0.2628
395.0239	0.2542
395.2302	0.2544
395.4365	0.2507
395.6428	0.2535
395.8491	0.2543
396.0553	0.2493
396.2615	0.2556
396.4678	0.2483
396.674	0.2487
396.8802	0.2532
397.0863	0.2421
397.2925	0.25
397.4987	0.239
397.7048	0.249
397.9109	0.2415
398.117	0.2466
398.3231	0.2473
398.5292	0.2418
398.7353	0.2444
398.9413	0.2401
399.1474	0.2493
399.3534	0.2423
399.5594	0.2524
399.7654	0.2339
399.9714	0.2439
400.1774	0.2448
400.3833	0.2404
400.5893	0.2417
400.7952	0.2446
401.0011	0.2426
401.207	0.2392
401.4129	0.2424
401.6188	0.2396
401.8247	0.2446
402.0305	0.2351
402.2364	0.2413
402.4422	0.2397
402.648	0.2434
402.8538	0.2406
403.0596	0.2384
403.2654	0.2444
403.4711	0.2324
403.6768	0.2319
403.8826	0.2445
404.0883	0.2516
404.294	0.2466
404.4997	0.2431
404.7054	0.2438
404.911	0.2443
405.1167	0.2506
405.3223	0.2376
405.5279	0.2448
405.7335	0.2379
405.9391	0.2375
406.1447	0.2436
406.3502	0.2446
406.5558	0.253
406.7613	0.2444
406.9668	0.2374
407.1724	0.2369
407.3778	0.2477
407.5833	0.2292
407.7888	0.2372
407.9942	0.2414
408.1997	0.2412
408.4051	0.2405
408.6105	0.2382
408.8159	0.2341
409.0213	0.2428
409.2267	0.2447
409.432	0.2378
409.6374	0.2404
409.8427	0.2513
410.048	0.2378
410.2533	0.2413
410.4586	0.2327
410.6639	0.2417
410.8691	0.2347
411.0744	0.2425
411.2796	0.2441
411.4848	0.241
411.69	0.2356
411.8952	0.2352
412.1004	0.2398
412.3056	0.2376
412.5107	0.2362
412.7158	0.2552
412.921	0.2275
413.1261	0.2384
413.3312	0.2345
413.5362	0.2442
413.7413	0.2391
413.9464	0.2277
414.1514	0.235
414.3564	0.2319
414.5614	0.238
414.7664	0.2346
414.9714	0.2239
415.1764	0.2311
415.3813	0.2404
415.5863	0.2359
415.7912	0.2217
415.9961	0.2369
416.201	0.2421
416.4059	0.2354
416.6108	0.2349
416.8156	0.2327
417.0205	0.2324
417.2253	0.2314
417.4301	0.2343
417.6349	0.2307
417.8397	0.2271
418.0445	0.2306
418.2492	0.237
418.454	0.2242
418.6587	0.23
418.8634	0.2332
419.0681	0.2323
419.2728	0.2321
419.4775	0.2388
419.6822	0.2196
419.8868	0.2143
420.0915	0.2265
420.2961	0.2097
420.5007	0.2205
420.7053	0.2129
420.9099	0.2168
421.1144	0.2265
421.319	0.221
421.5235	0.217
421.728	0.2178
421.9325	0.2181
422.137	0.2096
422.3415	0.2163
422.546	0.2084
422.7504	0.2227
422.9549	0.2248
423.1593	0.2093
423.3637	0.2148
423.5681	0.2135
423.7725	0.2117
423.9769	0.2089
424.1812	0.2019
424.3856	0.2082
424.5899	0.2044
424.7942	0.2093
424.9985	0.2043
425.2028	0.2081
425.4071	0.2065
425.6113	0.2106
425.8156	0.2112
426.0198	0.2046
426.224	0.2083
426.4282	0.1973
426.6324	0.1994
426.8366	0.1998
427.0407	0.191
427.2449	0.1855
427.449	0.1877
427.6531	0.1994
427.8572	0.1887
428.0613	0.1977
428.2654	0.1948
428.4694	0.1748
428.6735	0.1853
428.8775	0.1915
429.0815	0.1839
429.2855	0.1897
429.4895	0.1858
429.6935	0.1841
429.8975	0.1828
430.1014	0.1847
430.3053	0.1857
430.5093	0.173
430.7132	0.1725
430.9171	0.176
431.1209	0.1708
431.3248	0.1556
431.5286	0.1708
431.7325	0.1678
431.9363	0.1686
432.1401	0.1573
432.3439	0.1663
432.5477	0.1636
432.7514	0.1588
432.9552	0.16
433.1589	0.1523
433.3627	0.1569
433.5664	0.1519
433.7701	0.1643
433.9737	0.1509
434.1774	0.1494
434.3811	0.1394
434.5847	0.1444
434.7883	0.1461
434.9919	0.1362
435.1955	0.1499
435.3991	0.1422
435.6027	0.132
435.8062	0.1598
436.0098	0.1249
436.2133	0.1291
436.4168	0.1339
436.6203	0.1237
436.8238	0.13
437.0272	0.1233
437.2307	0.1219
437.4341	0.1216
437.6375	0.1308
437.841	0.1208
438.0443	0.1249
438.2477	0.1136
438.4511	0.1026
438.6545	0.1161
438.8578	0.125
439.0611	0.1142
439.2644	0.1139
439.4677	0.1142
439.671	0.1053
439.8743	0.1025
440.0775	0.1088
440.2808	0.1078
440.484	0.1004
440.6872	0.0971
440.8904	0.0902
441.0936	0.0973
441.2967	0.0918
441.4999	0.0969
441.703	0.0878
441.9062	0.1007
442.1093	0.0962
442.3124	0.0821
442.5155	0.0946
442.7185	0.086
442.9216	0.0876
443.1246	0.0776
443.3276	0.0844
443.5307	0.0706
443.7337	0.0802
443.9366	0.0725
444.1396	0.0722
444.3426	0.0749
444.5455	0.073
444.7484	0.0719
444.9513	0.0732
445.1542	0.0744
445.3571	0.079
445.56	0.0678
445.7628	0.0669
445.9657	0.0604
446.1685	0.0731
446.3713	0.0644
446.5741	0.0728
446.7769	0.0664
446.9797	0.0659
447.1824	0.0564
447.3852	0.0546
447.5879	0.0536
447.7906	0.0511
447.9933	0.0602
448.196	0.0506
448.3986	0.0527
448.6013	0.0392
448.8039	0.0592
449.0066	0.0561
449.2092	0.0562
449.4118	0.043
449.6143	0.0585
449.8169	0.0436
450.0195	0.0482
450.222	0.0463
450.4245	0.0467
450.627	0.048
450.8295	0.0388
451.032	0.0441
451.2345	0.0361
451.4369	0.0478
451.6394	0.0436
451.8418	0.043
452.0442	0.0432
452.2466	0.0345
452.449	0.0381
452.6513	0.0311
452.8537	0.0267
453.056	0.0331
453.2583	0.0369
453.4607	0.0165
453.663	0.0374
453.8652	0.0254
454.0675	0.0425
454.2697	0.0309
454.472	0.0299
454.6742	0.0314
454.8764	0.037
455.0786	0.0217
455.2808	0.0288
455.4829	0.0333
455.6851	0.0327
455.8872	0.0222
456.0893	0.0268
456.2915	0.0155
456.4935	0.037
456.6956	0.0197
456.8977	0.0169
457.0997	0.0255
457.3018	0.0196
457.5038	0.0365
457.7058	0.0342
457.9078	0.0192
458.1098	0.0261
458.3117	0.0259
458.5137	0.0137
458.7156	0.0139
458.9175	0.0227
459.1194	0.0214
459.3213	0.021
459.5232	0.026
459.725	0.0211
459.9269	0.0269
460.1287	0.0184
460.3305	0.018
460.5323	0.0135
460.7341	0.0187
460.9359	0.0144
461.1376	0.0161
461.3394	0.019
461.5411	0.0257
461.7428	0.0092
461.9445	0.0171
462.1462	0.0157
462.3479	0.0139
462.5495	0.0175
462.7512	0.023
462.9528	0.0228
463.1544	0.012
463.356	0.0052
463.5576	0.0244
463.7592	0.0098
463.9607	0.0116
464.1623	0.0112
464.3638	0.0083
464.5653	0.0158
464.7668	0.0107
464.9683	0.0222
465.1697	0.0105
465.3712	0.0012
465.5726	0.01
465.7741	0.0174
465.9755	0.0223
466.1769	0.0082
466.3782	0.0036
466.5796	0.0082
466.7809	0.0074
466.9823	0.0075
467.1836	0.0211
467.3849	0.0109
467.5862	0.0035
467.7875	0.0072
467.9887	0.0184
468.19	0.0091
468.3912	0.0183
468.5924	0.0038
468.7936	0.0115
468.9948	0.0045
469.196	0.0093
469.3972	0.0047
469.5983	0.0071
469.7994	0.0108
470.0006	0.0052
470.2017	0.0144
470.4027	0.0157
470.6038	0.0081
470.8049	0.0091
471.0059	0.0103
471.2069	0.0117
471.408	0.0168
471.6089	0.0149
471.8099	0.0157
472.0109	0.0101
472.2119	0.0204
472.4128	0.0052
472.6137	-0.0005
472.8146	0.0116
473.0155	0.0141
473.2164	0.0171
473.4173	0.0079
473.6181	0.0057
473.819	0.0149
474.0198	0.0012
474.2206	-0.0037
474.4214	0.0056
474.6222	-0.0044
474.8229	-0.0003
475.0237	0.0101
475.2244	0.0083
475.4251	0.0035
475.6258	0.0103
475.8265	0.0055
476.0272	0
476.2278	0.01
476.4285	0.0062
476.6291	0.0122
476.8297	0.0093
477.0303	0.0015
477.2309	0.0056
477.4315	0.0199
477.632	-0.0053
477.8326	0.0032
478.0331	0.0062
478.2336	0.0057
478.4341	0.0066
478.6346	0.0022
478.8351	0.0041
479.0355	0.016
479.236	0.0182
479.4364	0.007
479.6368	0.0094
479.8372	0.0051
480.0376	0.0114
480.2379	0.0107
480.4383	0.0162
480.6386	-0.0018
480.8389	-0.0048
481.0392	0.0044
481.2395	0.0117
481.4398	0.006
481.6401	0.0108
481.8403	0.0068
482.0405	0.0121
482.2408	0.0141
482.441	0.0102
482.6411	0.0033
482.8413	0.0064
483.0415	0.0164
483.2416	0.009
483.4417	0.0007
483.6419	0.0005
483.8419	0.0056
484.042	0.0053
484.2421	-0.0029
484.4422	0.0004
484.6422	0.0093
484.8422	0
485.0422	0.0026
485.2422	0.0061
485.4422	0.004
485.6422	0.0025
485.8421	0.0024
486.042	0.0139
486.242	0.0012
486.4419	0.0066
486.6417	0.0054
486.8416	0.004
487.0415	0.0016
487.2413	-0.0002
487.4411	0.0083
487.641	0.0024
487.8408	0.0058
488.0405	0.0143
488.2403	0.0034
488.4401	0.0076
488.6398	0.014
488.8395	0.0094
489.0392	0.0037
489.2389	0.0127
489.4386	0.0046
489.6383	0.0114
489.8379	0.0015
490.0376	0.003
490.2372	-0.0011
490.4368	0.0033
490.6364	-0.0055
490.836	0.0023
491.0355	0.0053
491.2351	0.0064
491.4346	0.0068
491.6341	-0.0002
491.8336	0.0046
492.0331	-0.0052
492.2326	0.0064
492.432	0.0091
492.6315	0.011
492.8309	0.0116
493.0303	0.0047
493.2297	0.0067
493.4291	-0.0021
493.6284	0.0064
493.8278	0.0038
494.0271	0.0124
494.2264	0.0031
494.4257	0.0114
494.625	0.0085
494.8243	0.0005
495.0236	0.0059
495.2228	0.0107
495.422	0.014
495.6213	0.0067
495.8205	0.0115
496.0196	0.0046
496.2188	0.0084
496.418	0.0036
496.6171	-0.0026
496.8162	0.0105
497.0153	0.0118
497.2144	0.0043
497.4135	0.0047
497.6126	0.003
497.8116	-0.0004
498.0107	0.0048
498.2097	0.0049
498.4087	0.0069
498.6077	-0.0033
498.8067	0.01
499.0056	-0.0002
499.2046	0.0065
499.4035	0.006
499.6024	-0.0075
499.8013	0.0092
500.0002	0.0066
500.199	0.0145
500.3979	0.0033
500.5967	0.0104
500.7956	0.0067
500.9944	0.0081
501.1932	0.0125
501.3919	0.0151
501.5907	0.0094
501.7895	-0.0024
501.9882	0.0142
502.1869	0.0078
502.3856	-0.0016
502.5843	0.0142
502.783	0.0026
502.9816	0.0147
503.1803	0.0038
503.3789	0.0096
503.5775	0.004
503.7761	0.0048
503.9747	0.0064
504.1732	-0.0004
504.3718	0.0116
504.5703	0.0013
504.7689	-0.006
504.9674	0.0059
505.1658	-0.0029
505.3643	0.0099
505.5628	0.0089
505.7612	0.0013
505.9597	0.0032
506.1581	0.0019
506.3565	0.0067
506.5549	0.0059
506.7532	0.0025
506.9516	0.0114
507.1499	0.0034
507.3482	0.0031
507.5465	0.0041
507.7448	0.006
507.9431	0.0122
508.1414	0.0005
508.3396	0.0058
508.5379	0
508.7361	0.0064
508.9343	0.0118
509.1325	0.0149
509.3306	0.0003
509.5288	0.0051
509.7269	0.0098
509.9251	0.008
510.1232	0.0057
510.3213	0.0129
510.5193	0.0064
510.7174	0.0056
510.9154	0.0106
511.1135	-0.0008
511.3115	-0.0019
511.5095	0.003
511.7075	0.002
511.9055	0.0063
512.1034	0.0047
512.3014	0.009
512.4993	0.0183
512.6972	-0.0022
512.8951	0.0014
513.093	0.0099
513.2908	0.0166
513.4887	0.0023
513.6865	0.0036
513.8844	0.0022
514.0822	0.0055
514.2799	0.0033
514.4777	-0.0015
514.6755	0.002
514.8732	0.0019
515.0709	0.006
515.2687	-0.0052
515.4664	0.0082
515.664	0.0155
515.8617	0.0142
516.0594	0.0037
516.257	0.0066
516.4546	0.0129
516.6522	0.0029
516.8498	0.0073
517.0474	0.0041
517.2449	0.0004
517.4425	0.0038
517.64	0.0041
517.8375	0.0117
518.035	0.0076
518.2325	0.0014
518.43	-0.0041
518.6274	-0.0044
518.8249	-0.0013
519.0223	0.008
519.2197	0.0024
519.4171	-0.0022
519.6145	0.0154
519.8118	-0.0008
520.0092	0.0018
520.2065	0.0121
520.4038	0.0024
520.6011	0.0113
520.7984	0.0114
520.9956	0.0121
521.1929	0.013
521.3901	0.0079
521.5874	0.0122
521.7846	-0.001
521.9818	0.0057
522.1789	-0.0052
522.3761	0.0161
522.5732	0.0182
522.7704	0.0001
522.9675	-0.0024
523.1646	-0.004
523.3617	0.0143
523.5587	0.0031
523.7558	0.0061
523.9528	0.0108
524.1498	-0.0007
524.3468	0.0069
524.5438	0.0057
524.7408	0
524.9378	0.0164
525.1347	0.0142
525.3316	0.0082
525.5285	0.0088
525.7254	0.0102
525.9223	0.0104
526.1192	0.0077
526.316	0.0021
526.5129	0.0026
526.7097	0.0037
526.9065	0.0159
527.1033	0.0042
527.3	0.0095
527.4968	0.0053
527.6935	-0.0054
527.8903	0.0025
528.087	0.0094
528.2837	0.0137
528.4804	0.0011
528.677	0.0038
528.8737	-0.0003
529.0703	0.0128
529.2669	0.0018
529.4635	0.0033
529.6601	0.0071
529.8567	-0.0014
530.0532	0.0031
530.2498	-0.0022
530.4463	0.0019
530.6428	0.0049
530.8393	0.016
531.0358	0.0089
531.2322	-0.0037
531.4287	0.0012
531.6251	-0.0039
531.8215	-0.0039
532.0179	0.0059
532.2143	0.0106
532.4107	0.0128
532.607	-0.0004
532.8034	0.0009
532.9997	0.0111
533.196	-0.0059
533.3923	0.0078
533.5886	0.0109
533.7848	0.0055
533.9811	0.012
534.1773	0.0108
534.3735	0.0145
534.5697	0.0104
534.7659	0.0171
534.9621	0.0042
535.1582	0.0025
535.3544	0.0048
535.5505	-0
535.7466	0.0086
535.9427	0.0081
536.1387	-0.0001
536.3348	0.0082
536.5308	0.0051
536.7269	0.0003
536.9229	0.0024
537.1189	0.0097
537.3148	0.0041
537.5108	0.0039
537.7068	0.0059
537.9027	-0.0086
538.0986	0.0063
538.2945	-0.0037
538.4904	-0.0053
538.6863	-0.0019
538.8821	0.0109
539.078	0.0001
539.2738	0.0117
539.4696	0.0013
539.6654	0.0051
539.8611	0.0117
540.0569	0.004
540.2526	-0.0002
540.4484	-0.0061
540.6441	-0.004
540.8398	0.0109
541.0355	0
541.2311	-0.0007
541.4268	0.0092
541.6224	0.0182
541.818	0.0088
542.0136	0.0047
542.2092	0.0143
542.4048	0.0139
542.6003	0.005
542.7959	0.0018
542.9914	0.0047
543.1869	0.0066
543.3824	-0.0005
543.5779	0.0149
543.7734	0.0123
543.9688	0.0082
544.1642	0.0096
544.3596	0.0038
544.555	0.0117
544.7504	0.0185
544.9458	0.0087
545.1411	0.0093
545.3365	0.0027
545.5318	0.0061
545.7271	0.003
545.9224	0.0035
546.1177	0.011
546.3129	0.0032
546.5081	-0.0049
546.7034	0.0027
546.8986	0.0042
547.0938	0.0113
547.289	0.0113
547.4841	0.0095
547.6793	-0.0121
547.8744	0.0079
548.0695	0.0031
548.2646	0.0059
548.4597	0.0023
548.6548	0.0119
548.8498	0.01
549.0448	0.0089
549.2399	0.0148
549.4349	0.0044
549.6298	0.0055
549.8248	0.0069
550.0198	0.0043
550.2147	-0.0031
550.4096	-0.0035
550.6045	0.0078
550.7994	0.0029
550.9943	0.0035
551.1892	-0.005
551.384	0.0102
551.5788	0.0048
551.7737	0.0012
551.9685	-0.0033
552.1632	0.0042
552.358	0.0048
552.5528	0.0101
552.7475	0.008
552.9422	0.0031
553.1369	0.0147
553.3316	0.0051
553.5263	0.0137
553.7209	0.0005
553.9156	0.0095
554.1102	0.01
554.3048	-0.0023
554.4994	0.0059
554.694	0.0068
554.8885	0.007
555.0831	0.0199
555.2776	0.0079
555.4721	0.0014
555.6666	0.0148
555.8611	0.0071
556.0555	-0.0043
556.25	0.0055
556.4444	0.0003
556.6388	0.0002
556.8332	0.0044
557.0276	0.0023
557.222	-0.0077
557.4163	0.012
557.6107	0.0015
557.805	-0.0051
557.9993	0.0021
558.1936	0.0018
558.3879	0.0129
558.5821	0.0008
558.7764	-0.0085
558.9706	0.0094
559.1648	-0.0004
559.359	-0.0041
559.5532	0.0057
559.7473	-0.0072
559.9415	0.0112
560.1356	0.0131
560.3297	-0.0031
560.5238	0.0108
560.7179	-0.0098
560.9119	0.0067
561.106	0.0039
561.3	0.007
561.494	-0.007
561.688	0.0016
561.882	0.0114
562.076	0.0037
562.2699	0.0132
562.4639	0.0167
562.6578	0.0185
562.8517	-0.0046
563.0456	0.0118
563.2395	0.0138
563.4333	0.0042
563.6272	0.0047
563.821	0.0011
564.0148	-0
564.2086	0.007
564.4024	0.0135
564.5961	0.0031
564.7899	0.015
564.9836	-0.0026
565.1773	0.0152
565.371	-0.0012
565.5647	0.0064
565.7584	0.0142
565.952	0.0062
566.1456	0.0052
566.3393	0.0086
566.5329	0.0039
566.7264	0.0106
566.92	0.0054
567.1136	0.0027
567.3071	-0.0062
567.5006	0.0115
567.6941	0.003
567.8876	0.0001
568.0811	0.0221
568.2745	0.0004
568.468	0.0117
568.6614	0.0054
568.8548	0.0098
569.0482	0.0072
569.2416	0.0023
569.4349	0.0045
569.6283	0.0039
569.8216	0.0026
570.0149	0.0009
570.2082	0.0089
570.4015	0.0041
570.5947	0.0002
570.788	0.0066
570.9812	0.0038
571.1744	0.0018
571.3676	0.0043
571.5608	0.0005
571.754	0.009
571.9471	0.0055
572.1402	0.0051
572.3333	0.0088
572.5264	0.0038
572.7195	0.0013
572.9126	0.0038
573.1057	0.0058
573.2987	0.0048
573.4917	0.0021
573.6847	0.006
573.8777	0.006
574.0707	0.0025
574.2636	0.0042
574.4566	0.0045
574.6495	0.0038
574.8424	0.0078
575.0353	0.006
575.2281	0.0028
575.421	0
575.6138	0.0018
575.8067	0.0072
575.9995	0.005
576.1923	0.005
576.385	0.003
576.5778	0.0082
576.7706	0.0057
576.9633	0.0046
577.156	0.0001
577.3487	0.0026
577.5414	0.0025
577.734	-0.0007
577.9267	0.0043
578.1193	0.0048
578.3119	0.0043
578.5045	0.0026
578.6971	0.0013
578.8897	0.0059
579.0822	0.0093
579.2747	0.0062
579.4673	0.0042
579.6598	0.0041
579.8522	0.0041
580.0447	0.0059
580.2372	0.0062
580.4296	0.0105
580.622	0.0028
580.8144	0.0039
581.0068	0.0076
581.1992	0.0054
581.3915	0
581.5839	0.0052
581.7762	0.0054
581.9685	0.0075
582.1608	0.0059
582.353	0.002
582.5453	0.0065
582.7375	0.0062
582.9298	0.0009
583.122	0.0017
583.3142	0.011
583.5063	0.0012
583.6985	0.0049
583.8906	0.0009
584.0827	0.0054
584.2749	-0.001
584.4669	0.0012
584.659	0.0068
584.8511	0.0106
585.0431	0.0077
585.2352	0.0034
585.4272	0.0035
585.6192	0.0052
585.8111	0.0019
586.0031	0.0012
586.195	0.0004
586.387	-0.0004
586.5789	0.0082
586.7708	0.0065
586.9627	0.0045
587.1545	0.0022
587.3464	0.005
587.5382	0.0037
587.73	0.0087
587.9218	0.0039
588.1136	0.0036
588.3053	0.0062
588.4971	0.0027
588.6888	-0.0047
588.8805	-0.0008
589.0722	0.0087
589.2639	0.0055
589.4556	0.0102
589.6472	0.0104
589.8389	0.0064
590.0305	0.0001
590.2221	0.0051
590.4137	0.0007
590.6052	0.0081
590.7968	0.0105
590.9883	0.0054
591.1798	0.0062
591.3713	0.0026
591.5628	0.0019
591.7543	0.0026
591.9458	0.0059
592.1372	0.0066
592.3286	0.0037
592.52	0.0027
592.7114	0.0083
592.9028	0.0101
593.0941	0.0034
593.2855	0.0036
593.4768	0.0101
593.6681	0.0062
593.8594	0.0057
594.0506	0.0022
594.2419	0.0096
594.4331	0.0069
594.6244	-0.0034
594.8156	0.0042
595.0067	0.0038
595.1979	0.0044
595.3891	0.0076
595.5802	0.0106
595.7713	0.006
595.9624	0.0109
596.1535	0.0123
596.3446	0.0057
596.5357	0.0088
596.7267	0.0057
596.9177	-0.0022
597.1087	0.0035
597.2997	0.0077
597.4907	0.0009
597.6817	0.0074
597.8726	0.0055
598.0635	0.002
598.2544	0.0106
598.4453	0.0071
598.6362	0.0028
598.827	0.0054
599.0179	0.0098
599.2087	0.0107
599.3995	0.0062
599.5903	0.0075
599.7811	0.0106
599.9718	0.0034
600.1626	0.0007
600.3533	0.0021
600.544	0.0034
600.7347	0.0047
600.9254	0.0101
601.116	0.001
601.3067	0.0018
601.4973	0.0031
601.6879	0.0041
601.8785	0.0144
602.0691	0.0022
602.2596	0.0013
602.4502	0.0041
602.6407	0.0159
602.8312	0.0036
603.0217	0.0039
603.2122	0.0014
603.4027	0.0058
603.5931	-0.002
603.7835	0.0037
603.9739	-0.0043
604.1643	0.0096
604.3547	0.0079
604.5451	0.0051
604.7354	-0.0006
604.9257	0.0008
605.116	-0.0032
605.3063	0.0051
605.4966	0.0033
605.6869	0.0149
605.8771	0.003
606.0673	0.0013
606.2575	0.0042
606.4477	0.0129
606.6379	0.0065
606.8281	0.001
607.0182	0.0039
607.2083	-0.0006
607.3985	-0.0001
607.5885	-0.0032
607.7786	0.0046
607.9687	0.0061
608.1587	0.006
608.3488	0.0096
608.5388	-0.0013
608.7288	-0.0027
608.9187	0.0076
609.1087	0.0051
609.2986	0.0062
609.4886	-0.0052
609.6785	0.0019
609.8684	-0.0047
610.0582	0.0012
610.2481	-0.0081
610.4379	0.0063
610.6278	0.0044
610.8176	0.0111
611.0074	0.0049
611.1971	0.0095
611.3869	0.0073
611.5766	-0.0021
611.7664	0.01
611.9561	0.0078
612.1458	0.0069
612.3354	0.0011
612.5251	0.0042
612.7147	0.0048
612.9044	0.0059
613.094	0.0036
613.2836	-0.0028
613.4731	0.0003
613.6627	0.009
613.8522	0.0111
614.0417	0.005
614.2313	-0.0005
614.4207	0.0078
614.6102	0.0101
614.7997	0.0171
614.9891	0.0052
615.1785	0.0014
615.3679	0.0063
615.5573	0.0004
615.7467	0.0037
615.9361	0.0034
616.1254	0.0037
616.3147	0.0031
616.504	0.0119
616.6933	0.0145
616.8826	-0.0018
617.0718	0.0087
617.2611	-0.0001
617.4503	0.004
617.6395	0.0073
617.8287	0.0102
618.0179	0.0062
618.207	0.0102
618.3961	-0.0037
618.5853	-0.0014
618.7744	0.0042
618.9634	0.0162
619.1525	0.0064
619.3416	0.0021
619.5306	0.0085
619.7196	0.0108
619.9086	0.008
620.0976	0.0059
620.2866	0.0009
620.4755	0.0056
620.6645	0.0107
620.8534	0.0029
621.0423	0.0071
621.2312	0.0064
621.42	0.0065
621.6089	0.0013
621.7977	0.012
621.9865	-0.0048
622.1753	-0.0062
622.3641	-0.0095
622.5529	-0.0059
622.7416	-0.0011
622.9303	0.0114
623.1191	0.0088
623.3078	0.0069
623.4964	0.0065
623.6851	0.0082
623.8737	0.0058
624.0624	-0.0065
624.251	0.0021
624.4396	0.0054
624.6282	0.0114
624.8167	0.0029
625.0053	0.0128
625.1938	0
625.3823	0.0147
625.5708	-0.0006
625.7593	0.0049
625.9477	0.0093
626.1362	0.003
626.3246	0.003
626.513	0.0035
626.7014	0.0138
626.8898	0.0134
627.0781	-0.0008
627.2665	0.009
627.4548	-0.0112
627.6431	0.0047
627.8314	0.0122
628.0197	-0.0036
628.2079	0.0038
628.3962	0.0069
628.5844	0.0149
628.7726	0.007
628.9608	-0.0008
629.1489	-0.001
629.3371	-0.0014
629.5252	0.0008
629.7134	-0.0012
629.9015	0.0065
630.0895	-0.0076
630.2776	0.0116
630.4657	0.0015
630.6537	0.0077
630.8417	-0.0063
631.0297	0.0116
631.2177	0.0142
631.4057	0.0015
631.5936	0.0067
631.7815	0.0069
631.9695	0.0039
632.1574	0.0015
632.3452	0.002
632.5331	0.0066
632.7209	0.0103
632.9088	0.0073
633.0966	0.0179
633.2844	0.0091
633.4722	0.0132
633.6599	0.0312
633.8477	0.0099
634.0354	0.0142
634.2231	-0.0001
634.4108	-0.0025
634.5985	0.0166
634.7861	0.0071
634.9738	-0.0086
635.1614	0.0057
635.349	0.0038
635.5366	0.0089
635.7242	-0.0014
635.9117	0.0043
636.0993	0.0004
636.2868	0.0118
636.4743	0.0113
636.6618	-0.0081
636.8492	0.0167
637.0367	-0.005
637.2241	-0.0044
637.4115	0.0236
637.5989	0.003
637.7863	0.0358
637.9737	0.0013
638.161	0.0069
638.3484	0.0055
638.5357	0.0051
638.723	0.0121
638.9103	-0.0107
639.0975	-0.0015
639.2848	0.0185
639.472	0.0098
639.6592	-0.0049
639.8464	0.0068
640.0336	0.0163
640.2208	-0.0044
640.4079	-0.0055
640.595	-0.0044
640.7821	0.016
640.9692	0.0068
641.1563	0.0031
641.3434	0.0125
641.5304	0.0124
641.7174	0.0017
641.9044	0.0051
642.0914	0.0407
642.2784	-0.0048
642.4653	-0.0175
642.6523	0.0085
642.8392	-0.0065
643.0261	0.0173
643.213	0.0019
643.3999	0.0096
643.5867	0.006
643.7735	-0.0066
643.9604	0.0035
644.1472	0.0081
644.3339	0.0189
644.5207	0.0117
644.7075	-0.0053
644.8942	-0.0087
645.0809	0.0106
645.2676	-0.0129
645.4543	0.0018
645.6409	0.0323
645.8276	0.0079
646.0142	0.016
646.2008	0.0092
646.3874	-0.0015
646.574	0.0056
646.7605	0.0165
646.9471	-0.001
647.1336	-0.0119
647.3201	-0.0035
647.5066	0.005
647.6931	0.0003
647.8795	0.007
648.0659	0.0113
648.2524	0.0041
648.4388	0.0138
648.6252	0.0118
648.8115	0.0026
648.9979	0.0181
649.1842	0.0127
649.3705	-0.0028
649.5568	-0.033
649.7431	-0.0033
649.9294	0.004
650.1156	-0.0033
650.3018	0.0092
650.488	-0.0026
650.6742	0.0181
650.8604	0.0053
651.0466	0.0123
651.2327	0.0074
651.4188	0.0067
651.6049	0.0144
651.791	0.0179
651.9771	0.0044
652.1632	0.015
652.3492	0.0015
652.5352	0.0274
652.7212	0.0015
652.9072	-0.0062
653.0932	0.007
653.2791	0.0066
653.465	0.0051
653.651	0.0051
653.8369	0.0061
654.0227	-0.0012
654.2086	-0.0045
654.3944	0.0154
654.5803	0.0002
654.7661	-0.0002
654.9519	0.0028
655.1377	0
655.3234	0
655.5092	0
655.6949	0
655.8806	0
656.0663	0
656.2519	0
656.4376	0
656.6232	0
656.8088	0
656.9945	0
657.18	0
657.3656	0
657.5511	0
657.7367	0
657.9222	0
658.1077	0
658.2932	0
658.4786	0
658.6641	0
658.8495	0
659.0349	0
659.2203	0
659.4057	0
659.591	0.1649
659.7764	0.0247
659.9617	-0.0051
660.147	-0.007
660.3323	0.0144
660.5176	0.0136
660.7028	0.0053
660.888	0.0054
661.0733	0.0228
661.2585	0.0088
661.4436	0.0102
661.6288	0.0078
661.8139	-0.0157
661.9991	-0.0083
662.1842	0.0044
662.3693	0.0029
662.5544	0.0158
662.7394	0.0238
662.9245	0.0175
663.1095	-0.0086
663.2945	0.0064
663.4795	-0.0117
663.6644	0.0017
663.8494	0.0163
664.0343	-0.0011
664.2193	-0.0171
664.4042	0.0234
664.589	0.0151
664.7739	-0.0021
664.9587	-0.013
665.1436	-0.0197
665.3284	0.0044
665.5132	-0.0192
665.698	0.0128
665.8827	0.0104
666.0675	0.0075
666.2522	0.003
666.4369	-0.0018
666.6216	0.0314
666.8063	0.0066
666.9909	-0.0105
667.1756	0.0038
667.3602	-0.0156
667.5448	-0.0028
667.7294	0.0112
667.9139	-0.0033
668.0985	-0.0005
668.283	-0.0032
668.4675	0.0136
668.652	0.0179
668.8365	-0.0132
669.0209	-0.0027
669.2054	-0.0155
669.3898	0.014
669.5742	0.0201
669.7586	0.0287
669.943	0.0044
670.1273	-0.0193
670.3117	0.022
670.496	0.0284
670.6803	0.0022
670.8646	-0.0067
671.0488	0.0282
671.2331	-0.0376
671.4173	-0.0131
671.6015	0.0053
671.7857	0.0061
671.9699	0.018
672.1541	-0.0087
672.3382	0.0024
672.5223	0.0119
672.7064	0.0025
672.8905	-0.0009
673.0746	-0.0054
673.2587	0.0209
673.4427	0.0036
673.6267	0.0166
673.8107	0.0448
673.9947	-0.0016
674.1787	0.0175
674.3626	0.0197
674.5465	0.0236
674.7304	0.0117
674.9143	-0.0094
675.0982	-0.0014
675.2821	0.0086
675.4659	0.0011
675.6497	0.0132
675.8335	0.0038
676.0173	-0.0065
676.2011	0.0218
676.3849	0.0104
676.5686	0.018
676.7523	0.0149
676.936	0.0121
677.1197	-0.0096
677.3034	0.0263
677.487	-0.0096
677.6706	0.0057
677.8542	-0.0019
678.0378	0.0077
678.2214	0.0017
678.405	0.0087
678.5885	0.0071
678.772	0.0031
678.9555	-0.0098
679.139	0.0095
679.3225	0.0067
679.5059	-0.0067
679.6894	0.0001
679.8728	-0.0159
680.0562	0.0044
680.2395	0.0063
680.4229	-0.0051
680.6062	0.0145
680.7896	0.0075
680.9729	0.0049
681.1562	0.0041
681.3394	0.0148
681.5227	0.0079
681.7059	0.0006
681.8891	0.0041
682.0723	-0.0037
682.2555	0.0048
682.4387	0.0129
682.6218	0.0046
682.805	0.01
682.9881	0.0099
683.1712	0.0142
683.3542	0.0139
683.5373	-0.0029
683.7203	-0.0036
683.9034	-0.0091
684.0864	-0.0079
684.2694	-0.0005
684.4523	0.0078
684.6353	0.006
684.8182	-0.0051
685.0011	0.0065
685.184	0.0029
685.3669	0.019
685.5498	-0.0062
685.7326	-0.0044
685.9154	-0.0058
686.0982	0.0104
686.281	0.0045
686.4638	-0.0047
686.6465	-0.0081
686.8293	0.0035
687.012	0.0112
687.1947	0.0106
687.3774	0.0197
687.56	-0.0095
687.7427	0.006
687.9253	-0.0167
688.1079	0.0082
688.2905	-0.0014
688.4731	0.0085
688.6556	0.0058
688.8382	-0.0311
689.0207	0.0249
689.2032	0.0106
689.3857	0.0036
689.5681	0.0145
689.7506	0.0198
689.933	-0.0072
690.1154	-0.0113
690.2978	0.0157
690.4802	0.0272
690.6626	0.0224
690.8449	0.0041
691.0272	0.0123
691.2095	-0.0128
691.3918	0.0138
691.5741	0.0076
691.7563	0.0202
691.9386	0.0245
692.1208	0.0212
692.303	-0.0039
692.4852	0.0119
692.6673	-0.0146
692.8495	0.0023
693.0316	0.0314
693.2137	-0.0006
693.3958	0.0173
693.5778	0.0067
693.7599	-0.0028
693.9419	-0.0115
694.1239	0.0033
694.3059	0.0073
694.4879	-0.0197
694.6699	-0.0038
694.8518	0.0224
695.0337	0.0131
695.2157	0.0292
695.3975	0.0072
695.5794	-0.0101
695.7613	0.0319
695.9431	-0.0068
696.1249	0.0161
696.3067	-0.0053
696.4885	0.0003
696.6703	0.0134
696.852	0.0062
697.0337	0.0207
697.2154	0.0121
697.3971	0.0042
697.5788	0.021
697.7605	-0.0152
697.9421	-0.0004
698.1237	0.0066
698.3053	0.0071
698.4869	0.0001
698.6685	-0.018
698.85	0.0153
699.0315	-0.0179
699.213	0.0286
699.3945	-0.0045
699.576	0.0126
699.7575	0.0237
699.9389	-0.0215
700.1203	0.0144
700.3017	0.0223
700.4831	0.0273
700.6645	0.0241
700.8458	0.001
701.0271	0.0479
701.2084	0.0251
701.3897	0.0123
701.571	-0.0255
701.7523	0.0057
701.9335	0.0058
702.1147	0.0055
702.2959	-0.0107
702.4771	0.0101
702.6583	-0.0039
702.8394	-0.0174
703.0205	0.0239
703.2016	0.0042
703.3827	-0.004
703.5638	-0.011
703.7449	0.0141
703.9259	0.0186
704.1069	-0.0245
704.2879	0.0117
704.4689	0.0011
704.6499	0.0039
704.8308	0.0106
705.0117	0.009
705.1927	0.0127
705.3735	-0.0031
705.5544	-0.0056
705.7353	-0.0166
705.9161	-0.0163
706.0969	0.0057
706.2777	0.0187
706.4585	-0.0102
706.6393	-0.0029
706.82	0.0102
707.0007	0.0019
707.1815	0.003
707.3621	0.0379
707.5428	0.0216
707.7235	0.0041
707.9041	0.009
708.0847	0.0083
708.2653	0.0206
708.4459	0.007
708.6265	0.0128
708.807	0.0029
708.9875	-0.0092
709.168	0.016
709.3485	0.0141
709.529	0.0245
709.7095	-0.0083
709.8899	-0.0002
710.0703	-0.0008
710.2507	-0.0063
710.4311	-0.0044
710.6115	0.0396
710.7918	0.0054
710.9721	0.0082
711.1524	-0.0079
711.3327	-0.0061
711.513	-0.0077
711.6932	-0.018
711.8735	0.0189
712.0537	-0.0035
712.2339	0.0145
712.4141	0.0055
712.5942	-0.0088
712.7744	0.0051
712.9545	0.0034
713.1346	0.0351
713.3147	0.02
713.4947	0.0051
713.6748	0.0157
713.8548	0.0208
714.0348	0.0184
714.2148	-0.0062
714.3948	0.0316
714.5748	0.0089
714.7547	0.0136
714.9346	0.0262
715.1145	-0.0145
715.2944	-0.0343
715.4743	0.0349
715.6541	-0.0308
715.834	0.0094
716.0138	0.0041
716.1936	-0.0335
716.3733	-0.0013
716.5531	-0.014
716.7328	0.0113
716.9126	0.014
717.0923	-0.0208
717.2719	0.0279
717.4516	0.0335
717.6312	-0.0018
717.8109	0.0251
717.9905	0.0238
718.1701	-0.002
718.3496	0.0341
718.5292	0.0009
718.7087	-0.002
718.8882	0.0156
719.0677	-0.0005
719.2472	-0.0005
719.4267	-0.0053
719.6061	-0.03
719.7856	0.0326
719.965	-0.0094
720.1443	0.0129
720.3237	0.0022
720.5031	0.0071
720.6824	-0.0036
720.8617	-0.0134
721.041	0.024
721.2203	-0.0161
721.3995	-0.0225
721.5788	-0.0029
721.758	0.0232
721.9372	0.0158
722.1164	-0.0091
722.2956	0.0154
722.4747	0.0391
722.6538	0.0069
722.8329	0.0527
723.012	-0.0028
723.1911	-0.0086
723.3702	-0.0026
723.5492	0.0002
723.7282	-0.0281
723.9072	0.0006
724.0862	0.025
724.2652	0.0245
724.4441	0.006
724.623	0.0158
724.8019	0.0041
724.9808	0.0095
725.1597	0.0084
725.3385	0.0032
725.5174	0.008
725.6962	0.0002
725.875	0.0102
726.0538	-0.0131
726.2325	0.0322
726.4112	-0.0266
726.59	-0.0274
726.7687	-0.0047
726.9474	0.0071
727.126	0.0067
727.3047	-0.0247
727.4833	-0.0028
727.6619	-0.0125
727.8405	0.0102
728.0191	0.004
728.1976	0.016
728.3762	0.0133
728.5547	-0.0027
728.7332	0.0005
728.9116	0.0146
729.0901	0.0046
729.2686	0.0036
729.447	0.0017
729.6254	0.0338
729.8038	0.0008
729.9821	-0.0064
730.1605	-0.0009
730.3388	-0.0012
730.5171	0.0182
730.6954	-0.0135
730.8737	-0.0032
731.0519	0.0027
731.2302	0.0323
731.4084	0.0035
731.5866	0.0013
731.7648	-0.0025
731.9429	0.0113
732.1211	0.0064
732.2992	-0.0033
732.4773	0.0099
732.6554	-0.0027
732.8335	0.0192
733.0115	0.01
733.1896	-0.0179
733.3676	0.0242
733.5456	0.0015
733.7235	-0.0043
733.9015	0.0131
734.0794	-0.0044
734.2574	-0.017
734.4353	0.0215
734.6131	-0.0073
734.791	0.0064
734.9689	-0.003
735.1467	-0.0012
735.3245	0.0185
735.5023	0.0026
735.68	-0.018
735.8578	-0.0033
736.0355	0.0055
736.2132	-0.0041
736.3909	0.0106
736.5686	-0.0069
736.7463	-0.0169
736.9239	0.0159
737.1015	0.0043
737.2791	0.0203
737.4567	0.0123
737.6343	0.0251
737.8118	0.0226
737.9894	-0.0044
738.1669	-0.0022
738.3444	0.0441
738.5218	-0.0147
738.6993	0.0097
738.8767	0.0067
739.0541	-0.0158
739.2315	0.0023
739.4089	0.0129
739.5863	-0.0185
739.7636	-0.005
739.9409	-0.0049
740.1182	-0.0086
740.2955	0.01
740.4728	0.0024
740.65	-0.0049
740.8272	0.035
741.0044	-0.0003
741.1816	0.0146
741.3588	-0.0013
741.5359	-0.0217
741.7131	0.0007
741.8902	-0.0216
742.0673	-0.0293
742.2444	0.0486
742.4214	0.0055
742.5985	-0.0002
742.7755	0.0015
742.9525	-0.0036
743.1295	-0.0271
743.3064	-0.0046
743.4834	0.0022
743.6603	0.0282
743.8372	-0.0423
744.0141	0.0205
744.191	-0.0012
744.3678	-0.0281
744.5446	0.0098
744.7215	0.0029
744.8982	-0.0075
745.075	0.0713
745.2518	-0.014
745.4285	0.0058
745.6052	-0.036
745.7819	-0.0044
745.9586	0.0168
746.1353	-0.0043
746.3119	0.0035
746.4885	0.021
746.6651	-0.0011
746.8417	-0.0077
747.0183	0.0095
747.1948	0.0188
747.3714	0.0083
747.5479	-0.0003
747.7244	-0.007
747.9008	-0.0025
748.0773	0.0532
748.2537	0.0377
748.4301	0.0335
748.6065	-0.0209
748.7829	-0.0154
748.9593	0.006
749.1356	0.0061
749.3119	0.014
749.4882	0.004
749.6645	-0.0055
749.8408	0.0092
750.017	0.0243
750.1933	-0.0229
750.3695	0.0005
750.5457	0.0094
750.7218	-0.0115
750.898	-0.0062
751.0741	0.0034
751.2502	0.0168
751.4263	-0.0042
751.6024	0.0034
751.7784	-0.003
751.9545	-0.002
752.1305	-0.0136
752.3065	0.0057
752.4825	0.0338
752.6584	0.0033
752.8344	0.0009
753.0103	-0.0119
753.1862	0.011
753.3621	0.0011
753.5379	-0.0114
753.7138	0.0063
753.8896	0.0033
754.0654	0.0031
754.2412	0.0193
754.417	0.0121
754.5927	0.0084
754.7685	0.0094
754.9442	0.0336
755.1199	0.0188
755.2956	0.0001
755.4712	-0.0025
755.6469	0.0092
755.8225	-0.0084
755.9981	0.0012
756.1736	0.0187
756.3492	0.01
756.5248	0.0153
756.7003	-0.0023
756.8758	-0.0092
757.0513	0.0064
757.2267	0.0103
757.4022	-0.0136
757.5776	-0.0076
757.753	0.0282
757.9284	0.0119
758.1038	0.0081
758.2791	0.0099
758.4545	-0.007
758.6298	-0.0009
758.8051	-0.0083
758.9803	0.0196
759.1556	-0.0049
759.3308	0.0033
759.506	0.0083
759.6812	-0.0084
759.8564	-0.0041
760.0316	0.0034
760.2067	0.0189
760.3819	0.0011
760.557	0.0108
760.732	-0.0081
760.9071	0.0125
761.0821	-0.0215
761.2572	0.0094
761.4322	0.0082
761.6072	0.0015
761.7821	-0.0172
761.9571	0.0114
762.132	0.0083
762.3069	0.0103
762.4818	-0.0028
762.6567	-0.0071
762.8316	0.0244
763.0064	0.0106
763.1812	0.0251
763.356	-0.0264
763.5308	0.0127
763.7055	0.0048
763.8803	0.003
764.055	-0.0146
764.2297	-0.0188
764.4044	0.0017
764.579	0.0075
764.7537	0.0034
764.9283	0.006
765.1029	0.0133
765.2775	0.0123
765.4521	-0.0046
765.6266	-0.0039
765.8011	-0.0049
765.9756	0.0201
766.1501	0.0113
766.3246	0.0057
766.4991	0.0149
766.6735	0.031
766.8479	0.0013
767.0223	0.0136
767.1967	0.0065
767.371	0.0296
767.5454	0.0035
767.7197	0.028
767.894	-0.009
768.0683	0.0016
768.2425	0.003
768.4168	0.0096
768.591	0.0076
768.7652	0.0214
768.9394	-0.0352
769.1135	-0.0071
769.2877	0.0238
769.4618	-0.009
769.6359	-0.0081
769.81	0.0127
769.984	0.0289
770.1581	0.0272
770.3321	0.0416
770.5061	0.0009
770.6801	0.0252
770.8541	0.016
771.028	0.0505
771.202	0.0422
771.3759	0.0151
771.5498	0.0117
771.7236	0.0162
771.8975	0.0236
772.0713	0.0385
772.2451	-0.0007
772.4189	0.0222
772.5927	-0.0296
772.7665	0.0058
772.9402	0.0256
773.1139	-0.0165
773.2876	0.0003
773.4613	0.0258
773.635	0.0469
773.8086	0.014
773.9822	0.0294
774.1558	0.0325
774.3294	-0.0003
774.503	0.0144
774.6765	0.0516
774.8501	0.0003
775.0236	-0.0052
775.1971	0.0065
775.3705	-0.0081
775.544	0.0005
775.7174	0.0265
775.8908	0.0128
776.0642	-0.0093
776.2376	0.0306
776.4109	0.0065
776.5843	-0.0065
776.7576	0.0177
776.9309	-0.0012
777.1041	-0.0287
777.2774	0.0208
777.4506	-0.0013
777.6238	-0.0437
777.797	-0.0011
777.9702	0.0197
778.1434	-0.0046
778.3165	-0.0295
778.4896	-0.0323
778.6627	0.0352
778.8358	-0.0094
779.0089	-0.0127
779.1819	0.0407
779.3549	0.002
779.5279	-0.0298
779.7009	0.0645
779.8739	0.0389
780.0468	0.0243
780.2197	0.0208
780.3926	-0.0068
780.5655	0.0424
780.7384	-0.0129
780.9112	0.0016
781.0841	-0.0002
781.2569	0.021
781.4297	-0.0043
781.6024	-0.0101
781.7752	0.0459
781.9479	0.0181
782.1206	0.0029
782.2933	-0.0076
782.466	0.041
782.6386	-0.0009
782.8113	-0.0129
782.9839	-0.0187
783.1565	0.0328
783.329	-0.006
783.5016	0.0207
783.6741	-0.0159
783.8466	0.0484
784.0191	0.0308
784.1916	-0.0338
784.3641	-0.015
784.5365	0.0042
784.7089	-0.0356
784.8813	0.0376
785.0537	0.0511
785.2261	0.0124
785.3984	-0.0192
785.5707	-0.0113
785.743	0.0473
785.9153	-0.0135
786.0876	-0.0241
786.2598	-0.0396
786.432	0.0079
786.6042	0.0495
786.7764	-0.0191
786.9486	-0.0456
787.1207	0.0059
787.2928	0.0304
787.4649	-0.0067
787.637	-0.0044
787.8091	-0.0197
787.9811	0.0486
788.1532	0.0281
788.3252	-0.0026
788.4972	0.0234
788.6691	-0.0095
788.8411	-0.0377
789.013	0.0092
789.1849	-0.0163
789.3568	-0.0035
789.5287	0.0139
789.7005	-0.0332
789.8723	-0.0268
790.0442	-0.0171
790.2159	0.0486
790.3877	0.028
790.5595	0.0678
790.7312	-0.0181
790.9029	0.0215
791.0746	0.0523
791.2463	-0.0243
791.4179	-0.0161
791.5896	0.0472
791.7612	0.0686
791.9328	0.0031
792.1044	0.0133
792.2759	-0.0519
792.4474	0.016
792.619	0.0615
792.7905	-0.0085
792.9619	0.0464
793.1334	0.1127
793.3048	0.0398
793.4762	0.0503
793.6476	-0.036
793.819	0.0173
793.9904	0.0003
794.1617	-0.0028
794.333	0.0223
794.5043	0.0214
794.6756	0.0043
794.8469	0.0089
795.0181	0.0144
795.1893	0.0401
795.3605	0.0274
795.5317	0.0084
795.7029	-0.0328
795.874	0.0071
796.0452	0.0224
796.2163	0.0635
796.3873	0.0481
796.5584	0.0519
796.7294	-0.0022
796.9005	0.0521
797.0715	-0.0178
797.2425	0.1217
797.4134	0.0099
797.5844	-0.008
797.7553	-0.0995
797.9262	0.0582
798.0971	0.0408
798.2679	0.0399
798.4388	0.0202
798.6096	-0.0556
798.7804	0.0068
798.9512	-0.0277
799.122	-0.0703
799.2927	0.0327
799.4635	-0.0294
799.6342	0.0277
799.8049	0.0056
799.9755	0.0346
800.1462	0.075
800.3168	-0.0046
800.4874	-0.0475
800.658	0.1028
800.8286	-0.0248
800.9991	0.0071
801.1696	-0.0578
801.3402	-0.0148
801.5106	-0.001
801.6811	-0.02
801.8516	0.072
802.022	0.0105
802.1924	0.0496
802.3628	-0.033
802.5332	-0.061
802.7035	0.1225
802.8739	-0.0657
803.0442	-0.0298
803.2145	0.0025
803.3847	0.075
803.555	0.0387
803.7252	-0.0366
803.8954	-0.0278
804.0656	-0.0299
804.2358	-0.0063
804.4059	0.0247
804.5761	-0.0525
804.7462	0.0009
804.9163	-0.0296
805.0864	-0.0485
805.2564	-0.0389
805.4264	0.0924
805.5965	0.1126
805.7665	0.0242
805.9364	0.0086
806.1064	-0.031
806.2763	0.0823
806.4462	-0.0159
806.6161	0.0202
806.786	0.0137
806.9559	-0.0269
807.1257	-0.0308
807.2955	-0.0525
807.4653	0.0176
807.6351	0.0323
807.8048	-0.0047
807.9746	-0.0224
808.1443	-0.0126
808.314	-0.0017
808.4837	0.0904
808.6533	0.0541
808.8229	0.0649
808.9926	0.0245
809.1622	-0.0121
809.3317	0.0131
809.5013	-0.0605
809.6708	0.0653
809.8403	0.0542
810.0098	-0.025
810.1793	0.0095
810.3488	-0.0086
810.5182	0.0993
810.6876	0.0458
810.857	-0.0098
811.0264	0.0607
811.1958	0.0452
811.3651	-0.0307
811.5344	0.0031
811.7037	0.0505
811.873	0.0505
812.0422	-0.1726
812.2115	-0.0238
812.3807	-0.0268
812.5499	0.127
812.7191	-0.1822
812.8882	-0.0288
813.0574	-0.0166
813.2265	-0.1004
813.3956	0.0496
813.5646	0.0726
813.7337	0.1059
813.9027	-0.0091
814.0718	0.0693
814.2407	0.0538
814.4097	0.0162
814.5787	0.0724
814.7476	-0.0051
814.9165	-0.0038
815.0854	-0.0284
815.2543	-0.0348
815.4232	-0.0293
815.592	0.0464
815.7608	-0.1726
815.9296	0.0185
816.0984	0.1621
816.2671	-0.3224
816.4359	0.0943
816.6046	0.0534
816.7733	-0.1127
816.942	-0.0196
817.1106	0.0789
817.2793	-0.0704
817.4479	0.0035
817.6165	0.0786
817.785	0.0034
817.9536	-0.1179
818.1221	0.0115
818.2906	0.0788
818.4591	0.0056
818.6276	-0.0386
818.7961	-0.0232
818.9645	-0.0401
819.1329	-0.1433
819.3013	-0.0849
819.4697	0.0491
819.638	0.1519
819.8064	-0.0926
819.9747	0.015
820.143	-0.0505
820.3113	-0.0489
820.4795	0.0209
820.6477	0.0712
820.816	-0.0166
820.9842	0.1499
821.1523	0.0349
821.3205	0.0051
821.4886	0.0847
821.6567	-0.0358
821.8248	0.3173
821.9929	-0.2256
822.1609	-0.1232
822.329	0.0228
822.497	0.0112
822.665	0.1286
822.833	-0.0238
823.0009	0.0502
823.1688	0.1414
823.3367	-0.2511
823.5046	0.0756
823.6725	-0.0145
823.8404	-0.0886
824.0082	-0.1463
824.176	-0.1563
824.3438	0.176
824.5116	-0.0639
824.6793	0.1652
824.847	-0.1489
825.0147	0.1841
825.1824	-0.0248
825.3501	0.1108
825.5177	-0.0895
825.6854	-0.2242
825.853	0.0781
826.0206	0.0165
826.1881	-0.0958
826.3557	-0.0324
826.5232	0.0898
826.6907	-0.0035
826.8582	-0.0349
827.0257	0.3024
827.1931	-0.028
827.3605	-0.0688
827.528	0.0026
827.6953	-0.1785
827.8627	-0.0622
828.03	0.0038
828.1974	-0.0083
828.3647	0.0751
828.532	0.0247
828.6992	0.1178
828.8665	-0.0562
829.0337	0.1594
829.2009	-0.1297
829.3681	-0.0292
829.5352	-0.3409
829.7024	0.1588
829.8695	-0.0415
830.0366	0.0753
830.2037	0.0843
830.3707	0.0047
830.5378	0.0752
830.7048	-0.0745
830.8718	-0.0547
831.0388	0.0598
831.2057	0.6909
831.3727	-0.4978
831.5396	-0.0895
831.7065	-0.8612
831.8734	-0.1446
832.0402	0.1968
832.2071	-0.3846
832.3739	-0.2644
832.5407	-1.7537
832.7075	-0.4537
832.8742	-0.027
833.041	0.2307
833.2077	0.2325
833.3744	0.0635
833.541	-0.0114
833.7077	-0.1622
833.8743	-0.0569
834.0409	0.0299
834.2075	0.1262
834.3741	-0.1652
834.5407	0.2607
834.7072	0.0577
834.8737	0.1631
835.0402	0.4399
835.2067	0.0033
835.3731	-0.0853
835.5395	-0.0234
835.706	-0.2633
835.8723	-0.0631
836.0387	1.0584
836.2051	0.0041
836.3714	0.5005
836.5377	0.1234
836.704	0.2554
836.8703	-0.1152
837.0365	-0.5365
837.2027	0.6549
837.3689	0.1536
837.5351	0.0634
837.7013	0.6811
837.8674	1.1849
838.0335	0.2778
838.1997	-0
838.3657	-0
838.5318	-0.5637
838.6978	-0
838.8639	-0.1126
839.0299	-0.2539
839.1958	0.4833
839.3618	0.0803
839.5277	0.0096
839.6937	-0.2012
839.8596	-0.0999
840.0254	0.1205
840.1913	-0.4487
840.3571	-0.1095
840.523	-0
840.6888	0.3851
840.8545	-0.6628
841.0203	-0.0382
841.186	0.3861
841.3517	0.1757
841.5174	0.4244
841.6831	0.1993
841.8488	0.2798
842.0144	0.1166
842.18	0.0968
842.3456	-0.7458
842.5112	-0
842.6767	0.0657
842.8422	0.4067
843.0077	0.8451
843.1732	-0.2785
843.3387	-0.0321
843.5042	-0
843.6696	0.3074
843.835	-0.2746
844.0004	-0.1707
844.1657	-0
844.3311	0.2851
844.4964	-0.347
844.6617	0.2178
844.827	-0
844.9923	0.3493
845.1575	-0.355
845.3227	-0.1984
845.4879	0.0089
845.6531	0.4449
845.8183	0.3746
845.9834	0.2196
846.1485	0.1222
846.3136	0.2309
846.4787	-0
846.6438	0.902
846.8088	1.1503
846.9738	-0
847.1388	0.3092
847.3038	0.5088
847.4687	-0
847.6337	-0.02
847.7986	-0.2142
847.9635	0.0392
848.1284	1.4707
848.2932	0.2965
848.458	-0
848.6228	-0.071
848.7876	-0
848.9524	-0.2997
849.1172	-1.7914
849.2819	-0
849.4466	0.1551
849.6113	0.0562
849.7759	-0
849.9406	-0.0937
850.1052	-0.8826
850.2698	0.5493
850.4344	-0.9061
850.599	-0.3005
850.7635	0.1348
850.928	-0.0206
851.0925	0.6542
851.257	0.0645
851.4215	0.7793
851.5859	0.2514
851.7503	-0
851.9147	-0.3145
852.0791	-0.089
852.2434	0.3907
852.4078	-0.4344
852.5721	0.2611
852.7364	-0.1525
852.9007	-0.1181
853.0649	-0
853.2291	0.3049
853.3934	-0
853.5575	-0.1738
853.7217	0.2358
853.8859	-0
854.05	-0.6067
854.2141	0.3757
854.3782	-0.0704
854.5423	1.2103
854.7063	-0
854.8703	0.126
855.0343	-0.1095
855.1983	0.2152
855.3623	0.4799
855.5262	0.3754
855.6901	0.3097
855.854	0.1671
856.0179	-0.0078
856.1818	0.567
856.3456	0.5392
856.5094	-0
856.6732	-0.0632
856.837	-0.9319
857.0008	-0.783
857.1645	-0.1075
857.3282	-0.4391
857.4919	0.0282
857.6556	-0.4959
857.8192	-0.2355
857.9828	-0.3917
858.1465	0.0198
858.31	-0
858.4736	-0.7525
858.6372	-0.0749
858.8007	0.0063
858.9642	0.2977
859.1277	-0
859.2911	0.4085
859.4546	-0
859.618	-0.1579
859.7814	-0.072
859.9448	-0
860.1081	0.6628
860.2715	-0
860.4348	0.0777
860.5981	-0.0108
860.7614	-0
860.9246	-0.098
861.0879	0.0801
861.2511	-0
861.4143	-0.7873
861.5774	-0.1019
861.7406	0.3759
861.9037	-0.3424
862.0668	-0.8451
862.2299	-0
862.393	-0
862.556	-0.4287
862.7191	0.8739
862.8821	1.3648
863.0451	0.2943
863.208	-0.1328
863.371	-0.53
863.5339	0.2881
863.6968	2.6875
863.8597	-0
864.0225	0.4059
864.1854	-0
864.3482	-0
864.511	-0.0491
864.6737	-0
864.8365	-0.0377
864.9992	0.5294
865.1619	0.0142
865.3246	-1.4914
865.4873	0.2688
865.65	0.1981
865.8126	-0
865.9752	-0.3734
866.1378	0.1517
866.3004	-0.0502
866.4629	-1.9671
866.6254	-0.5997
866.7879	-0.4114
866.9504	-0.0204
867.1129	-0.2525
867.2753	-0.1884
867.4377	0.75
867.6001	-0.7075
867.7625	-0.2092
867.9249	-0.1913
868.0872	-0.3079
868.2495	0.6393
868.4118	1.326
868.5741	-0
868.7363	-0
868.8986	-0.9829
869.0608	-0
869.223	-0.47
869.3851	-0
869.5473	-0.0291
869.7094	-0
869.8715	0.5195
870.0336	0.2565
870.1957	-0.6401
870.3577	0.0721
870.5197	-0.0056
870.6817	-0.8635
870.8437	-0.0257
871.0057	0.8023
871.1676	0.1759
871.3295	0.4269
871.4914	-0.6628
871.6533	0.0165
871.8151	0.2407
871.977	-0.4893
872.1388	-0
872.3006	-0.4922
872.4623	-0.8258
872.6241	-0
872.7858	-0.3958
872.9475	0.0074
873.1092	0.4125
873.2709	0.417
873.4325	-1.558
873.5941	-0
873.7557	-0
873.9173	-0
874.0789	0.1541
874.2404	-0
874.4019	0.0117
874.5634	-0
874.7249	-0
874.8863	0.0673
875.0478	-0.3905
875.2092	0.5801
875.3706	0.804
875.5319	0.9263
875.6933	-0.007
875.8546	0.2563
876.0159	0.1084
876.1772	-0
876.3385	-0
876.4997	-0
876.6609	-0
876.8221	-0
876.9833	-0.3299
877.1445	0.4196
877.3056	-0.7663
877.4667	-0
877.6278	-0
877.7889	0.6156
877.9499	0.2804
878.111	-0.4603
878.272	-0
878.433	-0
878.5939	-0
878.7549	-0
878.9158	-0.1594
879.0767	-0.2093
879.2376	-0
879.3984	0.1235
879.5593	0.2121
879.7201	-1.959
879.8809	0.2614
880.0417	-0.1916
880.2024	0.8933
880.3632	-0
880.5239	0.1755
880.6846	-0.6693
880.8452	-0.1829
881.0059	-1.1074
881.1665	0.1395
881.3271	-0
881.4877	0.217
881.6483	-1.2089
881.8088	-0
881.9693	-0.9599
882.1298	-0.9599
882.2903	-0.9599
