Data from D4ACN5uM440nmA_Absorbance_13-50-26-662.txt Node
Date: Fri Feb 21 13:50:26 GMT 2025
User: LASERRRRR
Spectrometer: FLMT03099
Trigger mode: 0
Integration Time (sec): 1.500000E-2
Scans to average: 1
Electric dark correction enabled: true
Nonlinearity correction enabled: false
Boxcar width: 0
XAxis mode: Wavelengths
Number of Pixels in Spectrum: 3648
>>>>>Begin Spectral Data<<<<<
179.3399	0.3793
179.5586	0.3793
179.7771	0.3793
179.9957	0.0357
180.2143	-1.3854
180.4329	0.9857
180.6514	-0
180.8699	1.018
181.0885	-0
181.307	-0
181.5255	0.1833
181.744	-0
181.9625	0.1018
182.181	-0
182.3994	-0.3586
182.6179	-0
182.8363	-0
183.0547	-0
183.2732	0.0652
183.4916	0.226
183.71	0.4057
183.9284	-0.0371
184.1467	0.0711
184.3651	0.1485
184.5835	0.3475
184.8018	-0.0022
185.0201	0.4735
185.2385	0.124
185.4568	0.3051
185.6751	0.1086
185.8934	0.2111
186.1117	-0.1001
186.3299	0.2278
186.5482	0.299
186.7664	0.1451
186.9847	0.0359
187.2029	0.2175
187.4211	0.0126
187.6393	0.2711
187.8575	0.2873
188.0757	0.3687
188.2939	0.0508
188.512	0.3077
188.7302	0.1824
188.9483	0.2144
189.1665	0.7222
189.3846	0.2679
189.6027	0.1949
189.8208	0.3133
190.0389	0.0389
190.257	0.1272
190.475	0.0214
190.6931	0.1636
190.9111	0.1223
191.1292	0.1063
191.3472	0.19
191.5652	0.3788
191.7832	0.1732
192.0012	0.213
192.2192	0.169
192.4371	0.1193
192.6551	0.0937
192.873	0.2436
193.091	0.2391
193.3089	0.1519
193.5268	0.3348
193.7447	0.1667
193.9626	0.2277
194.1805	0.3039
194.3984	0.3427
194.6162	0.3515
194.8341	0.3121
195.0519	0.2229
195.2697	0.2523
195.4875	0.2832
195.7054	0.2719
195.9231	0.3181
196.1409	0.3471
196.3587	0.3985
196.5765	0.4765
196.7942	0.3936
197.012	0.3185
197.2297	0.4088
197.4474	0.3867
197.6651	0.3368
197.8828	0.3828
198.1005	0.4962
198.3182	0.4008
198.5358	0.4371
198.7535	0.4057
198.9711	0.4487
199.1888	0.395
199.4064	0.4071
199.624	0.356
199.8416	0.3837
200.0592	0.4097
200.2767	0.4164
200.4943	0.4325
200.7119	0.414
200.9294	0.3974
201.1469	0.4581
201.3645	0.4811
201.582	0.41
201.7995	0.4138
202.017	0.4048
202.2344	0.4124
202.4519	0.3903
202.6694	0.3924
202.8868	0.3904
203.1042	0.4569
203.3217	0.4206
203.5391	0.385
203.7565	0.3654
203.9739	0.3964
204.1913	0.3493
204.4086	0.3588
204.626	0.3807
204.8433	0.3522
205.0607	0.3738
205.278	0.3634
205.4953	0.3444
205.7126	0.3339
205.9299	0.3254
206.1472	0.3236
206.3644	0.3668
206.5817	0.3478
206.7989	0.3531
207.0162	0.3196
207.2334	0.3286
207.4506	0.3316
207.6678	0.2988
207.885	0.2864
208.1022	0.2979
208.3194	0.3063
208.5365	0.2971
208.7537	0.2915
208.9708	0.3143
209.1879	0.2727
209.405	0.291
209.6222	0.2651
209.8392	0.3141
210.0563	0.2827
210.2734	0.2813
210.4905	0.277
210.7075	0.2705
210.9245	0.2758
211.1416	0.2719
211.3586	0.2833
211.5756	0.2329
211.7926	0.2737
212.0096	0.2501
212.2265	0.2446
212.4435	0.2556
212.6604	0.2257
212.8774	0.258
213.0943	0.244
213.3112	0.2518
213.5281	0.2488
213.745	0.2558
213.9619	0.2512
214.1788	0.2634
214.3956	0.2524
214.6125	0.2689
214.8293	0.2392
215.0461	0.261
215.2629	0.2526
215.4798	0.256
215.6965	0.2502
215.9133	0.2558
216.1301	0.2463
216.3469	0.2372
216.5636	0.2361
216.7803	0.2311
216.9971	0.2491
217.2138	0.2491
217.4305	0.2516
217.6472	0.251
217.8639	0.2559
218.0805	0.2516
218.2972	0.2374
218.5138	0.2545
218.7305	0.2643
218.9471	0.247
219.1637	0.2676
219.3803	0.2566
219.5969	0.2528
219.8135	0.265
220.0301	0.2619
220.2466	0.2547
220.4632	0.2414
220.6797	0.2723
220.8962	0.2607
221.1127	0.2632
221.3292	0.2546
221.5457	0.2761
221.7622	0.2644
221.9787	0.2847
222.1951	0.2712
222.4116	0.2751
222.628	0.2921
222.8444	0.2809
223.0608	0.2879
223.2772	0.2747
223.4936	0.2769
223.71	0.291
223.9264	0.2848
224.1427	0.2772
224.3591	0.2875
224.5754	0.3014
224.7917	0.2747
225.008	0.2959
225.2243	0.3011
225.4406	0.296
225.6569	0.2896
225.8732	0.306
226.0894	0.3066
226.3057	0.3059
226.5219	0.3236
226.7381	0.3223
226.9543	0.3048
227.1705	0.3142
227.3867	0.3144
227.6029	0.3221
227.8191	0.3361
228.0352	0.3299
228.2513	0.3378
228.4675	0.3496
228.6836	0.3428
228.8997	0.3472
229.1158	0.36
229.3319	0.3549
229.548	0.3551
229.764	0.3461
229.9801	0.3743
230.1961	0.3787
230.4121	0.3713
230.6282	0.3927
230.8442	0.3923
231.0602	0.3814
231.2761	0.3851
231.4921	0.3884
231.7081	0.404
231.924	0.3957
232.14	0.4121
232.3559	0.4053
232.5718	0.4099
232.7877	0.4115
233.0036	0.4152
233.2195	0.4106
233.4353	0.4197
233.6512	0.4131
233.867	0.4202
234.0829	0.4349
234.2987	0.4326
234.5145	0.4378
234.7303	0.4263
234.9461	0.4346
235.1619	0.4441
235.3776	0.4337
235.5934	0.4297
235.8091	0.4431
236.0249	0.4509
236.2406	0.4392
236.4563	0.454
236.672	0.4394
236.8877	0.4451
237.1034	0.4507
237.319	0.4535
237.5347	0.452
237.7503	0.4481
237.966	0.4611
238.1816	0.4543
238.3972	0.4506
238.6128	0.4693
238.8284	0.4616
239.0439	0.4744
239.2595	0.4657
239.475	0.4671
239.6906	0.4533
239.9061	0.4651
240.1216	0.4593
240.3371	0.4582
240.5526	0.4564
240.7681	0.4599
240.9836	0.4581
241.199	0.462
241.4145	0.4533
241.6299	0.4544
241.8453	0.4365
242.0607	0.4384
242.2761	0.4319
242.4915	0.4354
242.7069	0.4367
242.9223	0.4241
243.1376	0.4141
243.353	0.4167
243.5683	0.396
243.7836	0.394
243.9989	0.3782
244.2142	0.375
244.4295	0.3765
244.6448	0.3756
244.86	0.3567
245.0753	0.3538
245.2905	0.3461
245.5057	0.3439
245.721	0.3468
245.9362	0.3387
246.1514	0.3347
246.3665	0.3209
246.5817	0.3019
246.7969	0.3011
247.012	0.2921
247.2271	0.2942
247.4423	0.287
247.6574	0.2889
247.8725	0.2782
248.0876	0.2731
248.3026	0.2699
248.5177	0.2604
248.7328	0.2547
248.9478	0.258
249.1628	0.2481
249.3779	0.2493
249.5929	0.244
249.8079	0.2384
250.0228	0.2342
250.2378	0.2289
250.4528	0.2307
250.6677	0.2222
250.8827	0.222
251.0976	0.2146
251.3125	0.215
251.5274	0.2191
251.7423	0.2125
251.9572	0.2073
252.172	0.2053
252.3869	0.2126
252.6017	0.2028
252.8166	0.1985
253.0314	0.2002
253.2462	0.2006
253.461	0.1976
253.6758	0.2027
253.8906	0.1883
254.1053	0.1945
254.3201	0.1869
254.5348	0.1838
254.7496	0.1843
254.9643	0.1935
255.179	0.1869
255.3937	0.1847
255.6083	0.1904
255.823	0.1856
256.0377	0.1789
256.2523	0.1802
256.467	0.1905
256.6816	0.1797
256.8962	0.1858
257.1108	0.1845
257.3254	0.1857
257.54	0.18
257.7545	0.1869
257.9691	0.1831
258.1836	0.1747
258.3981	0.1792
258.6127	0.1762
258.8272	0.1864
259.0417	0.1742
259.2561	0.1751
259.4706	0.1794
259.6851	0.1776
259.8995	0.1716
260.114	0.1765
260.3284	0.1704
260.5428	0.1788
260.7572	0.1769
260.9716	0.1844
261.186	0.1736
261.4003	0.1798
261.6147	0.1814
261.829	0.1767
262.0433	0.1848
262.2577	0.1763
262.472	0.1823
262.6863	0.1844
262.9005	0.1807
263.1148	0.1795
263.3291	0.1845
263.5433	0.1836
263.7576	0.1844
263.9718	0.1868
264.186	0.1831
264.4002	0.1888
264.6144	0.1865
264.8286	0.1872
265.0427	0.1885
265.2569	0.1854
265.471	0.1847
265.6851	0.1851
265.8993	0.1898
266.1134	0.1865
266.3275	0.1842
266.5415	0.1882
266.7556	0.1904
266.9697	0.1882
267.1837	0.1878
267.3978	0.1873
267.6118	0.186
267.8258	0.1911
268.0398	0.1894
268.2538	0.1919
268.4677	0.1836
268.6817	0.1856
268.8957	0.1795
269.1096	0.1802
269.3235	0.1859
269.5374	0.1894
269.7514	0.1908
269.9652	0.1788
270.1791	0.1776
270.393	0.1838
270.6068	0.1818
270.8207	0.1742
271.0345	0.178
271.2483	0.1781
271.4622	0.1817
271.676	0.1807
271.8897	0.1811
272.1035	0.1851
272.3173	0.1796
272.531	0.1852
272.7448	0.1781
272.9585	0.1807
273.1722	0.1814
273.3859	0.1798
273.5996	0.184
273.8133	0.1829
274.0269	0.1826
274.2406	0.1863
274.4542	0.1869
274.6679	0.1857
274.8815	0.1936
275.0951	0.1922
275.3087	0.1931
275.5223	0.1885
275.7358	0.1935
275.9494	0.1919
276.1629	0.1924
276.3765	0.1876
276.59	0.1855
276.8035	0.1917
277.017	0.202
277.2305	0.1955
277.444	0.1998
277.6574	0.202
277.8709	0.2019
278.0843	0.1981
278.2978	0.1939
278.5112	0.1982
278.7246	0.1875
278.938	0.1926
279.1513	0.1918
279.3647	0.1943
279.5781	0.1891
279.7914	0.1885
280.0047	0.1963
280.2181	0.1956
280.4314	0.1912
280.6447	0.1959
280.8579	0.1824
281.0712	0.1894
281.2845	0.1926
281.4977	0.189
281.711	0.1856
281.9242	0.1884
282.1374	0.1874
282.3506	0.1851
282.5638	0.1876
282.7769	0.1779
282.9901	0.1885
283.2033	0.1887
283.4164	0.1855
283.6295	0.1825
283.8426	0.1808
284.0557	0.1825
284.2688	0.1846
284.4819	0.1815
284.695	0.1902
284.908	0.1845
285.1211	0.1876
285.3341	0.181
285.5471	0.187
285.7601	0.186
285.9731	0.1863
286.1861	0.1889
286.3991	0.1948
286.612	0.1857
286.825	0.1866
287.0379	0.1888
287.2508	0.185
287.4637	0.1943
287.6766	0.1845
287.8895	0.1827
288.1024	0.1908
288.3152	0.1869
288.5281	0.1798
288.7409	0.189
288.9538	0.186
289.1666	0.1926
289.3794	0.1817
289.5922	0.1871
289.8049	0.1868
290.0177	0.1856
290.2304	0.1844
290.4432	0.1872
290.6559	0.1886
290.8686	0.1936
291.0813	0.1887
291.294	0.1873
291.5067	0.1895
291.7194	0.1888
291.932	0.1809
292.1447	0.185
292.3573	0.1885
292.5699	0.1889
292.7825	0.1844
292.9951	0.182
293.2077	0.1833
293.4203	0.1895
293.6328	0.1885
293.8454	0.186
294.0579	0.1881
294.2704	0.1913
294.4829	0.1836
294.6954	0.1839
294.9079	0.1835
295.1204	0.1853
295.3328	0.189
295.5453	0.1864
295.7577	0.1866
295.9701	0.1886
296.1825	0.1898
296.3949	0.1869
296.6073	0.1856
296.8197	0.1874
297.0321	0.1862
297.2444	0.183
297.4567	0.1845
297.6691	0.1819
297.8814	0.1883
298.0937	0.1824
298.306	0.1818
298.5182	0.1898
298.7305	0.1845
298.9428	0.1846
299.155	0.1829
299.3672	0.1926
299.5794	0.188
299.7916	0.1853
300.0038	0.1845
300.216	0.1866
300.4282	0.191
300.6403	0.1931
300.8525	0.1855
301.0646	0.1882
301.2767	0.1864
301.4888	0.1852
301.7009	0.1867
301.913	0.1905
302.125	0.1889
302.3371	0.1856
302.5491	0.1899
302.7612	0.1938
302.9732	0.1887
303.1852	0.1899
303.3972	0.1867
303.6092	0.1862
303.8211	0.1864
304.0331	0.1883
304.245	0.1819
304.457	0.186
304.6689	0.1852
304.8808	0.181
305.0927	0.1916
305.3046	0.1814
305.5164	0.1815
305.7283	0.1766
305.9401	0.172
306.152	0.1803
306.3638	0.178
306.5756	0.1804
306.7874	0.1754
306.9992	0.1676
307.2109	0.1708
307.4227	0.1684
307.6344	0.1789
307.8462	0.1662
308.0579	0.1703
308.2696	0.1692
308.4813	0.1691
308.693	0.1667
308.9046	0.1618
309.1163	0.161
309.328	0.1567
309.5396	0.1593
309.7512	0.1566
309.9628	0.152
310.1744	0.1537
310.386	0.1467
310.5976	0.1474
310.8091	0.1514
311.0207	0.1485
311.2322	0.1438
311.4437	0.1502
311.6552	0.1536
311.8667	0.1527
312.0782	0.1428
312.2897	0.1479
312.5012	0.1414
312.7126	0.1422
312.924	0.1414
313.1355	0.1388
313.3469	0.1381
313.5583	0.1392
313.7696	0.1335
313.981	0.1417
314.1924	0.1333
314.4037	0.1322
314.6151	0.1345
314.8264	0.1401
315.0377	0.1361
315.249	0.1372
315.4603	0.1339
315.6716	0.1381
315.8828	0.1405
316.0941	0.1373
316.3053	0.1311
316.5165	0.1336
316.7277	0.1306
316.9389	0.1363
317.1501	0.134
317.3613	0.1311
317.5724	0.135
317.7836	0.1235
317.9947	0.1338
318.2058	0.1271
318.417	0.1397
318.6281	0.1284
318.8391	0.1301
319.0502	0.1328
319.2613	0.1343
319.4723	0.1269
319.6834	0.1383
319.8944	0.1278
320.1054	0.137
320.3164	0.1276
320.5274	0.1253
320.7383	0.1272
320.9493	0.1297
321.1602	0.1297
321.3712	0.1284
321.5821	0.1211
321.793	0.1376
322.0039	0.1327
322.2148	0.134
322.4257	0.1274
322.6365	0.1368
322.8474	0.1289
323.0582	0.1336
323.269	0.1328
323.4798	0.1325
323.6906	0.1284
323.9014	0.132
324.1122	0.1222
324.3229	0.1373
324.5337	0.1361
324.7444	0.1346
324.9551	0.1369
325.1658	0.1354
325.3765	0.1405
325.5872	0.1321
325.7979	0.1385
326.0085	0.1332
326.2192	0.1311
326.4298	0.1366
326.6404	0.1355
326.851	0.1319
327.0616	0.1395
327.2722	0.1458
327.4828	0.1373
327.6933	0.145
327.9039	0.1351
328.1144	0.1394
328.3249	0.1438
328.5354	0.1387
328.7459	0.1403
328.9564	0.1466
329.1669	0.1533
329.3773	0.1454
329.5878	0.1404
329.7982	0.1451
330.0086	0.1449
330.219	0.1484
330.4294	0.1479
330.6398	0.1478
330.8502	0.147
331.0605	0.1464
331.2708	0.1446
331.4812	0.1486
331.6915	0.1483
331.9018	0.1393
332.1121	0.1509
332.3224	0.1431
332.5326	0.1445
332.7429	0.1496
332.9531	0.1462
333.1633	0.1462
333.3735	0.1438
333.5837	0.1452
333.7939	0.1536
334.0041	0.1516
334.2143	0.1428
334.4244	0.151
334.6346	0.1486
334.8447	0.1455
335.0548	0.1507
335.2649	0.1513
335.475	0.1469
335.685	0.1473
335.8951	0.1432
336.1051	0.1462
336.3152	0.1516
336.5252	0.1429
336.7352	0.1471
336.9452	0.1496
337.1552	0.145
337.3652	0.1449
337.5751	0.1427
337.7851	0.1465
337.995	0.1471
338.2049	0.1462
338.4148	0.1497
338.6247	0.1517
338.8346	0.1457
339.0445	0.1443
339.2543	0.1496
339.4642	0.1429
339.674	0.1417
339.8838	0.148
340.0936	0.1488
340.3034	0.1451
340.5132	0.1448
340.7229	0.1466
340.9327	0.1547
341.1424	0.1431
341.3522	0.1492
341.5619	0.1584
341.7716	0.1525
341.9813	0.1505
342.1909	0.1588
342.4006	0.154
342.6102	0.1583
342.8199	0.1587
343.0295	0.1492
343.2391	0.1641
343.4487	0.1518
343.6583	0.1672
343.8679	0.1607
344.0774	0.1529
344.287	0.1631
344.4965	0.1635
344.706	0.1661
344.9155	0.1701
345.125	0.1645
345.3345	0.1669
345.544	0.1655
345.7534	0.1671
345.9629	0.1719
346.1723	0.1718
346.3817	0.1642
346.5911	0.1735
346.8005	0.1748
347.0099	0.1689
347.2193	0.174
347.4286	0.1854
347.638	0.1745
347.8473	0.1756
348.0566	0.1749
348.2659	0.181
348.4752	0.1801
348.6845	0.1775
348.8937	0.171
349.103	0.1724
349.3122	0.1812
349.5214	0.1767
349.7306	0.1856
349.9398	0.1833
350.149	0.1816
350.3582	0.1783
350.5674	0.1857
350.7765	0.1885
350.9856	0.1763
351.1948	0.1814
351.4039	0.1894
351.613	0.1884
351.822	0.1836
352.0311	0.1778
352.2402	0.1864
352.4492	0.179
352.6582	0.193
352.8672	0.1845
353.0762	0.1829
353.2852	0.1848
353.4942	0.1841
353.7032	0.1862
353.9121	0.1857
354.1211	0.1881
354.33	0.1871
354.5389	0.1814
354.7478	0.1804
354.9567	0.1833
355.1655	0.1755
355.3744	0.1806
355.5833	0.189
355.7921	0.1898
356.0009	0.1881
356.2097	0.1782
356.4185	0.1863
356.6273	0.1826
356.8361	0.183
357.0448	0.1859
357.2536	0.1877
357.4623	0.1921
357.671	0.1914
357.8797	0.1965
358.0884	0.179
358.2971	0.1915
358.5057	0.1958
358.7144	0.1841
358.923	0.1916
359.1316	0.1983
359.3402	0.1971
359.5488	0.1892
359.7574	0.2014
359.966	0.1938
360.1746	0.1894
360.3831	0.1971
360.5916	0.1974
360.8002	0.2057
361.0087	0.1977
361.2172	0.1959
361.4256	0.1979
361.6341	0.2054
361.8426	0.2051
362.051	0.2009
362.2594	0.2008
362.4678	0.2043
362.6762	0.2089
362.8846	0.2107
363.093	0.2086
363.3014	0.2081
363.5097	0.1998
363.718	0.212
363.9264	0.2113
364.1347	0.2065
364.343	0.2192
364.5513	0.213
364.7595	0.2169
364.9678	0.2156
365.176	0.2157
365.3842	0.225
365.5925	0.2173
365.8007	0.2152
366.0089	0.2209
366.217	0.2149
366.4252	0.2239
366.6333	0.222
366.8415	0.2222
367.0496	0.2213
367.2577	0.2177
367.4658	0.2176
367.6739	0.2183
367.882	0.2246
368.09	0.2179
368.2981	0.2318
368.5061	0.2275
368.7141	0.2263
368.9221	0.235
369.1301	0.2287
369.3381	0.2398
369.5461	0.2275
369.754	0.2335
369.962	0.2292
370.1699	0.2399
370.3778	0.2334
370.5857	0.234
370.7936	0.2345
371.0015	0.2321
371.2093	0.23
371.4172	0.2307
371.625	0.2306
371.8328	0.2375
372.0406	0.2439
372.2484	0.2361
372.4562	0.2427
372.664	0.2404
372.8717	0.2494
373.0795	0.2481
373.2872	0.251
373.4949	0.2403
373.7026	0.2393
373.9103	0.2371
374.118	0.2457
374.3256	0.2569
374.5333	0.2464
374.7409	0.2386
374.9485	0.2488
375.1561	0.2532
375.3637	0.2411
375.5713	0.2505
375.7789	0.2502
375.9864	0.2421
376.194	0.2607
376.4015	0.2578
376.609	0.2589
376.8165	0.2618
377.024	0.2502
377.2315	0.2457
377.4389	0.2583
377.6464	0.2597
377.8538	0.2621
378.0612	0.2585
378.2686	0.2625
378.476	0.2642
378.6834	0.2585
378.8908	0.2651
379.0981	0.2664
379.3055	0.263
379.5128	0.2569
379.7201	0.2663
379.9274	0.2581
380.1347	0.262
380.342	0.2717
380.5492	0.2661
380.7565	0.2679
380.9637	0.2683
381.1709	0.2617
381.3781	0.2713
381.5853	0.2729
381.7925	0.2675
381.9997	0.2799
382.2068	0.2792
382.4139	0.2671
382.6211	0.2778
382.8282	0.2737
383.0353	0.278
383.2424	0.2705
383.4494	0.2716
383.6565	0.2769
383.8635	0.2732
384.0706	0.2897
384.2776	0.2685
384.4846	0.2733
384.6916	0.2715
384.8986	0.2709
385.1055	0.2858
385.3125	0.2741
385.5194	0.2761
385.7263	0.2726
385.9333	0.2855
386.1402	0.2807
386.347	0.2795
386.5539	0.2766
386.7608	0.2744
386.9676	0.2816
387.1744	0.2718
387.3813	0.282
387.5881	0.2671
387.7948	0.2729
388.0016	0.2916
388.2084	0.2699
388.4151	0.2819
388.6219	0.2564
388.8286	0.2736
389.0353	0.2815
389.242	0.27
389.4487	0.2693
389.6553	0.2555
389.862	0.264
390.0686	0.2685
390.2753	0.2744
390.4819	0.2703
390.6885	0.2685
390.8951	0.2678
391.1016	0.2654
391.3082	0.2711
391.5147	0.2701
391.7213	0.2589
391.9278	0.2599
392.1343	0.2675
392.3408	0.2579
392.5473	0.2549
392.7537	0.2628
392.9602	0.2578
393.1666	0.2504
393.373	0.2559
393.5794	0.2497
393.7858	0.2577
393.9922	0.2489
394.1986	0.2478
394.4049	0.2483
394.6113	0.2538
394.8176	0.2569
395.0239	0.2441
395.2302	0.248
395.4365	0.2464
395.6428	0.2389
395.8491	0.2442
396.0553	0.2402
396.2615	0.2436
396.4678	0.2481
396.674	0.2349
396.8802	0.237
397.0863	0.2397
397.2925	0.2454
397.4987	0.2331
397.7048	0.2424
397.9109	0.2304
398.117	0.2345
398.3231	0.2294
398.5292	0.2299
398.7353	0.2387
398.9413	0.238
399.1474	0.2335
399.3534	0.2344
399.5594	0.2404
399.7654	0.2247
399.9714	0.2312
400.1774	0.2318
400.3833	0.2354
400.5893	0.2364
400.7952	0.237
401.0011	0.2319
401.207	0.2367
401.4129	0.2388
401.6188	0.2343
401.8247	0.2392
402.0305	0.2291
402.2364	0.2276
402.4422	0.2354
402.648	0.2388
402.8538	0.2312
403.0596	0.2243
403.2654	0.2299
403.4711	0.2363
403.6768	0.223
403.8826	0.2303
404.0883	0.2387
404.294	0.2355
404.4997	0.2296
404.7054	0.2436
404.911	0.2234
405.1167	0.2336
405.3223	0.2348
405.5279	0.2273
405.7335	0.2325
405.9391	0.2318
406.1447	0.2342
406.3502	0.2302
406.5558	0.2286
406.7613	0.2345
406.9668	0.2225
407.1724	0.2352
407.3778	0.2353
407.5833	0.2227
407.7888	0.2354
407.9942	0.2324
408.1997	0.2431
408.4051	0.2356
408.6105	0.2332
408.8159	0.232
409.0213	0.2358
409.2267	0.2289
409.432	0.233
409.6374	0.2314
409.8427	0.2394
410.048	0.2394
410.2533	0.2374
410.4586	0.2206
410.6639	0.2237
410.8691	0.2238
411.0744	0.2227
411.2796	0.2326
411.4848	0.2388
411.69	0.2232
411.8952	0.2345
412.1004	0.2367
412.3056	0.2273
412.5107	0.22
412.7158	0.2471
412.921	0.2288
413.1261	0.2274
413.3312	0.237
413.5362	0.2398
413.7413	0.2341
413.9464	0.2241
414.1514	0.2237
414.3564	0.2297
414.5614	0.2215
414.7664	0.2272
414.9714	0.2209
415.1764	0.2334
415.3813	0.2284
415.5863	0.2339
415.7912	0.2225
415.9961	0.2179
416.201	0.2396
416.4059	0.2252
416.6108	0.2257
416.8156	0.2166
417.0205	0.2121
417.2253	0.2224
417.4301	0.2233
417.6349	0.2214
417.8397	0.223
418.0445	0.2153
418.2492	0.2301
418.454	0.23
418.6587	0.2239
418.8634	0.2259
419.0681	0.2149
419.2728	0.2233
419.4775	0.2272
419.6822	0.2097
419.8868	0.2123
420.0915	0.2127
420.2961	0.194
420.5007	0.2101
420.7053	0.2249
420.9099	0.2119
421.1144	0.2144
421.319	0.2118
421.5235	0.2038
421.728	0.2204
421.9325	0.2069
422.137	0.2085
422.3415	0.2057
422.546	0.2109
422.7504	0.2024
422.9549	0.2119
423.1593	0.215
423.3637	0.2053
423.5681	0.2063
423.7725	0.209
423.9769	0.2068
424.1812	0.2085
424.3856	0.1982
424.5899	0.1957
424.7942	0.1923
424.9985	0.1951
425.2028	0.2022
425.4071	0.2018
425.6113	0.2034
425.8156	0.1919
426.0198	0.1976
426.224	0.2045
426.4282	0.1849
426.6324	0.2054
426.8366	0.193
427.0407	0.1858
427.2449	0.1884
427.449	0.1899
427.6531	0.1969
427.8572	0.1924
428.0613	0.191
428.2654	0.1921
428.4694	0.1769
428.6735	0.1791
428.8775	0.1848
429.0815	0.1801
429.2855	0.1775
429.4895	0.1744
429.6935	0.1717
429.8975	0.1741
430.1014	0.1787
430.3053	0.1797
430.5093	0.1662
430.7132	0.1591
430.9171	0.1703
431.1209	0.1625
431.3248	0.1605
431.5286	0.1603
431.7325	0.1734
431.9363	0.1531
432.1401	0.1599
432.3439	0.1545
432.5477	0.1548
432.7514	0.1551
432.9552	0.1523
433.1589	0.1458
433.3627	0.1553
433.5664	0.1478
433.7701	0.1419
433.9737	0.1539
434.1774	0.1455
434.3811	0.1368
434.5847	0.1455
434.7883	0.1411
434.9919	0.131
435.1955	0.1366
435.3991	0.1366
435.6027	0.1294
435.8062	0.1453
436.0098	0.1342
436.2133	0.1276
436.4168	0.1306
436.6203	0.1166
436.8238	0.1257
437.0272	0.1155
437.2307	0.1136
437.4341	0.1212
437.6375	0.1201
437.841	0.1192
438.0443	0.1169
438.2477	0.1135
438.4511	0.1061
438.6545	0.1166
438.8578	0.1084
439.0611	0.1164
439.2644	0.1151
439.4677	0.1069
439.671	0.0986
439.8743	0.1018
440.0775	0.095
440.2808	0.1045
440.484	0.0937
440.6872	0.0996
440.8904	0.0861
441.0936	0.0962
441.2967	0.0837
441.4999	0.0882
441.703	0.0883
441.9062	0.0876
442.1093	0.0988
442.3124	0.0876
442.5155	0.0913
442.7185	0.079
442.9216	0.078
443.1246	0.0788
443.3276	0.086
443.5307	0.0723
443.7337	0.0796
443.9366	0.073
444.1396	0.071
444.3426	0.0717
444.5455	0.0745
444.7484	0.072
444.9513	0.0714
445.1542	0.0713
445.3571	0.0716
445.56	0.0551
445.7628	0.0614
445.9657	0.0702
446.1685	0.0657
446.3713	0.0706
446.5741	0.073
446.7769	0.0651
446.9797	0.0634
447.1824	0.0585
447.3852	0.0505
447.5879	0.062
447.7906	0.0496
447.9933	0.0482
448.196	0.0508
448.3986	0.0558
448.6013	0.0411
448.8039	0.0505
449.0066	0.0635
449.2092	0.0652
449.4118	0.0397
449.6143	0.0553
449.8169	0.0492
450.0195	0.0438
450.222	0.0464
450.4245	0.0394
450.627	0.0442
450.8295	0.0462
451.032	0.0406
451.2345	0.0381
451.4369	0.043
451.6394	0.0432
451.8418	0.04
452.0442	0.0419
452.2466	0.0314
452.449	0.0388
452.6513	0.038
452.8537	0.0283
453.056	0.0344
453.2583	0.0323
453.4607	0.0289
453.663	0.0371
453.8652	0.0261
454.0675	0.0392
454.2697	0.0316
454.472	0.0334
454.6742	0.0245
454.8764	0.0286
455.0786	0.0379
455.2808	0.02
455.4829	0.031
455.6851	0.0257
455.8872	0.0188
456.0893	0.025
456.2915	0.0179
456.4935	0.0307
456.6956	0.0303
456.8977	0.0205
457.0997	0.0321
457.3018	0.0166
457.5038	0.0245
457.7058	0.0255
457.9078	0.0211
458.1098	0.0277
458.3117	0.0234
458.5137	0.0085
458.7156	0.0152
458.9175	0.0294
459.1194	0.0167
459.3213	0.0202
459.5232	0.0237
459.725	0.0254
459.9269	0.0246
460.1287	0.0126
460.3305	0.0242
460.5323	0.0125
460.7341	0.02
460.9359	0.0148
461.1376	0.0172
461.3394	0.011
461.5411	0.0153
461.7428	0.0155
461.9445	0.0135
462.1462	0.0079
462.3479	0.0163
462.5495	0.0189
462.7512	0.021
462.9528	0.0154
463.1544	0.007
463.356	0.0127
463.5576	0.0235
463.7592	0.0146
463.9607	0.0115
464.1623	0.0145
464.3638	0.0081
464.5653	0.0133
464.7668	0.0133
464.9683	0.0099
465.1697	0.0159
465.3712	0.0076
465.5726	0.0054
465.7741	0.019
465.9755	0.0107
466.1769	0.0099
466.3782	0.007
466.5796	0.0088
466.7809	0.0111
466.9823	0.0099
467.1836	0.0094
467.3849	0.0109
467.5862	-0.0036
467.7875	0.0026
467.9887	0.0117
468.19	0.0088
468.3912	0.0128
468.5924	0.0094
468.7936	0.0049
468.9948	0.005
469.196	0.0108
469.3972	-0.0009
469.5983	0.0106
469.7994	0.0082
470.0006	0.0131
470.2017	0.0097
470.4027	0.0183
470.6038	0.007
470.8049	0.0088
471.0059	0.0177
471.2069	0.0133
471.408	0.0178
471.6089	0.0127
471.8099	0.0203
472.0109	0.006
472.2119	0.0148
472.4128	0.0064
472.6137	0.0028
472.8146	0.0065
473.0155	0.0133
473.2164	0.0146
473.4173	-0.0009
473.6181	-0.0048
473.819	-0.0012
474.0198	0.0024
474.2206	-0.0082
474.4214	0.0058
474.6222	0.0018
474.8229	0.0042
475.0237	0.0119
475.2244	0.0102
475.4251	0.0022
475.6258	0.0027
475.8265	0.0111
476.0272	0.0097
476.2278	0.0095
476.4285	0.0079
476.6291	0.0107
476.8297	0.0086
477.0303	-0.001
477.2309	0.0006
477.4315	0.009
477.632	0.008
477.8326	0.0032
478.0331	0.0034
478.2336	0.0013
478.4341	0.0037
478.6346	-0.01
478.8351	-0.0008
479.0355	0.0114
479.236	0.011
479.4364	0.0038
479.6368	0.0039
479.8372	0.0117
480.0376	0.0016
480.2379	0.0028
480.4383	0.0026
480.6386	-0.0067
480.8389	0.0015
481.0392	0.0041
481.2395	0.0067
481.4398	0.0059
481.6401	0.0072
481.8403	-0.0009
482.0405	0.0022
482.2408	0.0081
482.441	0.0072
482.6411	0.0056
482.8413	-0.0034
483.0415	0.0085
483.2416	0.0045
483.4417	0.0074
483.6419	0.0001
483.8419	0.0076
484.042	0.0038
484.2421	-0.0001
484.4422	0.0052
484.6422	0.0047
484.8422	0.0032
485.0422	0.0015
485.2422	0.0004
485.4422	0.0052
485.6422	0.0029
485.8421	0.0028
486.042	0.0108
486.242	0.0034
486.4419	0.0061
486.6417	0.0016
486.8416	-0.0003
487.0415	0.0022
487.2413	-0.0051
487.4411	0.002
487.641	0.0018
487.8408	0.0024
488.0405	0.0014
488.2403	0.0038
488.4401	0.0046
488.6398	0.0076
488.8395	0.0063
489.0392	0.0102
489.2389	0.006
489.4386	-0.0095
489.6383	0.0088
489.8379	0.0005
490.0376	-0.0038
490.2372	0.0002
490.4368	-0.0046
490.6364	-0.0048
490.836	-0.0024
491.0355	-0.005
491.2351	-0.0002
491.4346	0.0039
491.6341	-0.0024
491.8336	0.0034
492.0331	0.0036
492.2326	0.0034
492.432	0.0035
492.6315	0.0086
492.8309	0.0056
493.0303	0.0064
493.2297	0.0043
493.4291	0.0057
493.6284	0.0138
493.8278	-0.004
494.0271	-0.0014
494.2264	-0.0001
494.4257	0.0087
494.625	0.007
494.8243	-0.0069
495.0236	-0.0017
495.2228	0.002
495.422	0.0046
495.6213	0.0012
495.8205	0.0015
496.0196	0.0011
496.2188	0.0009
496.418	0.0026
496.6171	-0.001
496.8162	-0.0067
497.0153	0.0055
497.2144	-0.0002
497.4135	-0.0051
497.6126	-0.0049
497.8116	-0.0008
498.0107	-0.003
498.2097	0.0121
498.4087	0.0029
498.6077	-0.0012
498.8067	0.0013
499.0056	-0.0052
499.2046	0.0032
499.4035	0.0004
499.6024	-0.0088
499.8013	0.0074
500.0002	0.0005
500.199	0.0083
500.3979	-0.0057
500.5967	-0.0027
500.7956	0.0016
500.9944	-0.0005
501.1932	0.0119
501.3919	0.0065
501.5907	0.0012
501.7895	0.0004
501.9882	-0.0025
502.1869	0.0043
502.3856	-0.002
502.5843	-0.0026
502.783	-0.0067
502.9816	0.0093
503.1803	0.0017
503.3789	0.0078
503.5775	-0.0093
503.7761	0.0029
503.9747	-0.0026
504.1732	-0.0083
504.3718	0.0128
504.5703	0.0058
504.7689	-0.0072
504.9674	-0.0008
505.1658	-0.0092
505.3643	0.0083
505.5628	0.0054
505.7612	0.0046
505.9597	-0.0089
506.1581	-0.0042
506.3565	0.002
506.5549	-0.0024
506.7532	-0.002
506.9516	0.0099
507.1499	-0.0009
507.3482	0.0048
507.5465	0.0067
507.7448	0.0027
507.9431	0
508.1414	-0.0051
508.3396	-0.0052
508.5379	0.008
508.7361	0.0005
508.9343	0.0034
509.1325	0.0059
509.3306	-0.0038
509.5288	-0.0067
509.7269	0.0035
509.9251	0.014
510.1232	0.0045
510.3213	0.0034
510.5193	0.0021
510.7174	-0.0034
510.9154	0.0024
511.1135	-0.0057
511.3115	-0.0113
511.5095	-0.0054
511.7075	-0.0034
511.9055	-0.0026
512.1034	0.0013
512.3014	-0.0006
512.4993	0.0007
512.6972	-0.0003
512.8951	0.0032
513.093	-0.0037
513.2908	0.0022
513.4887	-0.0002
513.6865	0.0027
513.8844	0.0075
514.0822	0.0032
514.2799	-0.0022
514.4777	-0.0067
514.6755	-0.0054
514.8732	0.005
515.0709	-0.0014
515.2687	0.0003
515.4664	0.0057
515.664	0.0046
515.8617	0.0009
516.0594	0.0065
516.257	0.0062
516.4546	0.006
516.6522	0.0066
516.8498	-0.0015
517.0474	0.0132
517.2449	-0.0046
517.4425	-0.0014
517.64	0.0024
517.8375	0.0101
518.035	-0.0039
518.2325	-0.0015
518.43	-0.0047
518.6274	-0.0049
518.8249	0.0003
519.0223	0.0104
519.2197	-0.0035
519.4171	-0.0036
519.6145	0.0087
519.8118	-0.0182
520.0092	-0.006
520.2065	0.0105
520.4038	-0.0045
520.6011	0.0009
520.7984	0.002
520.9956	0.0004
521.1929	0.0073
521.3901	0.0016
521.5874	0.0043
521.7846	-0.0036
521.9818	-0.0041
522.1789	-0.0079
522.3761	0.019
522.5732	-0.0065
522.7704	-0.0027
522.9675	-0.0102
523.1646	-0.0134
523.3617	0.0123
523.5587	-0
523.7558	-0.0006
523.9528	0.0122
524.1498	-0.0141
524.3468	0.002
524.5438	-0.0011
524.7408	-0.0036
524.9378	0.0016
525.1347	0.0036
525.3316	-0.0031
525.5285	0.0016
525.7254	0.0113
525.9223	0.0107
526.1192	0.0013
526.316	-0.0028
526.5129	0.0071
526.7097	-0.0043
526.9065	0.004
527.1033	-0.0004
527.3	-0.0015
527.4968	-0.0066
527.6935	-0.006
527.8903	-0.0094
528.087	0.0083
528.2837	0.0093
528.4804	0.0045
528.677	0.0048
528.8737	0.0014
529.0703	-0.0078
529.2669	0.0075
529.4635	-0.0027
529.6601	-0.011
529.8567	-0.0053
530.0532	-0.0024
530.2498	0.0008
530.4463	-0.0065
530.6428	-0.0007
530.8393	-0.0021
531.0358	-0.0146
531.2322	0.0026
531.4287	0.0052
531.6251	-0.0138
531.8215	-0.0076
532.0179	0.0069
532.2143	0.0015
532.4107	0.0066
532.607	0.0053
532.8034	-0.0021
532.9997	-0.0022
533.196	0.0046
533.3923	0.0066
533.5886	0.0037
533.7848	-0.0021
533.9811	0.0089
534.1773	-0.0016
534.3735	-0.0037
534.5697	0.0003
534.7659	0.0089
534.9621	0.0057
535.1582	0.0136
535.3544	-0.0004
535.5505	0.0078
535.7466	0.0084
535.9427	-0.0029
536.1387	-0.0097
536.3348	0.0005
536.5308	0.0062
536.7269	-0.0005
536.9229	0.0059
537.1189	0.0041
537.3148	0.0047
537.5108	0.002
537.7068	0.006
537.9027	-0.004
538.0986	0.009
538.2945	-0.0012
538.4904	-0.0087
538.6863	0.0056
538.8821	0.0074
539.078	0.0036
539.2738	0.0059
539.4696	-0.0059
539.6654	-0.0015
539.8611	-0.0003
540.0569	0.002
540.2526	0.012
540.4484	-0.0108
540.6441	0.0008
540.8398	0.003
541.0355	-0.0027
541.2311	0.0008
541.4268	0.0069
541.6224	0.0091
541.818	0.0047
542.0136	0.0003
542.2092	0.0079
542.4048	0.0009
542.6003	0.0064
542.7959	0.0026
542.9914	-0.0021
543.1869	0.0025
543.3824	0.0043
543.5779	0.0077
543.7734	0.0135
543.9688	-0.0007
544.1642	0.0029
544.3596	0.0105
544.555	0.0018
544.7504	0.0115
544.9458	0.0032
545.1411	-0.0055
545.3365	0.0022
545.5318	0.0046
545.7271	0.0076
545.9224	0.0058
546.1177	0.0062
546.3129	0.0022
546.5081	-0.0043
546.7034	0.0076
546.8986	0.0032
547.0938	0.006
547.289	0.0021
547.4841	0.0067
547.6793	0.004
547.8744	0.0067
548.0695	0.007
548.2646	0.0046
548.4597	0.0007
548.6548	0.0085
548.8498	0.0126
549.0448	-0.0023
549.2399	0.0039
549.4349	-0.0003
549.6298	0.0091
549.8248	-0.0033
550.0198	0.0155
550.2147	0.0037
550.4096	-0.0058
550.6045	-0.0001
550.7994	0.006
550.9943	0.0022
551.1892	-0.0152
551.384	0.0037
551.5788	0.0128
551.7737	0.0057
551.9685	0.0063
552.1632	-0.0049
552.358	-0.0018
552.5528	0.0063
552.7475	0.0052
552.9422	0.0057
553.1369	0.0115
553.3316	0.0106
553.5263	0.0033
553.7209	0.0083
553.9156	-0.0115
554.1102	0.0076
554.3048	0.0027
554.4994	0.002
554.694	0.0079
554.8885	0.0074
555.0831	0.0037
555.2776	-0.0017
555.4721	-0.0024
555.6666	0.0002
555.8611	0.01
556.0555	-0.0026
556.25	0.0016
556.4444	-0.0032
556.6388	-0.0043
556.8332	0.0019
557.0276	0.0011
557.222	-0.0002
557.4163	0.0061
557.6107	-0.0015
557.805	-0.0103
557.9993	0.006
558.1936	-0.003
558.3879	0.0042
558.5821	-0.0072
558.7764	-0.0104
558.9706	-0.0049
559.1648	0.0003
559.359	-0.0037
559.5532	-0.0058
559.7473	-0.0032
559.9415	0.0006
560.1356	0.0104
560.3297	-0.0041
560.5238	0.001
560.7179	-0.0004
560.9119	0.0064
561.106	-0.0061
561.3	0.0067
561.494	-0.011
561.688	-0.0055
561.882	0.004
562.076	-0.0039
562.2699	0.0087
562.4639	0.0161
562.6578	0.0041
562.8517	0.0058
563.0456	0.0147
563.2395	0.0095
563.4333	0.0051
563.6272	-0.0011
563.821	0.002
564.0148	0.0039
564.2086	-0.0006
564.4024	0.008
564.5961	0.006
564.7899	0.0059
564.9836	0.0033
565.1773	0.0096
565.371	0.0032
565.5647	0.005
565.7584	0.0122
565.952	0.0009
566.1456	-0
566.3393	0.0001
566.5329	0.0095
566.7264	0.0022
566.92	0.0083
567.1136	0.002
567.3071	-0.0025
567.5006	0.0106
567.6941	0.0046
567.8876	0.0031
568.0811	0.0161
568.2745	-0.0018
568.468	0.0047
568.6614	0.0021
568.8548	0.0105
569.0482	0.0051
569.2416	0.0042
569.4349	0.0015
569.6283	0.0027
569.8216	0.0042
570.0149	0.0005
570.2082	0.0141
570.4015	0.0071
570.5947	0.0052
570.788	0.0079
570.9812	0.0062
571.1744	0.009
571.3676	0.0062
571.5608	0.0032
571.754	0.0088
571.9471	0.009
572.1402	0.0034
572.3333	0.006
572.5264	0.005
572.7195	0.0022
572.9126	0.0036
573.1057	0.0019
573.2987	0.0008
573.4917	0.0062
573.6847	0.0018
573.8777	0.0083
574.0707	0.0036
574.2636	0.0057
574.4566	0.0057
574.6495	0.0023
574.8424	0.0044
575.0353	0.0074
575.2281	0.0087
575.421	0.0017
575.6138	0.0038
575.8067	0.0096
575.9995	0.003
576.1923	0.0063
576.385	0.0067
576.5778	0.0112
576.7706	0.0062
576.9633	0.0079
577.156	-0.0025
577.3487	0.0081
577.5414	0.0011
577.734	0.0029
577.9267	0.0058
578.1193	0.0068
578.3119	0.0029
578.5045	0.0019
578.6971	0.0003
578.8897	0.0016
579.0822	0.0042
579.2747	0.0033
579.4673	0.0016
579.6598	0.0084
579.8522	0.0034
580.0447	0.0061
580.2372	0.0081
580.4296	0.0055
580.622	0.0031
580.8144	0.0044
581.0068	0.0043
581.1992	0.0055
581.3915	0.0002
581.5839	0.0046
581.7762	0.0012
581.9685	0.0023
582.1608	0.004
582.353	0.0029
582.5453	0.0049
582.7375	0.0058
582.9298	-0.0006
583.122	0.0009
583.3142	0.0089
583.5063	0.0058
583.6985	0.0064
583.8906	-0.002
584.0827	0.003
584.2749	-0.0041
584.4669	0.005
584.659	0.0068
584.8511	0.0097
585.0431	0.0078
585.2352	0.0054
585.4272	0.005
585.6192	0.0055
585.8111	0.0049
586.0031	0.0036
586.195	0.007
586.387	-0.0001
586.5789	0.0088
586.7708	0.0068
586.9627	0.0038
587.1545	0.0057
587.3464	0.0025
587.5382	0.0042
587.73	0.0061
587.9218	0.0019
588.1136	0.0012
588.3053	0.0023
588.4971	-0.0019
588.6888	0.0059
588.8805	0.0002
589.0722	0.0117
589.2639	0.0016
589.4556	0.0076
589.6472	0.0124
589.8389	0
590.0305	0.0095
590.2221	0.0088
590.4137	0.0043
590.6052	0.0045
590.7968	0.0001
590.9883	0.008
591.1798	0.003
591.3713	0.0015
591.5628	0.0062
591.7543	0.008
591.9458	0.0025
592.1372	0.0065
592.3286	-0.0021
592.52	0.0046
592.7114	0.0067
592.9028	0.009
593.0941	0.0097
593.2855	0.0034
593.4768	0.009
593.6681	0.0059
593.8594	0.0098
594.0506	0.0017
594.2419	0.0051
594.4331	0.004
594.6244	0.0018
594.8156	0.0056
595.0067	-0.0007
595.1979	-0.0042
595.3891	0.003
595.5802	0.0101
595.7713	0.0051
595.9624	0.0064
596.1535	0.0045
596.3446	0.0002
596.5357	0.0081
596.7267	0.0039
596.9177	0.003
597.1087	-0.002
597.2997	0.0045
597.4907	-0.0007
597.6817	0.0098
597.8726	0.0073
598.0635	0.0038
598.2544	0.0038
598.4453	0.0065
598.6362	0.0002
598.827	0.003
599.0179	0.0052
599.2087	0.0069
599.3995	0.0057
599.5903	0.0089
599.7811	0.0096
599.9718	0.005
600.1626	0.0008
600.3533	0.0084
600.544	0.0048
600.7347	0.0061
600.9254	0.0102
601.116	0.007
601.3067	0.0064
601.4973	0.0019
601.6879	-0.0031
601.8785	0.004
602.0691	-0.0001
602.2596	0.0054
602.4502	0.0035
602.6407	0.0054
602.8312	0.0024
603.0217	0.0042
603.2122	0.0016
603.4027	0.0076
603.5931	0.0054
603.7835	0.0025
603.9739	0.0044
604.1643	0.0118
604.3547	0.0085
604.5451	0.0054
604.7354	0.0004
604.9257	0.0011
605.116	0.0039
605.3063	0.0032
605.4966	0.004
605.6869	0.0065
605.8771	0.0059
606.0673	0.0031
606.2575	-0.0009
606.4477	0.0063
606.6379	-0.0008
606.8281	0.0059
607.0182	0.0067
607.2083	0.0042
607.3985	0.0058
607.5885	0.0059
607.7786	0.008
607.9687	0.002
608.1587	0.0075
608.3488	0.0087
608.5388	0.0048
608.7288	-0.0036
608.9187	-0.001
609.1087	0.0098
609.2986	0.0077
609.4886	0.0037
609.6785	0.0061
609.8684	0.0014
610.0582	0.0023
610.2481	-0.0004
610.4379	0.0011
610.6278	-0.0003
610.8176	0.0105
611.0074	0.0037
611.1971	0.0047
611.3869	0.0089
611.5766	0.0001
611.7664	0.012
611.9561	0.0039
612.1458	0.0061
612.3354	0.0044
612.5251	0.0039
612.7147	0.0088
612.9044	0.0044
613.094	0.0093
613.2836	0.0087
613.4731	0.0025
613.6627	0.0049
613.8522	0.0091
614.0417	0.0078
614.2313	0.0041
614.4207	0.0101
614.6102	0.0103
614.7997	0.0095
614.9891	0.0112
615.1785	-0.0014
615.3679	0.0045
615.5573	0.0098
615.7467	0.0049
615.9361	-0.0008
616.1254	0.0064
616.3147	0.0061
616.504	0.0102
616.6933	0.0061
616.8826	0.001
617.0718	0.0122
617.2611	0.0091
617.4503	0.0052
617.6395	0.0089
617.8287	0.004
618.0179	0.0028
618.207	0.0157
618.3961	-0.0006
618.5853	-0.0036
618.7744	0.0122
618.9634	0.0116
619.1525	0.0117
619.3416	0.0015
619.5306	0.0021
619.7196	0.0183
619.9086	-0.0003
620.0976	0.0006
620.2866	0.0034
620.4755	0.0055
620.6645	0.013
620.8534	0.0019
621.0423	-0.0052
621.2312	0.0023
621.42	0.0059
621.6089	-0.0029
621.7977	0.0054
621.9865	-0.0011
622.1753	-0.0046
622.3641	0.0003
622.5529	-0.0119
622.7416	0.0018
622.9303	0.0021
623.1191	0.0066
623.3078	0.0078
623.4964	0.0048
623.6851	0.0066
623.8737	-0.0036
624.0624	-0.0069
624.251	0.0051
624.4396	0.0014
624.6282	0.0097
624.8167	0.0097
625.0053	0.0073
625.1938	-0.0022
625.3823	0.0139
625.5708	0.0065
625.7593	0.0059
625.9477	0.0163
626.1362	0.006
626.3246	-0.0048
626.513	0.0055
626.7014	0.0145
626.8898	0.0086
627.0781	0.0038
627.2665	0.0012
627.4548	-0.0064
627.6431	0.0083
627.8314	0.0165
628.0197	0.002
628.2079	0.0047
628.3962	0.0009
628.5844	0.0133
628.7726	0.007
628.9608	0.0085
629.1489	0.0111
629.3371	-0.0032
629.5252	-0.0001
629.7134	-0.006
629.9015	0.0107
630.0895	-0.008
630.2776	0.0015
630.4657	0.019
630.6537	0.0177
630.8417	-0.0155
631.0297	0.0002
631.2177	0.0014
631.4057	-0.0024
631.5936	0.0053
631.7815	0.0106
631.9695	0.0218
632.1574	-0.0065
632.3452	0.0191
632.5331	0.0054
632.7209	0.0193
632.9088	-0.0051
633.0966	0.0292
633.2844	0.0033
633.4722	0.0039
633.6599	0.0101
633.8477	0.0007
634.0354	0.0097
634.2231	-0.001
634.4108	0.0081
634.5985	0.0064
634.7861	0.0039
634.9738	0.0038
635.1614	0.0032
635.349	0.0045
635.5366	0.0008
635.7242	0.0035
635.9117	0.0172
636.0993	0.014
636.2868	0.0022
636.4743	-0.0048
636.6618	-0.0093
636.8492	0.0097
637.0367	-0.0093
637.2241	0.0036
637.4115	0.0222
637.5989	0.0104
637.7863	0.0111
637.9737	0.0054
638.161	0.0182
638.3484	-0.009
638.5357	0.0077
638.723	0.0142
638.9103	-0.0332
639.0975	0.0013
639.2848	0.0122
639.472	0.0075
639.6592	-0.0117
639.8464	0.0005
640.0336	0.0177
640.2208	0.0118
640.4079	0.0092
640.595	-0.009
640.7821	0.0195
640.9692	0.0082
641.1563	0.0152
641.3434	0.0178
641.5304	0.0255
641.7174	0.0113
641.9044	0.004
642.0914	0.0167
642.2784	0.0104
642.4653	0.0105
642.6523	0.015
642.8392	0.003
643.0261	0.0237
643.213	0.0088
643.3999	0.0257
643.5867	0.0069
643.7735	-0.0078
643.9604	0.0261
644.1472	0.023
644.3339	0.0045
644.5207	-0.0036
644.7075	0.0073
644.8942	0.0058
645.0809	-0.0011
645.2676	-0.0145
645.4543	0.0163
645.6409	0.0135
645.8276	0.005
646.0142	-0.0034
646.2008	0.0087
646.3874	-0.0084
646.574	-0.007
646.7605	0.028
646.9471	0.0182
647.1336	-0.0226
647.3201	0.0135
647.5066	-0.0067
647.6931	0.0029
647.8795	0.0068
648.0659	-0.0037
648.2524	0.0182
648.4388	0.0122
648.6252	0.0052
648.8115	0.0034
648.9979	0.0029
649.1842	0.0147
649.3705	0.0133
649.5568	0.0037
649.7431	0.0053
649.9294	0.0058
650.1156	-0.0126
650.3018	0.0307
650.488	0.015
650.6742	0.0258
650.8604	-0.0001
651.0466	-0.0011
651.2327	0.0103
651.4188	-0.0022
651.6049	0.0216
651.791	0.01
651.9771	0.0156
652.1632	0.0101
652.3492	0.0007
652.5352	0.0105
652.7212	0.0036
652.9072	0.0127
653.0932	0.017
653.2791	0.0246
653.465	0.0045
653.651	0.0049
653.8369	0.0049
654.0227	-0.0029
654.2086	0.0068
654.3944	0.0162
654.5803	0.0191
654.7661	0.0066
654.9519	0.0008
655.1377	0.0002
655.3234	0.0002
655.5092	0.0002
655.6949	0.0002
655.8806	0.0002
656.0663	0.0002
656.2519	0.0002
656.4376	0.0002
656.6232	0.0002
656.8088	0.0002
656.9945	0.0002
657.18	0.0002
657.3656	0.0002
657.5511	0.0002
657.7367	0.0002
657.9222	0.0002
658.1077	0.0002
658.2932	0.0002
658.4786	0.0002
658.6641	0.0002
658.8495	0.0002
659.0349	0.0002
659.2203	0.0002
659.4057	0.0002
659.591	0.1324
659.7764	0.0305
659.9617	0.0023
660.147	0.0102
660.3323	0.0082
660.5176	0.0062
660.7028	-0.0017
660.888	0.0017
661.0733	0.0296
661.2585	-0.0055
661.4436	0.005
661.6288	0.0167
661.8139	0.0019
661.9991	0.0113
662.1842	0.0127
662.3693	0.0113
662.5544	0.0214
662.7394	0.0041
662.9245	0.0034
663.1095	-0.0177
663.2945	-0.0245
663.4795	-0.008
663.6644	-0.0023
663.8494	0.0154
664.0343	0.0157
664.2193	0.0009
664.4042	0.0087
664.589	0.0156
664.7739	0.0158
664.9587	-0.0155
665.1436	0.0053
665.3284	-0.0006
665.5132	0.0004
665.698	0.0109
665.8827	0.0303
666.0675	-0.0169
666.2522	0.0067
666.4369	-0.0155
666.6216	0.008
666.8063	0.0361
666.9909	0.018
667.1756	-0.0077
667.3602	-0.0008
667.5448	0.0167
667.7294	0.0037
667.9139	0.0043
668.0985	0.0063
668.283	0.0105
668.4675	0.0214
668.652	0.0152
668.8365	0.0122
669.0209	0.0024
669.2054	0.0134
669.3898	0.0001
669.5742	0.046
669.7586	0.0062
669.943	0.0059
670.1273	-0.0068
670.3117	0.0337
670.496	0.0122
670.6803	-0.0011
670.8646	-0.004
671.0488	0.0189
671.2331	-0.0087
671.4173	0.0063
671.6015	0.0151
671.7857	0.0066
671.9699	0.0068
672.1541	-0.0033
672.3382	0.0119
672.5223	0.029
672.7064	-0.0017
672.8905	0.0057
673.0746	0.0213
673.2587	0.0414
673.4427	0.0044
673.6267	0.0077
673.8107	0.0214
673.9947	0.0073
674.1787	0.0121
674.3626	-0.0005
674.5465	0.0065
674.7304	0.0073
674.9143	-0.0078
675.0982	0.0126
675.2821	-0.0177
675.4659	-0.0048
675.6497	-0.01
675.8335	0.0098
676.0173	0.0082
676.2011	0.0291
676.3849	0.0046
676.5686	0.0106
676.7523	0.0122
676.936	-0.0084
677.1197	-0.0131
677.3034	0.0429
677.487	-0.0004
677.6706	0.0233
677.8542	0.0124
678.0378	0.0065
678.2214	0.0036
678.405	0.0082
678.5885	0.0218
678.772	0.0055
678.9555	0.0058
679.139	0.0087
679.3225	0.0145
679.5059	0.0123
679.6894	-0.0054
679.8728	0.0085
680.0562	-0.0037
680.2395	-0.0001
680.4229	0.0006
680.6062	-0.0132
680.7896	-0.0138
680.9729	0.0183
681.1562	-0.0006
681.3394	0.0113
681.5227	0.0195
681.7059	0.0018
681.8891	0.0134
682.0723	-0.0008
682.2555	0.0112
682.4387	0.0189
682.6218	0.0316
682.805	-0.005
682.9881	0.0221
683.1712	0.0102
683.3542	0.0271
683.5373	0.0034
683.7203	0.0124
683.9034	0.0077
684.0864	0.004
684.2694	0.0053
684.4523	0.0103
684.6353	0.0008
684.8182	-0.0115
685.0011	0.0227
685.184	-0.0041
685.3669	0.018
685.5498	0.0081
685.7326	-0.0025
685.9154	0.0045
686.0982	0.0085
686.281	0.0156
686.4638	0.0146
686.6465	-0.0014
686.8293	0.0062
687.012	0.016
687.1947	0.0136
687.3774	0.0226
687.56	0.0025
687.7427	-0.0025
687.9253	-0.0051
688.1079	0.0034
688.2905	0.0096
688.4731	0.0044
688.6556	0.0129
688.8382	-0.0236
689.0207	0.0006
689.2032	0.0113
689.3857	0.0012
689.5681	-0.0029
689.7506	0.0183
689.933	-0.0069
690.1154	-0.0004
690.2978	0.0218
690.4802	0.0231
690.6626	0.0085
690.8449	0.007
691.0272	-0.0136
691.2095	-0.0166
691.3918	0.0065
691.5741	0.0177
691.7563	0.0035
691.9386	0.0148
692.1208	0.0048
692.303	-0.0081
692.4852	0.0104
692.6673	0.011
692.8495	-0.0086
693.0316	0.014
693.2137	0.0182
693.3958	0.028
693.5778	0.0034
693.7599	-0.0005
693.9419	-0.0071
694.1239	-0.0043
694.3059	0.0128
694.4879	0.021
694.6699	0.0101
694.8518	0.0286
695.0337	0.0249
695.2157	0.0353
695.3975	0.0027
695.5794	-0.0006
695.7613	-0.0104
695.9431	-0.0041
696.1249	0.0115
696.3067	0.0128
696.4885	0.0215
696.6703	0.0242
696.852	0.0045
697.0337	0.0142
697.2154	0.0092
697.3971	0.0135
697.5788	0.0073
697.7605	-0.0094
697.9421	0.0192
698.1237	0.0111
698.3053	-0.0065
698.4869	0.0147
698.6685	-0.0203
698.85	0.0251
699.0315	0.0225
699.213	0.0201
699.3945	-0.0161
699.576	0.0115
699.7575	0.0264
699.9389	0.0116
700.1203	0.009
700.3017	0.0198
700.4831	0.0062
700.6645	0.0357
700.8458	0.0159
701.0271	0.044
701.2084	0.0255
701.3897	0.0084
701.571	0.0017
701.7523	-0.0012
701.9335	0.0149
702.1147	0.0356
702.2959	-0.0111
702.4771	0.0091
702.6583	0.0136
702.8394	-0.0056
703.0205	0.0135
703.2016	0.0338
703.3827	0.0107
703.5638	-0.0025
703.7449	0.0148
703.9259	0.0134
704.1069	0.0233
704.2879	0.0272
704.4689	0.0122
704.6499	0.008
704.8308	0.0086
705.0117	0.0163
705.1927	0.0102
705.3735	0.0065
705.5544	0.0171
705.7353	-0.0239
705.9161	-0.0228
706.0969	0.0287
706.2777	0.0176
706.4585	-0.0077
706.6393	0.0005
706.82	0.0162
707.0007	0.004
707.1815	0.0063
707.3621	0.0312
707.5428	0.0081
707.7235	-0.0009
707.9041	0.0045
708.0847	0.0074
708.2653	0.0191
708.4459	0.0149
708.6265	-0.0052
708.807	0.0261
708.9875	0.012
709.168	0.0048
709.3485	0.0067
709.529	0.0386
709.7095	-0.0197
709.8899	-0.0031
710.0703	-0.0014
710.2507	-0.0048
710.4311	-0.0366
710.6115	0.0236
710.7918	0.0031
710.9721	0.0146
711.1524	0.0144
711.3327	0.0203
711.513	0.0252
711.6932	0.007
711.8735	0.0303
712.0537	-0.0059
712.2339	0.0095
712.4141	0.028
712.5942	0.0165
712.7744	0.0055
712.9545	0.0378
713.1346	0.0367
713.3147	0.0156
713.4947	-0.0118
713.6748	0.0135
713.8548	0.0249
714.0348	0.0167
714.2148	0.0304
714.3948	0.0377
714.5748	0.02
714.7547	0.0237
714.9346	0.0306
715.1145	0.0233
715.2944	-0.001
715.4743	0.0423
715.6541	-0.0092
715.834	0.0425
716.0138	0.0226
716.1936	-0.0035
716.3733	-0.0208
716.5531	0.0008
716.7328	0.0018
716.9126	0.0298
717.0923	0.015
717.2719	0.0312
717.4516	0.036
717.6312	-0.0002
717.8109	0.044
717.9905	0.0392
718.1701	0.0201
718.3496	0.0037
718.5292	-0.0197
718.7087	0.0279
718.8882	0.0073
719.0677	0.0215
719.2472	0.0067
719.4267	0.0013
719.6061	-0.0125
719.7856	0.0279
719.965	-0.0098
720.1443	0.0021
720.3237	-0.0069
720.5031	0.0051
720.6824	-0.0089
720.8617	0.0069
721.041	0.0188
721.2203	0.0221
721.3995	0.0079
721.5788	-0.0084
721.758	-0.0036
721.9372	0.0166
722.1164	-0.0092
722.2956	0.0127
722.4747	0.024
722.6538	0.0006
722.8329	0.0323
723.012	-0.0019
723.1911	-0.0007
723.3702	0.0131
723.5492	0.0102
723.7282	0.008
723.9072	0.0388
724.0862	0.0033
724.2652	0.008
724.4441	0.0122
724.623	0.0166
724.8019	-0.0013
724.9808	0.0207
725.1597	0.0012
725.3385	0.0022
725.5174	0.0245
725.6962	-0.0019
725.875	0.0001
726.0538	0.0029
726.2325	0.0146
726.4112	-0.0098
726.59	-0.0063
726.7687	-0.0015
726.9474	0.0226
727.126	0.0504
727.3047	-0.0061
727.4833	0.0281
727.6619	0.0045
727.8405	0.0102
728.0191	0.0142
728.1976	-0.0013
728.3762	-0.0013
728.5547	-0.0149
728.7332	0.0163
728.9116	0.0111
729.0901	0.0014
729.2686	0.002
729.447	0.003
729.6254	0.0224
729.8038	0.0122
729.9821	-0.0202
730.1605	0.0231
730.3388	-0.0054
730.5171	0.0226
730.6954	-0.0021
730.8737	-0.0039
731.0519	0.0021
731.2302	0.0064
731.4084	0.0062
731.5866	0.0122
731.7648	0.0219
731.9429	0.0119
732.1211	0.0049
732.2992	0.0103
732.4773	0.0018
732.6554	-0.0016
732.8335	0.0075
733.0115	0.0092
733.1896	-0.0136
733.3676	0.023
733.5456	-0.0042
733.7235	-0.0043
733.9015	0.002
734.0794	-0.0049
734.2574	-0.0158
734.4353	0.027
734.6131	0.026
734.791	0.0086
734.9689	-0.0103
735.1467	-0.0116
735.3245	0.0145
735.5023	0.0141
735.68	-0.0115
735.8578	0.0039
736.0355	0.0267
736.2132	0.0012
736.3909	0.0082
736.5686	0.0061
736.7463	-0.0241
736.9239	0.0148
737.1015	0.0275
737.2791	0.0219
737.4567	0.0058
737.6343	0.0103
737.8118	0.0009
737.9894	-0.0065
738.1669	0.014
738.3444	0.0391
738.5218	-0.0057
738.6993	0.0137
738.8767	-0.0073
739.0541	0.0059
739.2315	-0.0038
739.4089	0.0184
739.5863	0.0008
739.7636	0.021
739.9409	0.0045
740.1182	0.0259
740.2955	0.0258
740.4728	-0.0011
740.65	-0.0095
740.8272	0.0152
741.0044	0.0241
741.1816	0.0013
741.3588	-0.0224
741.5359	-0.0008
741.7131	0.0168
741.8902	0.0068
742.0673	-0.0172
742.2444	0.0215
742.4214	-0.0017
742.5985	0.0163
742.7755	0.0124
742.9525	-0.0163
743.1295	-0.0068
743.3064	0.0051
743.4834	0.0179
743.6603	0.0479
743.8372	-0.0395
744.0141	0.0285
744.191	0.0179
744.3678	-0.0413
744.5446	-0.0123
744.7215	0.0192
744.8982	0.0185
745.075	0.0614
745.2518	0.008
745.4285	0.0617
745.6052	0.0027
745.7819	0.0007
745.9586	0.02
746.1353	-0.0064
746.3119	0.0431
746.4885	0.0385
746.6651	0.0054
746.8417	0.0227
747.0183	0.0243
747.1948	0.008
747.3714	0.0223
747.5479	0.0393
747.7244	-0.0009
747.9008	-0.0172
748.0773	0.049
748.2537	0.0235
748.4301	0.0298
748.6065	0.0126
748.7829	-0.0065
748.9593	0.0051
749.1356	-0.0002
749.3119	0.0101
749.4882	0.0268
749.6645	0.0032
749.8408	0.0071
750.017	0.0081
750.1933	-0.0145
750.3695	0.0202
750.5457	0.0263
750.7218	0.0017
750.898	-0.0029
751.0741	0.0046
751.2502	0.0158
751.4263	-0.0129
751.6024	0.0001
751.7784	-0.0264
751.9545	0.0102
752.1305	0.0051
752.3065	0.0379
752.4825	-0.0022
752.6584	0.0053
752.8344	0.0016
753.0103	-0.0126
753.1862	0.0126
753.3621	0.0117
753.5379	-0.0249
753.7138	0.0049
753.8896	0.0166
754.0654	0.0083
754.2412	-0.0016
754.417	0.0239
754.5927	0.0039
754.7685	0.0286
754.9442	0.0235
755.1199	0.0255
755.2956	-0.0025
755.4712	0.0055
755.6469	0.0225
755.8225	0.0111
755.9981	0.0107
756.1736	-0.0055
756.3492	0.0067
756.5248	0.0079
756.7003	-0.0036
756.8758	0.0109
757.0513	0.0029
757.2267	0.0034
757.4022	-0.0048
757.5776	0.0055
757.753	0.0281
757.9284	0.0171
758.1038	0.0154
758.2791	0.0196
758.4545	-0.0099
758.6298	0.0017
758.8051	0.0051
758.9803	-0.006
759.1556	0.0107
759.3308	0.009
759.506	-0.011
759.6812	-0.0092
759.8564	-0.0138
760.0316	-0.0094
760.2067	0.0197
760.3819	0.0192
760.557	0.0212
760.732	0.0062
760.9071	0.0272
761.0821	-0.0041
761.2572	0.0054
761.4322	0.0161
761.6072	-0.0032
761.7821	-0.0162
761.9571	0.0214
762.132	0.0094
762.3069	0.0228
762.4818	0.0028
762.6567	0.0116
762.8316	0.0139
763.0064	0.0069
763.1812	-0.0051
763.356	-0.0099
763.5308	0.0281
763.7055	0.0058
763.8803	-0.0104
764.055	0.0114
764.2297	-0.0111
764.4044	0.0043
764.579	0.0054
764.7537	-0.0057
764.9283	0.0082
765.1029	0.0032
765.2775	0.004
765.4521	0.0098
765.6266	0.017
765.8011	-0.0009
765.9756	0.0009
766.1501	0.0002
766.3246	0.0239
766.4991	0.0104
766.6735	0.0558
766.8479	-0.0271
767.0223	0.0343
767.1967	0.0187
767.371	-0.009
767.5454	0.0054
767.7197	0.0582
767.894	-0.0022
768.0683	0.017
768.2425	0.0184
768.4168	-0.0015
768.591	0.0228
768.7652	0.0167
768.9394	0.0014
769.1135	-0.0076
769.2877	0.0172
769.4618	0.0397
769.6359	0.0129
769.81	0.0084
769.984	0.0245
770.1581	0.0131
770.3321	0.0438
770.5061	-0.008
770.6801	0.0171
770.8541	0.0081
771.028	0.0376
771.202	0.0318
771.3759	-0.0056
771.5498	0.031
771.7236	0.0092
771.8975	0.0212
772.0713	0.0414
772.2451	-0.0137
772.4189	0.0206
772.5927	-0.0334
772.7665	-0.0155
772.9402	0.0039
773.1139	0.0019
773.2876	-0.0031
773.4613	0.0002
773.635	0.0422
773.8086	0.0354
773.9822	0.0352
774.1558	0.0679
774.3294	0.0313
774.503	0.0059
774.6765	0.0071
774.8501	-0.0024
775.0236	0.0565
775.1971	-0.0042
775.3705	-0.0209
775.544	-0.0371
775.7174	0.0291
775.8908	-0.0108
776.0642	0.0028
776.2376	0.0279
776.4109	0.0343
776.5843	-0.004
776.7576	0.0072
776.9309	-0.0038
777.1041	-0.0119
777.2774	-0.0151
777.4506	0.0277
777.6238	-0.0117
777.797	0.0003
777.9702	0.0364
778.1434	-0.0215
778.3165	-0.0465
778.4896	-0.0239
778.6627	0.0044
778.8358	-0.0038
779.0089	-0.0093
779.1819	0.0067
779.3549	0.0084
779.5279	-0.0395
779.7009	0.0652
779.8739	0.056
780.0468	-0.0204
780.2197	0.0271
780.3926	-0.0075
780.5655	0.0361
780.7384	0.0251
780.9112	0.0399
781.0841	0.011
781.2569	0.0224
781.4297	-0.0034
781.6024	0.0377
781.7752	0.0244
781.9479	0.0572
782.1206	0.0286
782.2933	0.0082
782.466	0.045
782.6386	-0.0049
782.8113	-0.005
782.9839	0.0294
783.1565	0.0328
783.329	-0.0067
783.5016	0.0218
783.6741	-0.0349
783.8466	0.0255
784.0191	-0.0065
784.1916	-0.0287
784.3641	-0.0393
784.5365	-0.032
784.7089	-0.0184
784.8813	0.0311
785.0537	0.0023
785.2261	0.053
785.3984	0.0115
785.5707	-0.007
785.743	0.0179
785.9153	-0.0121
786.0876	0.0034
786.2598	0.0018
786.432	0.0335
786.6042	0.0087
786.7764	-0.0153
786.9486	0.0394
787.1207	0.0263
787.2928	0.0435
787.4649	0.0088
787.637	-0.0056
787.8091	-0.022
787.9811	0.0171
788.1532	0.067
788.3252	0.0229
788.4972	0.0165
788.6691	0.0163
788.8411	0.0143
789.013	-0.0145
789.1849	0.0096
789.3568	-0.002
789.5287	0.0648
789.7005	-0.0262
789.8723	-0.0015
790.0442	0.025
790.2159	-0.0057
790.3877	0.0463
790.5595	0.0373
790.7312	-0.0065
790.9029	0.0108
791.0746	0.0446
791.2463	-0.0144
791.4179	0.0058
791.5896	-0.0055
791.7612	0.0054
791.9328	0.0081
792.1044	0.0448
792.2759	-0.0129
792.4474	-0.0406
792.619	-0.0355
792.7905	0.0132
792.9619	0.0025
793.1334	0.0485
793.3048	0.084
793.4762	0.0071
793.6476	-0.0426
793.819	0.0104
793.9904	0.0376
794.1617	-0.0245
794.333	0.0156
794.5043	0.0624
794.6756	0.0246
794.8469	0.0021
795.0181	0.0143
795.1893	0.0741
795.3605	0.0514
795.5317	0.0132
795.7029	0.0149
795.874	0.0032
796.0452	0.032
796.2163	0.0597
796.3873	0.0332
796.5584	0.0446
796.7294	0.0879
796.9005	0.0519
797.0715	-0.0357
797.2425	0.0409
797.4134	0.0687
797.5844	0.0208
797.7553	-0.0324
797.9262	0.0693
798.0971	0.0339
798.2679	0.0204
798.4388	0.0189
798.6096	0.0574
798.7804	0.0509
798.9512	0.0147
799.122	-0.0096
799.2927	0.0672
799.4635	-0.0445
799.6342	-0.0403
799.8049	0.0912
799.9755	-0.0485
800.1462	-0.0142
800.3168	0.0566
800.4874	-0.0647
800.658	0.0781
800.8286	0.0785
800.9991	0.035
801.1696	-0.0303
801.3402	-0.0071
801.5106	0.0868
801.6811	0.0245
801.8516	-0.0197
802.022	-0.0302
802.1924	-0.0502
802.3628	0.0596
802.5332	0.1131
802.7035	0.133
802.8739	-0.079
803.0442	0.0064
803.2145	0.0347
803.3847	0.0262
803.555	0.0385
803.7252	0.0379
803.8954	0.0157
804.0656	0.0223
804.2358	0.0081
804.4059	-0.0055
804.5761	0.0795
804.7462	0.0823
804.9163	0.0054
805.0864	0.0894
805.2564	0.0531
805.4264	-0.0417
805.5965	0.0725
805.7665	0.0099
805.9364	0.0053
806.1064	0.0136
806.2763	0.0257
806.4462	0.0577
806.6161	0.0676
806.786	0.0105
806.9559	0.0163
807.1257	0.0509
807.2955	0.0345
807.4653	0.0053
807.6351	0.027
807.8048	0.0144
807.9746	0.0368
808.1443	0.0046
808.314	0.0448
808.4837	0.041
808.6533	-0.004
808.8229	0.0474
808.9926	0.0827
809.1622	0.0197
809.3317	0.0237
809.5013	0.0157
809.6708	0.0499
809.8403	0.1545
810.0098	0.0379
810.1793	0.052
810.3488	-0.0432
810.5182	0.0853
810.6876	0.0815
810.857	0.0678
811.0264	-0.0306
811.1958	0.1893
811.3651	0.0252
811.5344	0.0416
811.7037	0.0104
811.873	0.098
812.0422	-0.016
812.2115	0.0426
812.3807	-0.065
812.5499	0.0334
812.7191	-0.095
812.8882	0.1282
813.0574	0.0658
813.2265	-0.0176
813.3956	0.0541
813.5646	0.142
813.7337	0.0382
813.9027	0.0285
814.0718	0.0297
814.2407	0.0856
814.4097	0.0426
814.5787	0.0949
814.7476	0.0292
814.9165	0.0161
815.0854	-0.0178
815.2543	0.0402
815.4232	0.1917
815.592	0.027
815.7608	0.0058
815.9296	0.0392
816.0984	0.2045
816.2671	-0.1557
816.4359	0.1335
816.6046	0.1004
816.7733	0.0336
816.942	-0.0838
817.1106	0.1769
817.2793	-0.0428
817.4479	0.0379
817.6165	0.1133
817.785	0.0124
817.9536	0.0437
818.1221	0.0489
818.2906	-0.0493
818.4591	-0.0271
818.6276	0.1218
818.7961	-0.0526
818.9645	0.0525
819.1329	0.151
819.3013	0.0143
819.4697	0.0802
819.638	-0.0115
819.8064	-0.0483
819.9747	0.0181
820.143	-0.0364
820.3113	0.1036
820.4795	0.0264
820.6477	0.1227
820.816	0.0537
820.9842	0.0077
821.1523	0.1235
821.3205	0.138
821.4886	-0.0898
821.6567	-0.1147
821.8248	0.1376
821.9929	-0.0733
822.1609	-0.0463
822.329	0.0617
822.497	0.059
822.665	-0.0359
822.833	-0.1137
823.0009	0.1044
823.1688	0.0281
823.3367	-0.1182
823.5046	0.0852
823.6725	-0.0424
823.8404	-0.0305
824.0082	0.0344
824.176	0.1168
824.3438	0.4516
824.5116	-0.0724
824.6793	0.0293
824.847	0.0791
825.0147	0.1591
825.1824	0.2073
825.3501	-0.0224
825.5177	0.0574
825.6854	-0.0886
825.853	0.0015
826.0206	-0.0528
826.1881	-0.0021
826.3557	-0.0091
826.5232	0.1057
826.6907	0.1073
826.8582	0.1083
827.0257	0.1772
827.1931	0.1515
827.3605	0.0172
827.528	-0.1392
827.6953	-0.1097
827.8627	-0.0882
828.03	0.1455
828.1974	0.0364
828.3647	0.0291
828.532	0.1358
828.6992	0.2124
828.8665	-0.2719
829.0337	0.0369
829.2009	0.0136
829.3681	-0.0469
829.5352	-0.0668
829.7024	-0.0594
829.8695	-0.0243
830.0366	0.0965
830.2037	0.2391
830.3707	0.2494
830.5378	-0.0645
830.7048	-0.0669
830.8718	0.0878
831.0388	-0.1344
831.2057	0.3445
831.3727	0.1664
831.5396	0.1802
831.7065	-0.8029
831.8734	0.0631
832.0402	0.3211
832.2071	-0
832.3739	-0.2586
832.5407	-1.4427
832.7075	-0.3225
832.8742	0.0366
833.041	-0.062
833.2077	0.6321
833.3744	0.0924
833.541	-0.1158
833.7077	0.1335
833.8743	-0.0422
834.0409	-0.05
834.2075	0.1848
834.3741	-0.308
834.5407	0.5706
834.7072	-0.033
834.8737	0.1849
835.0402	1.1594
835.2067	0.0028
835.3731	0.0188
835.5395	0.0166
835.706	0.1218
835.8723	0.0269
836.0387	0.2496
836.2051	0.0034
836.3714	0.0168
836.5377	0.2164
836.704	0.1664
836.8703	0.0108
837.0365	-0.6138
837.2027	0.0634
837.3689	-0
837.5351	0.9411
837.7013	0.4307
837.8674	-0
838.0335	0.2578
838.1997	-0
838.3657	-0
838.5318	-0.3499
838.6978	0.1023
838.8639	-0.5174
839.0299	0.245
839.1958	0.2502
839.3618	1.1772
839.5277	0.6015
839.6937	0.2541
839.8596	0.3491
840.0254	0.1918
840.1913	-0.0434
840.3571	-0.1472
840.523	-0
840.6888	0.1397
840.8545	-0.201
841.0203	0.1043
841.186	0.2471
841.3517	0.0231
841.5174	0.5337
841.6831	-0.0913
841.8488	0.593
842.0144	0.1555
842.18	0.4204
842.3456	-0.6092
842.5112	-1.0483
842.6767	0.1678
842.8422	-0
843.0077	0.3536
843.1732	-0.2448
843.3387	-0
843.5042	-0
843.6696	-0
843.835	0.0182
844.0004	0.0043
844.1657	-0
844.3311	0.2304
844.4964	-0
844.6617	0.5942
844.827	1.616
844.9923	0.1316
845.1575	-0.301
845.3227	0.0748
845.4879	-0.0591
845.6531	0.6703
845.8183	0.2277
845.9834	1.4099
846.1485	0.9149
846.3136	-0.0602
846.4787	-0
846.6438	0.3935
846.8088	2.4175
846.9738	-0
847.1388	0.161
847.3038	0.2559
847.4687	-0
847.6337	0.6888
847.7986	-0.0481
847.9635	0.6461
848.1284	0.7043
848.2932	0.2654
848.458	-0
848.6228	0.4781
848.7876	-0.0382
848.9524	-0
849.1172	-1.7802
849.2819	-0
849.4466	0.5723
849.6113	0.0839
849.7759	-0.4193
849.9406	0.2216
850.1052	-0
850.2698	0.475
850.4344	-0.2714
850.599	-0.1922
850.7635	-0
850.928	0.098
851.0925	0.5738
851.257	-0
851.4215	-0
851.5859	0.2035
851.7503	-0.2381
851.9147	-0.2702
852.0791	-0.1945
852.2434	1.3228
852.4078	-0
852.5721	-0
852.7364	1.2831
852.9007	-0.0541
853.0649	0.1592
853.2291	-0
853.3934	-0
853.5575	-0.0289
853.7217	0.0375
853.8859	0.6888
854.05	-0.5821
854.2141	1.1553
854.3782	0.5526
854.5423	-0
854.7063	0.8782
854.8703	-0.0044
855.0343	-0.0216
855.1983	-0.0044
855.3623	1.2119
855.5262	-0
855.6901	0.6201
855.854	0.0025
856.0179	0.8209
856.1818	0.642
856.3456	0.4508
856.5094	-0
856.6732	-0
856.837	-0.7687
857.0008	-0.74
857.1645	0.7913
857.3282	-0.44
857.4919	0.2242
857.6556	-0
857.8192	0.4462
857.9828	0.0281
858.1465	0.0764
858.31	-0
858.4736	-0
858.6372	0.2619
858.8007	0.174
858.9642	0.2967
859.1277	-0
859.2911	0.1075
859.4546	-0
859.618	0.2793
859.7814	-0.1564
859.9448	-0
860.1081	-0
860.2715	-0
860.4348	-0
860.5981	0.6556
860.7614	-0
860.9246	0.3175
861.0879	-0.0872
861.2511	0.3819
861.4143	-0
861.5774	-0
861.7406	0.6209
861.9037	-0.6435
862.0668	-0.1941
862.2299	0.6008
862.393	-0.301
862.556	-0
862.7191	1.9708
862.8821	0.6712
863.0451	0.0167
863.208	-0
863.371	-0.5004
863.5339	0.4491
863.6968	0.6461
863.8597	0.0732
864.0225	-0
864.1854	-0
864.3482	-0.4999
864.511	0.0289
864.6737	0.1815
864.8365	0.137
864.9992	-0
865.1619	-0.4717
865.3246	-0.6435
865.4873	-0.5379
865.65	0.6855
865.8126	-0
865.9752	0.2394
866.1378	-0.1063
866.3004	-0.0234
866.4629	-1.0241
866.6254	-0
866.7879	-0.4282
866.9504	-0.0554
867.1129	-0.201
867.2753	0.118
867.4377	0.6008
867.6001	-0.5777
867.7625	0.2518
867.9249	0.3466
868.0872	0.1305
868.2495	0.5903
868.4118	-0
868.5741	-0.1515
868.7363	-0
868.8986	-0
869.0608	-0
869.223	-0.1017
869.3851	-0
869.5473	0.27
869.7094	0.1868
869.8715	-0.0655
870.0336	-0.1292
870.1957	-0.3603
870.3577	0.3617
870.5197	-0.1053
870.6817	-0.689
870.8437	0.3055
871.0057	-0
871.1676	0.1267
871.3295	-0
871.4914	-0
871.6533	-0.5142
871.8151	-0
871.977	0.8569
872.1388	0.3798
872.3006	-0.4704
872.4623	-0
872.6241	-0
872.7858	-0
872.9475	-0
873.1092	0.2933
873.2709	-0
873.4325	-1.8486
873.5941	-0
873.7557	-0
873.9173	0.0702
874.0789	0.4029
874.2404	-0
874.4019	0.1825
874.5634	-0
874.7249	-0
874.8863	-0
875.0478	-0.2441
875.2092	-0
875.3706	0.1134
875.5319	-0
875.6933	0.3046
875.8546	-0
876.0159	0.5441
876.1772	-0
876.3385	-0
876.4997	0.4143
876.6609	-0
876.8221	-0
876.9833	0.3579
877.1445	0.718
877.3056	-1.1214
877.4667	-0
877.6278	-0
877.7889	-0.3965
877.9499	-0
878.111	-0.6008
878.272	0.4794
878.433	2.1508
878.5939	0.3835
878.7549	-0
878.9158	0.7472
879.0767	-0
879.2376	-0
879.3984	0.5869
879.5593	0.3567
879.7201	-1.7548
879.8809	-0
880.0417	-0.2439
880.2024	1.0577
880.3632	-0
880.5239	0.3186
880.6846	-0
880.8452	-0.1736
881.0059	-0
881.1665	0.2563
881.3271	-0
881.4877	0.0808
881.6483	-0.9218
881.8088	-0
881.9693	-1.403
882.1298	-1.403
882.2903	-1.403
