Data from D4ACN5uM440nmA_Absorbance_13-50-25-693.txt Node
Date: Fri Feb 21 13:50:25 GMT 2025
User: LASERRRRR
Spectrometer: FLMT03099
Trigger mode: 0
Integration Time (sec): 1.500000E-2
Scans to average: 1
Electric dark correction enabled: true
Nonlinearity correction enabled: false
Boxcar width: 0
XAxis mode: Wavelengths
Number of Pixels in Spectrum: 3648
>>>>>Begin Spectral Data<<<<<
179.3399	0.1395
179.5586	0.1395
179.7771	0.1395
179.9957	0.2183
180.2143	-0
180.4329	-0
180.6514	-0
180.8699	-0.5782
181.0885	0.6486
181.307	0.1174
181.5255	0.6828
181.744	0.2774
181.9625	0.5262
182.181	-0.0616
182.3994	-0
182.6179	-0.3972
182.8363	-0
183.0547	-0.1995
183.2732	0.2548
183.4916	0.399
183.71	0.18
183.9284	-0.0037
184.1467	0.25
184.3651	0.0648
184.5835	0.1757
184.8018	0.0784
185.0201	0.1379
185.2385	0.1186
185.4568	0.2776
185.6751	0.1621
185.8934	0.1544
186.1117	0.0556
186.3299	0.2682
186.5482	0.2571
186.7664	-0.0359
186.9847	0.1169
187.2029	0.6786
187.4211	0.1022
187.6393	0.2575
187.8575	0.2247
188.0757	0.2055
188.2939	0.1195
188.512	0.3624
188.7302	0.075
188.9483	0.5873
189.1665	1.1942
189.3846	0.1708
189.6027	0.1238
189.8208	0.2777
190.0389	0.1322
190.257	0.0067
190.475	0.2419
190.6931	0.221
190.9111	0.2408
191.1292	0.1854
191.3472	0.1154
191.5652	0.3842
191.7832	0.3329
192.0012	0.1233
192.2192	0.3652
192.4371	0.1261
192.6551	0.1999
192.873	0.0903
193.091	0.1659
193.3089	0.23
193.5268	0.2877
193.7447	0.3272
193.9626	0.3647
194.1805	0.2611
194.3984	0.1865
194.6162	0.26
194.8341	0.2012
195.0519	0.171
195.2697	0.2739
195.4875	0.3483
195.7054	0.3284
195.9231	0.233
196.1409	0.3519
196.3587	0.2589
196.5765	0.3799
196.7942	0.3634
197.012	0.3931
197.2297	0.2929
197.4474	0.391
197.6651	0.3728
197.8828	0.4062
198.1005	0.4333
198.3182	0.4127
198.5358	0.3625
198.7535	0.4028
198.9711	0.3623
199.1888	0.3548
199.4064	0.4364
199.624	0.3787
199.8416	0.3676
200.0592	0.3827
200.2767	0.4045
200.4943	0.4485
200.7119	0.3998
200.9294	0.399
201.1469	0.4128
201.3645	0.4636
201.582	0.3994
201.7995	0.4395
202.017	0.4166
202.2344	0.4105
202.4519	0.3839
202.6694	0.4134
202.8868	0.3925
203.1042	0.4198
203.3217	0.4106
203.5391	0.4268
203.7565	0.3691
203.9739	0.3851
204.1913	0.3423
204.4086	0.3689
204.626	0.4
204.8433	0.393
205.0607	0.3462
205.278	0.3807
205.4953	0.3595
205.7126	0.3661
205.9299	0.3212
206.1472	0.3347
206.3644	0.3422
206.5817	0.3382
206.7989	0.3043
207.0162	0.346
207.2334	0.3332
207.4506	0.3319
207.6678	0.3304
207.885	0.2919
208.1022	0.3013
208.3194	0.2978
208.5365	0.2888
208.7537	0.2974
208.9708	0.308
209.1879	0.2968
209.405	0.2976
209.6222	0.2836
209.8392	0.2922
210.0563	0.2962
210.2734	0.2761
210.4905	0.268
210.7075	0.2798
210.9245	0.2659
211.1416	0.2665
211.3586	0.2687
211.5756	0.259
211.7926	0.2558
212.0096	0.2662
212.2265	0.2657
212.4435	0.2592
212.6604	0.2603
212.8774	0.2432
213.0943	0.2619
213.3112	0.2522
213.5281	0.2519
213.745	0.2317
213.9619	0.2383
214.1788	0.2496
214.3956	0.2525
214.6125	0.2653
214.8293	0.2243
215.0461	0.2522
215.2629	0.2639
215.4798	0.2435
215.6965	0.2471
215.9133	0.2479
216.1301	0.2334
216.3469	0.2434
216.5636	0.2499
216.7803	0.2334
216.9971	0.2648
217.2138	0.2564
217.4305	0.2532
217.6472	0.2445
217.8639	0.2392
218.0805	0.2557
218.2972	0.2403
218.5138	0.2533
218.7305	0.2619
218.9471	0.2406
219.1637	0.2599
219.3803	0.2487
219.5969	0.2446
219.8135	0.2586
220.0301	0.2586
220.2466	0.2502
220.4632	0.2457
220.6797	0.2578
220.8962	0.2561
221.1127	0.2648
221.3292	0.2677
221.5457	0.271
221.7622	0.2653
221.9787	0.2853
222.1951	0.2785
222.4116	0.2749
222.628	0.2823
222.8444	0.2762
223.0608	0.2787
223.2772	0.288
223.4936	0.2914
223.71	0.2793
223.9264	0.2976
224.1427	0.2777
224.3591	0.2835
224.5754	0.2932
224.7917	0.2888
225.008	0.3006
225.2243	0.2929
225.4406	0.2847
225.6569	0.2898
225.8732	0.3013
226.0894	0.3063
226.3057	0.3065
226.5219	0.3045
226.7381	0.3178
226.9543	0.3145
227.1705	0.3223
227.3867	0.3291
227.6029	0.3321
227.8191	0.3367
228.0352	0.3489
228.2513	0.3517
228.4675	0.3495
228.6836	0.3515
228.8997	0.3449
229.1158	0.354
229.3319	0.358
229.548	0.3432
229.764	0.3515
229.9801	0.3692
230.1961	0.3606
230.4121	0.3585
230.6282	0.3813
230.8442	0.3902
231.0602	0.3889
231.2761	0.3813
231.4921	0.3914
231.7081	0.3983
231.924	0.4036
232.14	0.4042
232.3559	0.4023
232.5718	0.4133
232.7877	0.4151
233.0036	0.4112
233.2195	0.4127
233.4353	0.4213
233.6512	0.4158
233.867	0.421
234.0829	0.4222
234.2987	0.4354
234.5145	0.435
234.7303	0.441
234.9461	0.4367
235.1619	0.4456
235.3776	0.4294
235.5934	0.4287
235.8091	0.4367
236.0249	0.4519
236.2406	0.4413
236.4563	0.4447
236.672	0.4456
236.8877	0.4611
237.1034	0.4489
237.319	0.4585
237.5347	0.452
237.7503	0.4562
237.966	0.4633
238.1816	0.4444
238.3972	0.4545
238.6128	0.4685
238.8284	0.4619
239.0439	0.4619
239.2595	0.4635
239.475	0.4687
239.6906	0.4554
239.9061	0.4537
240.1216	0.4686
240.3371	0.4608
240.5526	0.4708
240.7681	0.4704
240.9836	0.4611
241.199	0.4501
241.4145	0.4557
241.6299	0.4548
241.8453	0.4447
242.0607	0.4327
242.2761	0.4355
242.4915	0.4188
242.7069	0.4208
242.9223	0.4183
243.1376	0.4123
243.353	0.412
243.5683	0.3946
243.7836	0.3903
243.9989	0.3737
244.2142	0.3834
244.4295	0.3782
244.6448	0.3757
244.86	0.3553
245.0753	0.3511
245.2905	0.3444
245.5057	0.3396
245.721	0.3353
245.9362	0.3272
246.1514	0.3181
246.3665	0.3082
246.5817	0.3047
246.7969	0.3008
247.012	0.2914
247.2271	0.2952
247.4423	0.2861
247.6574	0.2836
247.8725	0.2738
248.0876	0.2683
248.3026	0.2721
248.5177	0.2571
248.7328	0.2515
248.9478	0.2519
249.1628	0.2484
249.3779	0.2394
249.5929	0.2463
249.8079	0.2361
250.0228	0.2316
250.2378	0.2392
250.4528	0.2321
250.6677	0.2289
250.8827	0.2175
251.0976	0.2138
251.3125	0.2173
251.5274	0.2097
251.7423	0.2109
251.9572	0.2076
252.172	0.2042
252.3869	0.2072
252.6017	0.2
252.8166	0.202
253.0314	0.1969
253.2462	0.2023
253.461	0.1935
253.6758	0.1974
253.8906	0.1922
254.1053	0.1946
254.3201	0.1901
254.5348	0.1798
254.7496	0.1836
254.9643	0.1932
255.179	0.1821
255.3937	0.185
255.6083	0.1906
255.823	0.1849
256.0377	0.183
256.2523	0.1828
256.467	0.185
256.6816	0.1853
256.8962	0.183
257.1108	0.1812
257.3254	0.1822
257.54	0.1788
257.7545	0.1854
257.9691	0.1774
258.1836	0.1778
258.3981	0.1797
258.6127	0.1758
258.8272	0.181
259.0417	0.1742
259.2561	0.1728
259.4706	0.1756
259.6851	0.1761
259.8995	0.1751
260.114	0.1765
260.3284	0.1742
260.5428	0.1738
260.7572	0.1739
260.9716	0.1768
261.186	0.1795
261.4003	0.1772
261.6147	0.1715
261.829	0.1801
262.0433	0.1792
262.2577	0.183
262.472	0.1779
262.6863	0.1818
262.9005	0.1756
263.1148	0.1801
263.3291	0.1817
263.5433	0.1834
263.7576	0.1838
263.9718	0.1779
264.186	0.1816
264.4002	0.1824
264.6144	0.1892
264.8286	0.1815
265.0427	0.1867
265.2569	0.1801
265.471	0.181
265.6851	0.184
265.8993	0.1744
266.1134	0.1849
266.3275	0.1849
266.5415	0.1837
266.7556	0.1836
266.9697	0.1898
267.1837	0.1873
267.3978	0.1806
267.6118	0.1812
267.8258	0.1818
268.0398	0.1838
268.2538	0.1863
268.4677	0.1828
268.6817	0.185
268.8957	0.1708
269.1096	0.1758
269.3235	0.1806
269.5374	0.1812
269.7514	0.1773
269.9652	0.1784
270.1791	0.1739
270.393	0.1769
270.6068	0.1796
270.8207	0.1738
271.0345	0.1766
271.2483	0.1687
271.4622	0.1817
271.676	0.1717
271.8897	0.1733
272.1035	0.1795
272.3173	0.1741
272.531	0.1714
272.7448	0.1743
272.9585	0.1723
273.1722	0.1707
273.3859	0.1698
273.5996	0.1777
273.8133	0.1794
274.0269	0.1729
274.2406	0.1819
274.4542	0.1775
274.6679	0.1806
274.8815	0.179
275.0951	0.187
275.3087	0.183
275.5223	0.1867
275.7358	0.1811
275.9494	0.1821
276.1629	0.1862
276.3765	0.1843
276.59	0.1813
276.8035	0.1864
277.017	0.1876
277.2305	0.1835
277.444	0.1873
277.6574	0.1847
277.8709	0.1915
278.0843	0.1904
278.2978	0.1873
278.5112	0.1872
278.7246	0.1852
278.938	0.1852
279.1513	0.1906
279.3647	0.1828
279.5781	0.1867
279.7914	0.1843
280.0047	0.1844
280.2181	0.1864
280.4314	0.1902
280.6447	0.1922
280.8579	0.1795
281.0712	0.1828
281.2845	0.1868
281.4977	0.1857
281.711	0.1797
281.9242	0.1875
282.1374	0.1835
282.3506	0.1878
282.5638	0.1843
282.7769	0.181
282.9901	0.1834
283.2033	0.1809
283.4164	0.1868
283.6295	0.1792
283.8426	0.1832
284.0557	0.1853
284.2688	0.1885
284.4819	0.1757
284.695	0.1906
284.908	0.1849
285.1211	0.1903
285.3341	0.1801
285.5471	0.1848
285.7601	0.1858
285.9731	0.1857
286.1861	0.1881
286.3991	0.1883
286.612	0.1846
286.825	0.1829
287.0379	0.1845
287.2508	0.1871
287.4637	0.1906
287.6766	0.1847
287.8895	0.1884
288.1024	0.1954
288.3152	0.1881
288.5281	0.1871
288.7409	0.1898
288.9538	0.194
289.1666	0.1863
289.3794	0.1886
289.5922	0.1865
289.8049	0.188
290.0177	0.1869
290.2304	0.1871
290.4432	0.1908
290.6559	0.1871
290.8686	0.1914
291.0813	0.1921
291.294	0.1913
291.5067	0.1852
291.7194	0.1934
291.932	0.1822
292.1447	0.1944
292.3573	0.1923
292.5699	0.1909
292.7825	0.1905
292.9951	0.1843
293.2077	0.1855
293.4203	0.185
293.6328	0.1864
293.8454	0.191
294.0579	0.1834
294.2704	0.1908
294.4829	0.1919
294.6954	0.1941
294.9079	0.189
295.1204	0.1824
295.3328	0.1968
295.5453	0.1888
295.7577	0.1957
295.9701	0.189
296.1825	0.1909
296.3949	0.1907
296.6073	0.1876
296.8197	0.1897
297.0321	0.1927
297.2444	0.1919
297.4567	0.1898
297.6691	0.1858
297.8814	0.1878
298.0937	0.1877
298.306	0.1891
298.5182	0.1909
298.7305	0.1868
298.9428	0.1875
299.155	0.1782
299.3672	0.1926
299.5794	0.1864
299.7916	0.1894
300.0038	0.1897
300.216	0.1863
300.4282	0.1847
300.6403	0.1957
300.8525	0.1875
301.0646	0.1918
301.2767	0.1933
301.4888	0.1886
301.7009	0.1948
301.913	0.188
302.125	0.1877
302.3371	0.1913
302.5491	0.1905
302.7612	0.1964
302.9732	0.191
303.1852	0.1889
303.3972	0.1857
303.6092	0.1951
303.8211	0.1886
304.0331	0.1907
304.245	0.1845
304.457	0.1854
304.6689	0.1886
304.8808	0.1842
305.0927	0.1897
305.3046	0.184
305.5164	0.1852
305.7283	0.179
305.9401	0.1771
306.152	0.1763
306.3638	0.1754
306.5756	0.1816
306.7874	0.1771
306.9992	0.1758
307.2109	0.1758
307.4227	0.1675
307.6344	0.1752
307.8462	0.1692
308.0579	0.1726
308.2696	0.1684
308.4813	0.1698
308.693	0.1603
308.9046	0.1677
309.1163	0.1681
309.328	0.1618
309.5396	0.1583
309.7512	0.1549
309.9628	0.1517
310.1744	0.1524
310.386	0.1466
310.5976	0.1526
310.8091	0.1526
311.0207	0.1483
311.2322	0.1462
311.4437	0.1479
311.6552	0.1484
311.8667	0.1473
312.0782	0.1467
312.2897	0.1421
312.5012	0.1423
312.7126	0.1359
312.924	0.1404
313.1355	0.1376
313.3469	0.137
313.5583	0.1413
313.7696	0.1279
313.981	0.1395
314.1924	0.1307
314.4037	0.1338
314.6151	0.1268
314.8264	0.1385
315.0377	0.1337
315.249	0.1309
315.4603	0.1286
315.6716	0.131
315.8828	0.1272
316.0941	0.1328
316.3053	0.1313
316.5165	0.1338
316.7277	0.1276
316.9389	0.1284
317.1501	0.1275
317.3613	0.1271
317.5724	0.1265
317.7836	0.1241
317.9947	0.1271
318.2058	0.1214
318.417	0.1274
318.6281	0.1214
318.8391	0.1262
319.0502	0.1285
319.2613	0.1291
319.4723	0.1251
319.6834	0.1325
319.8944	0.1307
320.1054	0.1291
320.3164	0.1233
320.5274	0.1243
320.7383	0.129
320.9493	0.1255
321.1602	0.1237
321.3712	0.1271
321.5821	0.1244
321.793	0.1333
322.0039	0.1329
322.2148	0.1279
322.4257	0.1221
322.6365	0.1286
322.8474	0.1281
323.0582	0.1278
323.269	0.1361
323.4798	0.1264
323.6906	0.1297
323.9014	0.1262
324.1122	0.1234
324.3229	0.1349
324.5337	0.1273
324.7444	0.1271
324.9551	0.1277
325.1658	0.1275
325.3765	0.1327
325.5872	0.1322
325.7979	0.1296
326.0085	0.1254
326.2192	0.1237
326.4298	0.1323
326.6404	0.1364
326.851	0.1296
327.0616	0.1304
327.2722	0.1379
327.4828	0.13
327.6933	0.1434
327.9039	0.1302
328.1144	0.1271
328.3249	0.136
328.5354	0.1341
328.7459	0.138
328.9564	0.1336
329.1669	0.1359
329.3773	0.1342
329.5878	0.1347
329.7982	0.1367
330.0086	0.1387
330.219	0.1336
330.4294	0.1374
330.6398	0.134
330.8502	0.1403
331.0605	0.1379
331.2708	0.1357
331.4812	0.1353
331.6915	0.1395
331.9018	0.1344
332.1121	0.1428
332.3224	0.1375
332.5326	0.1369
332.7429	0.1356
332.9531	0.1412
333.1633	0.1339
333.3735	0.1364
333.5837	0.1375
333.7939	0.1389
334.0041	0.1402
334.2143	0.1366
334.4244	0.1478
334.6346	0.1409
334.8447	0.1446
335.0548	0.1408
335.2649	0.1418
335.475	0.1443
335.685	0.1372
335.8951	0.132
336.1051	0.1423
336.3152	0.1444
336.5252	0.1391
336.7352	0.1367
336.9452	0.143
337.1552	0.141
337.3652	0.1418
337.5751	0.134
337.7851	0.1421
337.995	0.1445
338.2049	0.1437
338.4148	0.1489
338.6247	0.1465
338.8346	0.1419
339.0445	0.1438
339.2543	0.1381
339.4642	0.1464
339.674	0.1495
339.8838	0.1467
340.0936	0.1416
340.3034	0.146
340.5132	0.1425
340.7229	0.1433
340.9327	0.1562
341.1424	0.1467
341.3522	0.1402
341.5619	0.1483
341.7716	0.1488
341.9813	0.1501
342.1909	0.1557
342.4006	0.1567
342.6102	0.1573
342.8199	0.1463
343.0295	0.1471
343.2391	0.1592
343.4487	0.1539
343.6583	0.1621
343.8679	0.1531
344.0774	0.1513
344.287	0.1577
344.4965	0.1622
344.706	0.1608
344.9155	0.157
345.125	0.1616
345.3345	0.1666
345.544	0.1574
345.7534	0.16
345.9629	0.1656
346.1723	0.1698
346.3817	0.159
346.5911	0.1648
346.8005	0.1694
347.0099	0.1593
347.2193	0.1766
347.4286	0.1775
347.638	0.1622
347.8473	0.1702
348.0566	0.1644
348.2659	0.1698
348.4752	0.1738
348.6845	0.1688
348.8937	0.173
349.103	0.1808
349.3122	0.1747
349.5214	0.1785
349.7306	0.1806
349.9398	0.1676
350.149	0.1692
350.3582	0.1805
350.5674	0.177
350.7765	0.1774
350.9856	0.1769
351.1948	0.1731
351.4039	0.1748
351.613	0.1776
351.822	0.1862
352.0311	0.1817
352.2402	0.1818
352.4492	0.1837
352.6582	0.1805
352.8672	0.1834
353.0762	0.185
353.2852	0.1801
353.4942	0.1855
353.7032	0.1811
353.9121	0.1792
354.1211	0.1915
354.33	0.1888
354.5389	0.1789
354.7478	0.185
354.9567	0.186
355.1655	0.1836
355.3744	0.1801
355.5833	0.186
355.7921	0.1932
356.0009	0.1794
356.2097	0.176
356.4185	0.1875
356.6273	0.186
356.8361	0.1908
357.0448	0.1901
357.2536	0.1877
357.4623	0.1866
357.671	0.2004
357.8797	0.1909
358.0884	0.195
358.2971	0.1876
358.5057	0.195
358.7144	0.2063
358.923	0.202
359.1316	0.1999
359.3402	0.1948
359.5488	0.1937
359.7574	0.1976
359.966	0.1994
360.1746	0.1916
360.3831	0.2013
360.5916	0.2053
360.8002	0.2084
361.0087	0.2017
361.2172	0.2051
361.4256	0.2002
361.6341	0.2049
361.8426	0.2062
362.051	0.2136
362.2594	0.203
362.4678	0.2082
362.6762	0.2121
362.8846	0.2082
363.093	0.204
363.3014	0.2158
363.5097	0.2188
363.718	0.2143
363.9264	0.2151
364.1347	0.2185
364.343	0.2123
364.5513	0.2159
364.7595	0.2279
364.9678	0.2143
365.176	0.2278
365.3842	0.2282
365.5925	0.2247
365.8007	0.2252
366.0089	0.2306
366.217	0.224
366.4252	0.2293
366.6333	0.2254
366.8415	0.224
367.0496	0.2274
367.2577	0.2351
367.4658	0.2271
367.6739	0.2223
367.882	0.2398
368.09	0.2325
368.2981	0.2407
368.5061	0.241
368.7141	0.2261
368.9221	0.2443
369.1301	0.241
369.3381	0.2362
369.5461	0.2349
369.754	0.2384
369.962	0.2443
370.1699	0.244
370.3778	0.2436
370.5857	0.2451
370.7936	0.2461
371.0015	0.2451
371.2093	0.2436
371.4172	0.2505
371.625	0.2475
371.8328	0.2446
372.0406	0.2515
372.2484	0.2468
372.4562	0.2529
372.664	0.2518
372.8717	0.2547
373.0795	0.2558
373.2872	0.2548
373.4949	0.2619
373.7026	0.254
373.9103	0.246
374.118	0.2585
374.3256	0.2511
374.5333	0.2588
374.7409	0.2573
374.9485	0.2541
375.1561	0.2666
375.3637	0.2577
375.5713	0.2613
375.7789	0.2629
375.9864	0.2572
376.194	0.2703
376.4015	0.265
376.609	0.2592
376.8165	0.2626
377.024	0.2596
377.2315	0.266
377.4389	0.2694
377.6464	0.2658
377.8538	0.2699
378.0612	0.2695
378.2686	0.2727
378.476	0.2716
378.6834	0.2804
378.8908	0.2781
379.0981	0.2753
379.3055	0.2723
379.5128	0.267
379.7201	0.2754
379.9274	0.2749
380.1347	0.2816
380.342	0.2829
380.5492	0.2833
380.7565	0.2764
380.9637	0.2852
381.1709	0.2719
381.3781	0.282
381.5853	0.2829
381.7925	0.2809
381.9997	0.2876
382.2068	0.2755
382.4139	0.2826
382.6211	0.2818
382.8282	0.305
383.0353	0.2904
383.2424	0.2805
383.4494	0.2817
383.6565	0.2954
383.8635	0.289
384.0706	0.2921
384.2776	0.2828
384.4846	0.2887
384.6916	0.2868
384.8986	0.2939
385.1055	0.3015
385.3125	0.2931
385.5194	0.2894
385.7263	0.2852
385.9333	0.2988
386.1402	0.2943
386.347	0.2847
386.5539	0.2923
386.7608	0.2897
386.9676	0.29
387.1744	0.2971
387.3813	0.2889
387.5881	0.2832
387.7948	0.2984
388.0016	0.302
388.2084	0.2925
388.4151	0.2913
388.6219	0.2843
388.8286	0.2926
389.0353	0.2925
389.242	0.2944
389.4487	0.2858
389.6553	0.2774
389.862	0.2805
390.0686	0.2848
390.2753	0.2885
390.4819	0.2769
390.6885	0.2859
390.8951	0.2881
391.1016	0.2805
391.3082	0.2863
391.5147	0.2785
391.7213	0.2859
391.9278	0.2757
392.1343	0.2703
392.3408	0.2805
392.5473	0.2756
392.7537	0.2778
392.9602	0.2546
393.1666	0.2697
393.373	0.2663
393.5794	0.2664
393.7858	0.2553
393.9922	0.2637
394.1986	0.2634
394.4049	0.2647
394.6113	0.2723
394.8176	0.2703
395.0239	0.2584
395.2302	0.264
395.4365	0.2711
395.6428	0.2536
395.8491	0.2582
396.0553	0.2473
396.2615	0.2499
396.4678	0.2584
396.674	0.2546
396.8802	0.2537
397.0863	0.2506
397.2925	0.2541
397.4987	0.2541
397.7048	0.2589
397.9109	0.2369
398.117	0.2526
398.3231	0.2483
398.5292	0.2329
398.7353	0.2409
398.9413	0.2442
399.1474	0.2489
399.3534	0.2418
399.5594	0.2458
399.7654	0.243
399.9714	0.254
400.1774	0.2467
400.3833	0.2443
400.5893	0.241
400.7952	0.2548
401.0011	0.2484
401.207	0.2495
401.4129	0.2513
401.6188	0.2428
401.8247	0.2522
402.0305	0.244
402.2364	0.2426
402.4422	0.2506
402.648	0.2504
402.8538	0.2346
403.0596	0.2427
403.2654	0.2438
403.4711	0.2426
403.6768	0.2417
403.8826	0.2448
404.0883	0.243
404.294	0.2443
404.4997	0.2505
404.7054	0.25
404.911	0.2415
405.1167	0.2487
405.3223	0.2404
405.5279	0.2383
405.7335	0.2431
405.9391	0.233
406.1447	0.2486
406.3502	0.2465
406.5558	0.2456
406.7613	0.253
406.9668	0.2398
407.1724	0.2432
407.3778	0.2532
407.5833	0.2358
407.7888	0.2476
407.9942	0.2512
408.1997	0.2498
408.4051	0.243
408.6105	0.2468
408.8159	0.2381
409.0213	0.2494
409.2267	0.2491
409.432	0.2459
409.6374	0.2418
409.8427	0.2469
410.048	0.2493
410.2533	0.2442
410.4586	0.2434
410.6639	0.25
410.8691	0.2343
411.0744	0.2357
411.2796	0.2353
411.4848	0.247
411.69	0.2459
411.8952	0.2339
412.1004	0.252
412.3056	0.2337
412.5107	0.2401
412.7158	0.256
412.921	0.235
413.1261	0.2328
413.3312	0.2396
413.5362	0.2464
413.7413	0.2436
413.9464	0.2342
414.1514	0.2395
414.3564	0.2379
414.5614	0.2379
414.7664	0.2332
414.9714	0.2255
415.1764	0.2436
415.3813	0.2385
415.5863	0.2404
415.7912	0.2397
415.9961	0.241
416.201	0.2422
416.4059	0.2421
416.6108	0.2373
416.8156	0.2392
417.0205	0.2369
417.2253	0.231
417.4301	0.2339
417.6349	0.2425
417.8397	0.2274
418.0445	0.2337
418.2492	0.2259
418.454	0.2347
418.6587	0.2424
418.8634	0.2417
419.0681	0.2312
419.2728	0.2263
419.4775	0.2478
419.6822	0.2256
419.8868	0.2359
420.0915	0.2331
420.2961	0.2232
420.5007	0.2284
420.7053	0.2252
420.9099	0.2189
421.1144	0.2282
421.319	0.2273
421.5235	0.2178
421.728	0.2255
421.9325	0.227
422.137	0.2189
422.3415	0.2256
422.546	0.2146
422.7504	0.2142
422.9549	0.2337
423.1593	0.215
423.3637	0.2176
423.5681	0.2298
423.7725	0.2051
423.9769	0.22
424.1812	0.2073
424.3856	0.2056
424.5899	0.2116
424.7942	0.2067
424.9985	0.2089
425.2028	0.2163
425.4071	0.2193
425.6113	0.2068
425.8156	0.2095
426.0198	0.2066
426.224	0.2057
426.4282	0.1906
426.6324	0.2007
426.8366	0.204
427.0407	0.1977
427.2449	0.1939
427.449	0.1979
427.6531	0.2054
427.8572	0.1993
428.0613	0.1925
428.2654	0.1944
428.4694	0.1934
428.6735	0.1883
428.8775	0.1917
429.0815	0.1847
429.2855	0.182
429.4895	0.1883
429.6935	0.19
429.8975	0.1771
430.1014	0.186
430.3053	0.1826
430.5093	0.1798
430.7132	0.1734
430.9171	0.181
431.1209	0.1811
431.3248	0.1741
431.5286	0.171
431.7325	0.1776
431.9363	0.1712
432.1401	0.1577
432.3439	0.1718
432.5477	0.1606
432.7514	0.1585
432.9552	0.1631
433.1589	0.1573
433.3627	0.1636
433.5664	0.1586
433.7701	0.1564
433.9737	0.159
434.1774	0.163
434.3811	0.1442
434.5847	0.1536
434.7883	0.1476
434.9919	0.1399
435.1955	0.1388
435.3991	0.1415
435.6027	0.1372
435.8062	0.1516
436.0098	0.1393
436.2133	0.1317
436.4168	0.1368
436.6203	0.1277
436.8238	0.1362
437.0272	0.1312
437.2307	0.1298
437.4341	0.1299
437.6375	0.1273
437.841	0.1151
438.0443	0.1334
438.2477	0.1202
438.4511	0.1063
438.6545	0.1172
438.8578	0.119
439.0611	0.1101
439.2644	0.1199
439.4677	0.123
439.671	0.1154
439.8743	0.1141
440.0775	0.1094
440.2808	0.1191
440.484	0.1033
440.6872	0.101
440.8904	0.0998
441.0936	0.098
441.2967	0.0908
441.4999	0.0947
441.703	0.0952
441.9062	0.0956
442.1093	0.1061
442.3124	0.0984
442.5155	0.0891
442.7185	0.0918
442.9216	0.0906
443.1246	0.0882
443.3276	0.08
443.5307	0.0875
443.7337	0.0859
443.9366	0.0836
444.1396	0.0752
444.3426	0.0698
444.5455	0.0786
444.7484	0.0744
444.9513	0.0784
445.1542	0.0705
445.3571	0.072
445.56	0.0618
445.7628	0.0649
445.9657	0.0687
446.1685	0.0764
446.3713	0.0647
446.5741	0.0694
446.7769	0.0724
446.9797	0.0708
447.1824	0.0598
447.3852	0.0514
447.5879	0.0572
447.7906	0.0547
447.9933	0.0588
448.196	0.0445
448.3986	0.0496
448.6013	0.0521
448.8039	0.0603
449.0066	0.063
449.2092	0.0549
449.4118	0.0446
449.6143	0.0544
449.8169	0.0497
450.0195	0.0476
450.222	0.0539
450.4245	0.0606
450.627	0.0457
450.8295	0.0503
451.032	0.0459
451.2345	0.0392
451.4369	0.0446
451.6394	0.0356
451.8418	0.0423
452.0442	0.0425
452.2466	0.0332
452.449	0.0421
452.6513	0.0358
452.8537	0.0254
453.056	0.0374
453.2583	0.0324
453.4607	0.031
453.663	0.0367
453.8652	0.026
454.0675	0.0343
454.2697	0.0307
454.472	0.0329
454.6742	0.0376
454.8764	0.0375
455.0786	0.0283
455.2808	0.0271
455.4829	0.0287
455.6851	0.0355
455.8872	0.0152
456.0893	0.0304
456.2915	0.0282
456.4935	0.0289
456.6956	0.0279
456.8977	0.0248
457.0997	0.0273
457.3018	0.0123
457.5038	0.0314
457.7058	0.0313
457.9078	0.0305
458.1098	0.0232
458.3117	0.0314
458.5137	0.0059
458.7156	0.0201
458.9175	0.0186
459.1194	0.0163
459.3213	0.0164
459.5232	0.0227
459.725	0.0219
459.9269	0.0264
460.1287	0.0147
460.3305	0.0245
460.5323	0.0234
460.7341	0.0186
460.9359	0.0149
461.1376	0.0155
461.3394	0.0217
461.5411	0.0219
461.7428	0.0172
461.9445	0.0206
462.1462	0.0235
462.3479	0.0171
462.5495	0.0208
462.7512	0.0211
462.9528	0.022
463.1544	0.0098
463.356	0.0073
463.5576	0.0221
463.7592	0.0198
463.9607	0.0117
464.1623	0.018
464.3638	0.0045
464.5653	0.0135
464.7668	0.0195
464.9683	0.0196
465.1697	0.0117
465.3712	0.0077
465.5726	0.0081
465.7741	0.0197
465.9755	0.014
466.1769	0.0163
466.3782	0.0135
466.5796	0.0128
466.7809	0.0125
466.9823	0.013
467.1836	0.0025
467.3849	0.0152
467.5862	0.0057
467.7875	0.0083
467.9887	0.006
468.19	0.0002
468.3912	0.0162
468.5924	0.0075
468.7936	0.0104
468.9948	0.0089
469.196	0.0194
469.3972	0.0014
469.5983	0.0067
469.7994	0.0192
470.0006	0.0115
470.2017	0.0018
470.4027	0.0275
470.6038	0.0079
470.8049	0.0067
471.0059	0.0073
471.2069	0.0186
471.408	0.0117
471.6089	0.0195
471.8099	0.0138
472.0109	0.0099
472.2119	0.0133
472.4128	0.0006
472.6137	0.0087
472.8146	0.0069
473.0155	0.02
473.2164	0.0056
473.4173	0.0045
473.6181	0.0094
473.819	0.0042
474.0198	-0.0044
474.2206	-0.0009
474.4214	0.01
474.6222	0.0029
474.8229	0.0047
475.0237	0.009
475.2244	0.011
475.4251	0.0093
475.6258	0.0051
475.8265	0.0173
476.0272	0.0085
476.2278	0.0048
476.4285	-0.0029
476.6291	0.0037
476.8297	0.0092
477.0303	-0.0047
477.2309	0.0078
477.4315	0.0122
477.632	0.002
477.8326	0.0057
478.0331	0.0094
478.2336	0.0063
478.4341	0.0102
478.6346	0.0078
478.8351	0.0052
479.0355	0.0151
479.236	0.0147
479.4364	0.019
479.6368	0.0017
479.8372	0.0072
480.0376	0.0081
480.2379	0.0177
480.4383	0.0108
480.6386	0.0042
480.8389	0.0096
481.0392	0.0011
481.2395	0.013
481.4398	0.0062
481.6401	0.0087
481.8403	-0.0016
482.0405	0.009
482.2408	0.0099
482.441	0.0154
482.6411	0.0073
482.8413	0.0075
483.0415	0.0101
483.2416	0.0022
483.4417	0.0044
483.6419	-0.0017
483.8419	0.0101
484.042	-0.0023
484.2421	-0.0005
484.4422	0.006
484.6422	0
484.8422	0.0034
485.0422	0.0056
485.2422	0.0044
485.4422	0.004
485.6422	0.0032
485.8421	0.0056
486.042	0.0104
486.242	-0
486.4419	0.0038
486.6417	0.0047
486.8416	0.0072
487.0415	0.0005
487.2413	-0.0025
487.4411	0.0074
487.641	0.0029
487.8408	0.0062
488.0405	0.0096
488.2403	-0.0012
488.4401	0.0085
488.6398	0.0135
488.8395	0.0083
489.0392	0.0082
489.2389	0.0125
489.4386	-0.0051
489.6383	0.012
489.8379	0.0021
490.0376	0.0142
490.2372	-0.0004
490.4368	0.0063
490.6364	-0.0018
490.836	0.0002
491.0355	-0.0003
491.2351	0.006
491.4346	0.0056
491.6341	0.0007
491.8336	0.0086
492.0331	-0.0005
492.2326	0.0075
492.432	0.0041
492.6315	0.0092
492.8309	0.0106
493.0303	0.0114
493.2297	0.0052
493.4291	0.0027
493.6284	0.0103
493.8278	0.0006
494.0271	0.0029
494.2264	0.0027
494.4257	0.0075
494.625	0.0062
494.8243	0.002
495.0236	0.0088
495.2228	0.0125
495.422	0.008
495.6213	0.0128
495.8205	0.0064
496.0196	0.0037
496.2188	0.0018
496.418	0.0014
496.6171	0.0121
496.8162	0.0052
497.0153	0.0093
497.2144	0.002
497.4135	0.0055
497.6126	0.0088
497.8116	-0.0015
498.0107	0.0029
498.2097	0.0158
498.4087	0.0027
498.6077	0.0031
498.8067	0.0056
499.0056	0.0039
499.2046	0.0062
499.4035	0.0108
499.6024	0.0002
499.8013	0.0088
500.0002	0.0154
500.199	0.0192
500.3979	-0.0064
500.5967	0.0061
500.7956	0.011
500.9944	0.0061
501.1932	0.013
501.3919	0.0069
501.5907	0.0073
501.7895	-0.0016
501.9882	0.0022
502.1869	0.012
502.3856	0.0052
502.5843	0.0047
502.783	0.005
502.9816	0.0121
503.1803	0.0041
503.3789	0.0153
503.5775	0.0067
503.7761	-0.0041
503.9747	0.0128
504.1732	-0.0085
504.3718	0.0133
504.5703	0.0131
504.7689	-0.0029
504.9674	0.0041
505.1658	0.0098
505.3643	0.0098
505.5628	0.0116
505.7612	0.0149
505.9597	-0.002
506.1581	-0.0025
506.3565	0.0094
506.5549	0.0094
506.7532	0.0009
506.9516	0.0038
507.1499	0.004
507.3482	0.0137
507.5465	0.0089
507.7448	0.0059
507.9431	0.0063
508.1414	0.0035
508.3396	0.0053
508.5379	0.0116
508.7361	0.0101
508.9343	0.0166
509.1325	0.0115
509.3306	0.0009
509.5288	-0.0018
509.7269	0.0084
509.9251	0.0048
510.1232	0.0133
510.3213	0.005
510.5193	0.0069
510.7174	0.0003
510.9154	0.0086
511.1135	0.0041
511.3115	0.012
511.5095	0.0066
511.7075	0.0067
511.9055	0.009
512.1034	0.0088
512.3014	0.0061
512.4993	0.0107
512.6972	0.0004
512.8951	0.0096
513.093	0.0069
513.2908	0.0131
513.4887	0.0096
513.6865	0.0045
513.8844	0.0066
514.0822	0.0009
514.2799	-0.0012
514.4777	-0.0021
514.6755	0.007
514.8732	0.0031
515.0709	0.009
515.2687	0.003
515.4664	0.0136
515.664	0.0028
515.8617	0.0088
516.0594	0.007
516.257	0.01
516.4546	0.0234
516.6522	0.0055
516.8498	0.0075
517.0474	0.0082
517.2449	-0.0014
517.4425	-0.0004
517.64	0.0114
517.8375	0.0096
518.035	0.0083
518.2325	-0.0062
518.43	-0.0012
518.6274	0.0107
518.8249	-0.0032
519.0223	0.0182
519.2197	0.0105
519.4171	0.0078
519.6145	0.0063
519.8118	-0.0079
520.0092	-0.0008
520.2065	0.0253
520.4038	0.0046
520.6011	0.0166
520.7984	0.0116
520.9956	0.0153
521.1929	0.011
521.3901	0.0089
521.5874	0.0193
521.7846	-0.0021
521.9818	0.0026
522.1789	-0.0021
522.3761	0.018
522.5732	0.0022
522.7704	0.0021
522.9675	0.0062
523.1646	0.0015
523.3617	0.0157
523.5587	0.008
523.7558	0.0138
523.9528	0.0083
524.1498	-0.0007
524.3468	0.0113
524.5438	0.0133
524.7408	0.0002
524.9378	0.0087
525.1347	0.0109
525.3316	0.0095
525.5285	0.0091
525.7254	0.0017
525.9223	0.0087
526.1192	0.0081
526.316	0.008
526.5129	0.0044
526.7097	-0.001
526.9065	0.0156
527.1033	0.0029
527.3	0.0008
527.4968	0.0028
527.6935	-0.0028
527.8903	-0.0004
528.087	0.006
528.2837	0.0079
528.4804	0.0039
528.677	-0.0001
528.8737	0.01
529.0703	0.0053
529.2669	0.0166
529.4635	-0.0036
529.6601	-0.0019
529.8567	0.0052
530.0532	0.0071
530.2498	0.0033
530.4463	-0.009
530.6428	0.0075
530.8393	0.0102
531.0358	0.0023
531.2322	0.0063
531.4287	0.0033
531.6251	-0.0023
531.8215	-0.0065
532.0179	0.0137
532.2143	0.0114
532.4107	0.0138
532.607	0.0031
532.8034	0.001
532.9997	0.002
533.196	-0.0017
533.3923	0.0031
533.5886	0.01
533.7848	0.0049
533.9811	0.0076
534.1773	0.0061
534.3735	0.005
534.5697	0.0015
534.7659	0.0056
534.9621	0.005
535.1582	-0.0049
535.3544	0.0162
535.5505	-0.0006
535.7466	0.0033
535.9427	0.0076
536.1387	-0.0002
536.3348	0.0127
536.5308	0.0078
536.7269	-0.0026
536.9229	0.01
537.1189	0.0142
537.3148	0.0089
537.5108	0.0073
537.7068	0.0152
537.9027	-0.007
538.0986	0.0055
538.2945	0.0021
538.4904	-0.0044
538.6863	0.0033
538.8821	0.0084
539.078	0.0108
539.2738	0.0067
539.4696	-0.002
539.6654	0.0144
539.8611	0.0098
540.0569	0.0063
540.2526	0.0102
540.4484	-0.0008
540.6441	0.0068
540.8398	0.0154
541.0355	0.0006
541.2311	0.0131
541.4268	0.0079
541.6224	0.0101
541.818	0.0101
542.0136	0.0082
542.2092	0.0075
542.4048	0.0063
542.6003	0.0003
542.7959	0.002
542.9914	0.0061
543.1869	0.0047
543.3824	0.0104
543.5779	0.0124
543.7734	0.0163
543.9688	0.01
544.1642	-0.0019
544.3596	0.011
544.555	0.0059
544.7504	0.0122
544.9458	0.0046
545.1411	0
545.3365	0.011
545.5318	0.0099
545.7271	0.0173
545.9224	0.0017
546.1177	0.0085
546.3129	0.0147
546.5081	-0.0013
546.7034	0.0032
546.8986	0.0081
547.0938	0.0084
547.289	0.0072
547.4841	0.0078
547.6793	-0.0005
547.8744	0.0041
548.0695	-0.0016
548.2646	0.0063
548.4597	0.0036
548.6548	0.0086
548.8498	0.0054
549.0448	0.0096
549.2399	0.0227
549.4349	0.0099
549.6298	0.0103
549.8248	0.0038
550.0198	0.0142
550.2147	0.0087
550.4096	-0.0028
550.6045	0.0016
550.7994	0.0102
550.9943	0.0165
551.1892	-0.0022
551.384	0.0124
551.5788	0.0111
551.7737	0.0105
551.9685	0.0089
552.1632	-0.0032
552.358	0.0023
552.5528	0.0073
552.7475	0.0058
552.9422	0.0064
553.1369	0.0035
553.3316	0.0063
553.5263	0.0166
553.7209	0.0077
553.9156	0.0038
554.1102	0.0111
554.3048	-0.0024
554.4994	0.0012
554.694	0.0137
554.8885	0.0039
555.0831	0.0122
555.2776	0.005
555.4721	0.0106
555.6666	0.0069
555.8611	0.0023
556.0555	0.0016
556.25	0.0156
556.4444	0.0039
556.6388	-0.0127
556.8332	0.0121
557.0276	0.0036
557.222	-0.0004
557.4163	0.0095
557.6107	0.0066
557.805	0.0009
557.9993	-0.0011
558.1936	0.0059
558.3879	0.0025
558.5821	0.0034
558.7764	-0.0058
558.9706	0.0012
559.1648	0.0053
559.359	-0.0004
559.5532	0.0122
559.7473	-0.0082
559.9415	-0.0015
560.1356	0.0125
560.3297	0.0026
560.5238	0.0077
560.7179	0.0026
560.9119	0.0047
561.106	0.002
561.3	0.0048
561.494	-0.0069
561.688	0.0057
561.882	-0.0028
562.076	0.0152
562.2699	0.0092
562.4639	0.0167
562.6578	0.0099
562.8517	0.0085
563.0456	0.0118
563.2395	0.0054
563.4333	0.0083
563.6272	0.004
563.821	0.0075
564.0148	0.0002
564.2086	0.0081
564.4024	0.0033
564.5961	0.0092
564.7899	0.0165
564.9836	0.0003
565.1773	0.0151
565.371	0.0037
565.5647	0.0112
565.7584	0.0044
565.952	-0.0055
566.1456	0.0044
566.3393	0.0058
566.5329	0.0073
566.7264	0.008
566.92	0.0015
567.1136	-0.002
567.3071	-0.0049
567.5006	0.0167
567.6941	0.0027
567.8876	-0.0008
568.0811	0.0099
568.2745	-0.0045
568.468	0.0128
568.6614	0.0072
568.8548	0.0064
569.0482	0.0052
569.2416	0.0014
569.4349	0.0055
569.6283	0.0053
569.8216	0.0087
570.0149	0.0037
570.2082	0.0103
570.4015	0.007
570.5947	0.0029
570.788	0.0048
570.9812	0.0031
571.1744	0.005
571.3676	0.0048
571.5608	0.0005
571.754	0.0128
571.9471	0.0104
572.1402	0.0017
572.3333	0.0061
572.5264	0.0019
572.7195	0.0034
572.9126	-0.0001
573.1057	0.0035
573.2987	0.004
573.4917	0.0054
573.6847	0.0062
573.8777	0.0051
574.0707	0.0044
574.2636	0.0061
574.4566	0.0042
574.6495	0.003
574.8424	0.0055
575.0353	0.0075
575.2281	0.0024
575.421	0.0034
575.6138	0.0084
575.8067	0.0048
575.9995	0.0042
576.1923	0.0033
576.385	0.0038
576.5778	0.0066
576.7706	0.008
576.9633	0.0062
577.156	-0.0004
577.3487	0.0062
577.5414	0.0034
577.734	0.0038
577.9267	0.0063
578.1193	0.0085
578.3119	-0.0017
578.5045	0.0039
578.6971	0.0019
578.8897	0.004
579.0822	0.0065
579.2747	0.0055
579.4673	0.0059
579.6598	0.0088
579.8522	0.0037
580.0447	0.0076
580.2372	0.0074
580.4296	0.0102
580.622	0.0066
580.8144	0.0048
581.0068	0.005
581.1992	0.0063
581.3915	0.0001
581.5839	0.0039
581.7762	0.0045
581.9685	0.0054
582.1608	0.0035
582.353	0.0025
582.5453	0.0053
582.7375	0.0073
582.9298	0.0018
583.122	0.0012
583.3142	0.0078
583.5063	0.0043
583.6985	0.0024
583.8906	0.0038
584.0827	0.0042
584.2749	0.0037
584.4669	0.0028
584.659	0.007
584.8511	0.0081
585.0431	0.0106
585.2352	0.0036
585.4272	0.0066
585.6192	0.0087
585.8111	0.0055
586.0031	0.0017
586.195	0.0032
586.387	0
586.5789	0.006
586.7708	0.0096
586.9627	0.0062
587.1545	0.0071
587.3464	0.0027
587.5382	0.006
587.73	0.0069
587.9218	0.0049
588.1136	0.0009
588.3053	0.0064
588.4971	0.0019
588.6888	0.0003
588.8805	0.0008
589.0722	0.0144
589.2639	0.0002
589.4556	0.0014
589.6472	0.0061
589.8389	-0.0006
590.0305	0.0055
590.2221	0.0068
590.4137	0.002
590.6052	-0.0045
590.7968	0.0097
590.9883	0.0031
591.1798	0.007
591.3713	0.0023
591.5628	0.0028
591.7543	0.0047
591.9458	0.0021
592.1372	0.0072
592.3286	0.0058
592.52	0.0045
592.7114	0.0038
592.9028	0.0082
593.0941	0.0034
593.2855	-0
593.4768	0.0089
593.6681	0.0048
593.8594	0.0059
594.0506	0.0025
594.2419	0.0092
594.4331	0.002
594.6244	-0.0003
594.8156	0.0049
595.0067	0.0024
595.1979	-0.0026
595.3891	0.0056
595.5802	0.0053
595.7713	0.0088
595.9624	0.0113
596.1535	0.0032
596.3446	0.0005
596.5357	0.0107
596.7267	0.0076
596.9177	0.0022
597.1087	-0.0018
597.2997	0.0036
597.4907	0.0034
597.6817	0.0124
597.8726	0.0039
598.0635	0.0078
598.2544	0.0049
598.4453	0.0078
598.6362	0.0041
598.827	0.002
599.0179	0.006
599.2087	0.0095
599.3995	0.0054
599.5903	0.0106
599.7811	0.0124
599.9718	0.0033
600.1626	0.0045
600.3533	0.006
600.544	0.0053
600.7347	0.0025
600.9254	0.0113
601.116	0.0077
601.3067	0.0055
601.4973	0.0038
601.6879	0.0033
601.8785	0.0075
602.0691	0.0023
602.2596	0.0033
602.4502	0.0056
602.6407	0.0064
602.8312	0.0066
603.0217	0.0043
603.2122	0.0058
603.4027	0.0046
603.5931	0.0062
603.7835	0.0068
603.9739	0.0008
604.1643	0.0102
604.3547	0.0075
604.5451	0.0071
604.7354	-0.0011
604.9257	0.0053
605.116	0.0008
605.3063	0.0065
605.4966	0.0099
605.6869	0.0111
605.8771	0.005
606.0673	-0.0008
606.2575	0.0046
606.4477	0.0065
606.6379	-0.0007
606.8281	0.0024
607.0182	0.0098
607.2083	-0.0004
607.3985	0.0075
607.5885	0.0059
607.7786	0.0072
607.9687	0.0096
608.1587	0.0069
608.3488	0.0053
608.5388	0.0011
608.7288	-0.0003
608.9187	0.0039
609.1087	0.0119
609.2986	0.0124
609.4886	0.0063
609.6785	0.0012
609.8684	0.0037
610.0582	-0.0062
610.2481	0.0001
610.4379	0.0046
610.6278	0.0022
610.8176	0.0066
611.0074	0.0095
611.1971	0.0101
611.3869	0.0076
611.5766	0.0031
611.7664	0.0098
611.9561	0.0035
612.1458	0.01
612.3354	0.0091
612.5251	0.0077
612.7147	0.0117
612.9044	0.004
613.094	0.0103
613.2836	-0
613.4731	0.005
613.6627	0.0082
613.8522	0.0056
614.0417	0.0102
614.2313	0.0046
614.4207	0.0092
614.6102	0.0137
614.7997	0.014
614.9891	0.0032
615.1785	0.0003
615.3679	0.0078
615.5573	0.0054
615.7467	0.006
615.9361	0.0058
616.1254	0.0139
616.3147	-0.005
616.504	-0.0002
616.6933	0.0098
616.8826	0.0043
617.0718	0.0054
617.2611	0.0041
617.4503	0.003
617.6395	0.0106
617.8287	0.0063
618.0179	0.0072
618.207	0.0091
618.3961	0.0001
618.5853	-0.0037
618.7744	0.003
618.9634	0.0082
619.1525	0.0038
619.3416	0.009
619.5306	0.0058
619.7196	0.006
619.9086	0.0011
620.0976	-0.0029
620.2866	0.0075
620.4755	0.0014
620.6645	0.0143
620.8534	0.0106
621.0423	0.0022
621.2312	0.0087
621.42	0.0022
621.6089	0.0112
621.7977	-0.0018
621.9865	0.0004
622.1753	-0.002
622.3641	0.0053
622.5529	0.0094
622.7416	-0.0056
622.9303	0.0094
623.1191	0.0097
623.3078	0.0056
623.4964	0.0131
623.6851	0.0038
623.8737	0.0031
624.0624	-0.0083
624.251	0.0045
624.4396	-0.0001
624.6282	0.0092
624.8167	0.0077
625.0053	0.0097
625.1938	0.0014
625.3823	0.0122
625.5708	-0.0061
625.7593	0.0066
625.9477	0.01
626.1362	0.0006
626.3246	-0.0005
626.513	0.0076
626.7014	0.0134
626.8898	0.0069
627.0781	0.002
627.2665	0.0091
627.4548	-0.0123
627.6431	0.0054
627.8314	0.0146
628.0197	0.0104
628.2079	0.0111
628.3962	0.0043
628.5844	0.0081
628.7726	0.0038
628.9608	0.0145
629.1489	0.0101
629.3371	-0.0042
629.5252	0.0057
629.7134	-0.0017
629.9015	0.0194
630.0895	-0.0151
630.2776	0.0118
630.4657	0.0086
630.6537	0.015
630.8417	-0.0096
631.0297	0.0105
631.2177	0.0126
631.4057	0.0045
631.5936	0.0089
631.7815	0.0016
631.9695	0.0191
632.1574	0.0116
632.3452	0.0081
632.5331	0.0191
632.7209	0.0154
632.9088	0.0007
633.0966	0.0226
633.2844	-0.0001
633.4722	0.0055
633.6599	0.0284
633.8477	0.0147
634.0354	0.0181
634.2231	-0.0117
634.4108	0.0039
634.5985	0.0251
634.7861	-0.0017
634.9738	0.0099
635.1614	0.0205
635.349	0.0057
635.5366	0.0211
635.7242	0.0022
635.9117	0.0027
636.0993	0.0105
636.2868	0.0044
636.4743	0.0009
636.6618	-0.0023
636.8492	0.0108
637.0367	-0.0015
637.2241	0.0007
637.4115	0.0223
637.5989	-0.0007
637.7863	0.0302
637.9737	0.0036
638.161	0.0068
638.3484	-0.0099
638.5357	0.0178
638.723	0.0049
638.9103	-0.004
639.0975	-0.0027
639.2848	0.0197
639.472	0.0118
639.6592	-0.0112
639.8464	0.0088
640.0336	0.0061
640.2208	0.0155
640.4079	-0.0135
640.595	-0.0035
640.7821	0.0125
640.9692	0.0029
641.1563	0.0204
641.3434	0.0181
641.5304	0.0307
641.7174	0.0023
641.9044	0.0103
642.0914	0.0228
642.2784	0.0091
642.4653	-0.0065
642.6523	0.0126
642.8392	-0.0002
643.0261	0.0104
643.213	0.002
643.3999	0.0254
643.5867	0.0161
643.7735	-0.0005
643.9604	0.0267
644.1472	0.0094
644.3339	-0.0016
644.5207	0.0085
644.7075	0.0036
644.8942	0.0055
645.0809	0.0105
645.2676	-0.001
645.4543	0.0034
645.6409	0.0341
645.8276	0.0234
646.0142	0.0159
646.2008	-0.0076
646.3874	0.0036
646.574	0.0187
646.7605	0.0112
646.9471	-0.0171
647.1336	-0.0051
647.3201	0.032
647.5066	0.0049
647.6931	-0.0177
647.8795	0.0169
648.0659	0.006
648.2524	0.0286
648.4388	0.0016
648.6252	0.0089
648.8115	0.0115
648.9979	0.0165
649.1842	0.0176
649.3705	0.0193
649.5568	-0.0002
649.7431	0.0035
649.9294	0.0088
650.1156	-0.0106
650.3018	0.0128
650.488	0.0043
650.6742	0.0165
650.8604	-0.0017
651.0466	0.0094
651.2327	0.01
651.4188	0.0034
651.6049	0.0215
651.791	0.0098
651.9771	0.0111
652.1632	0.0152
652.3492	0.0055
652.5352	0.0207
652.7212	0.0049
652.9072	0.0031
653.0932	0.0206
653.2791	0.0094
653.465	0.0036
653.651	0.0179
653.8369	0.0017
654.0227	0.0032
654.2086	-0.0026
654.3944	0.0099
654.5803	-0.002
654.7661	0.007
654.9519	-0.0002
655.1377	0.0001
655.3234	0.0001
655.5092	0.0001
655.6949	0.0001
655.8806	0.0001
656.0663	0.0001
656.2519	0.0001
656.4376	0.0001
656.6232	0.0001
656.8088	0.0001
656.9945	0.0001
657.18	0.0001
657.3656	0.0001
657.5511	0.0001
657.7367	0.0001
657.9222	0.0001
658.1077	0.0001
658.2932	0.0001
658.4786	0.0001
658.6641	0.0001
658.8495	0.0001
659.0349	0.0001
659.2203	0.0001
659.4057	0.0001
659.591	0.1595
659.7764	0.017
659.9617	0.0163
660.147	0.0029
660.3323	0.0207
660.5176	-0.0022
660.7028	0.0034
660.888	0.0106
661.0733	0.0182
661.2585	-0.0211
661.4436	0.0126
661.6288	0.0315
661.8139	-0.0077
661.9991	-0.0119
662.1842	-0.0026
662.3693	-0.004
662.5544	0.023
662.7394	0.0011
662.9245	0.0014
663.1095	-0.0014
663.2945	-0.0084
663.4795	-0.0013
663.6644	0.007
663.8494	0.0197
664.0343	0.0164
664.2193	-0.0029
664.4042	-0.0007
664.589	0.0082
664.7739	0.0067
664.9587	0.0052
665.1436	-0.0096
665.3284	0.0043
665.5132	-0.0301
665.698	0.003
665.8827	0.0111
666.0675	-0.0155
666.2522	0.0161
666.4369	0.0043
666.6216	-0.007
666.8063	0.0301
666.9909	-0.0063
667.1756	-0.0139
667.3602	0.0208
667.5448	0.0126
667.7294	-0.0079
667.9139	0.007
668.0985	0.0014
668.283	0.0156
668.4675	0.0117
668.652	0.0052
668.8365	0.0183
669.0209	0.0013
669.2054	0.0048
669.3898	-0.0012
669.5742	0.0256
669.7586	0.0212
669.943	0.0031
670.1273	-0.009
670.3117	0.0049
670.496	0.0078
670.6803	0.0122
670.8646	-0.0154
671.0488	0.0274
671.2331	-0.0111
671.4173	0.0122
671.6015	0.0081
671.7857	0.006
671.9699	0.0069
672.1541	-0.0044
672.3382	0.0004
672.5223	0.013
672.7064	0.0071
672.8905	-0.0002
673.0746	0.0028
673.2587	0.0203
673.4427	0.0136
673.6267	0.0165
673.8107	0.0113
673.9947	0.0315
674.1787	0.0034
674.3626	0.0131
674.5465	0.0083
674.7304	0.0046
674.9143	0.0303
675.0982	0.0228
675.2821	0.0009
675.4659	0.0103
675.6497	-0.0118
675.8335	0.0159
676.0173	0.0006
676.2011	0.01
676.3849	0.0032
676.5686	0.0203
676.7523	0.006
676.936	0.0075
677.1197	-0.013
677.3034	0.0247
677.487	-0.0021
677.6706	0.0115
677.8542	-0.0065
678.0378	0.0096
678.2214	-0.0039
678.405	-0.0075
678.5885	0.0063
678.772	-0.0015
678.9555	-0.0012
679.139	0.021
679.3225	0.0109
679.5059	-0.0007
679.6894	0.0072
679.8728	-0.0034
680.0562	-0.0023
680.2395	0.0052
680.4229	0.0005
680.6062	0.004
680.7896	-0.0084
680.9729	0.0094
681.1562	0.0144
681.3394	0.0089
681.5227	0.0047
681.7059	0.0048
681.8891	0.0219
682.0723	0.0431
682.2555	0.0076
682.4387	0.0026
682.6218	0.0247
682.805	0.0401
682.9881	0.0212
683.1712	0.0269
683.3542	0.0194
683.5373	0.0042
683.7203	0.0042
683.9034	0.0049
684.0864	0.0073
684.2694	0.0135
684.4523	0.0129
684.6353	-0.0077
684.8182	-0.0037
685.0011	0.0108
685.184	0.0118
685.3669	0.029
685.5498	-0.0009
685.7326	0.0087
685.9154	0.0152
686.0982	0.0156
686.281	-0.008
686.4638	0.0042
686.6465	-0.0187
686.8293	-0.0127
687.012	0.016
687.1947	0.0047
687.3774	0.0312
687.56	0.0012
687.7427	0.0153
687.9253	-0.0081
688.1079	-0.0038
688.2905	0.0086
688.4731	0.0155
688.6556	0.0043
688.8382	-0.009
689.0207	0.0169
689.2032	0.0306
689.3857	0.0175
689.5681	0.0039
689.7506	0.0156
689.933	-0.0094
690.1154	0.0109
690.2978	-0.0052
690.4802	0.0233
690.6626	0.0129
690.8449	0.0155
691.0272	0.0069
691.2095	-0.0186
691.3918	0.0201
691.5741	0.0123
691.7563	0.0175
691.9386	0.0222
692.1208	0.0104
692.303	0.0188
692.4852	0.0103
692.6673	0.0095
692.8495	-0.0077
693.0316	0.0173
693.2137	0.0193
693.3958	0.0003
693.5778	0.0192
693.7599	-0.0013
693.9419	-0.0014
694.1239	0.0225
694.3059	0.0234
694.4879	0.0121
694.6699	0.0191
694.8518	0.0231
695.0337	0.0099
695.2157	0.0414
695.3975	-0.0085
695.5794	-0.0113
695.7613	0.0279
695.9431	0.0169
696.1249	0.0232
696.3067	0.0079
696.4885	0.0261
696.6703	-0.0012
696.852	-0.0021
697.0337	0.016
697.2154	0.0015
697.3971	0.002
697.5788	0.0116
697.7605	0.0003
697.9421	0.0235
698.1237	0.001
698.3053	-0.0112
698.4869	-0.0047
698.6685	0.0054
698.85	0.0366
699.0315	-0.0092
699.213	-0.0027
699.3945	-0.0023
699.576	0.0262
699.7575	0.0197
699.9389	0.002
700.1203	0.0259
700.3017	0.0217
700.4831	0.0134
700.6645	0.0192
700.8458	0.0012
701.0271	0.0481
701.2084	0.0147
701.3897	0.0091
701.571	0.0104
701.7523	0.0084
701.9335	0.0113
702.1147	0.0364
702.2959	-0.0114
702.4771	0.0179
702.6583	0.0148
702.8394	-0.0027
703.0205	-0.013
703.2016	-0.0159
703.3827	0.0086
703.5638	0.0057
703.7449	0.0242
703.9259	0.02
704.1069	-0.0065
704.2879	0.0363
704.4689	0.0134
704.6499	0.0163
704.8308	-0.0041
705.0117	-0.012
705.1927	0.0166
705.3735	-0.0155
705.5544	0.0174
705.7353	-0.0184
705.9161	-0.0029
706.0969	0.0159
706.2777	0.0006
706.4585	-0.0012
706.6393	0.0092
706.82	0.0106
707.0007	-0.0177
707.1815	0.0033
707.3621	0.0275
707.5428	0.0168
707.7235	-0.0066
707.9041	0.0011
708.0847	0.0145
708.2653	-0.0002
708.4459	0.0024
708.6265	0.0106
708.807	0.0141
708.9875	0.0141
709.168	0.0043
709.3485	0.0104
709.529	0.0392
709.7095	-0.0115
709.8899	0.0076
710.0703	0.0126
710.2507	0.0168
710.4311	-0.0133
710.6115	0.0123
710.7918	0.0271
710.9721	0.0056
711.1524	-0.0058
711.3327	0.0016
711.513	0.0196
711.6932	0.0297
711.8735	0.0374
712.0537	0.0252
712.2339	0.0057
712.4141	0.0153
712.5942	-0.0043
712.7744	0.0419
712.9545	0.0045
713.1346	0.0359
713.3147	-0.0061
713.4947	-0.0011
713.6748	0.0178
713.8548	0.0248
714.0348	0.0225
714.2148	0.0394
714.3948	0.0271
714.5748	0.0151
714.7547	0.017
714.9346	0.0189
715.1145	0.0104
715.2944	-0.0231
715.4743	0.0266
715.6541	-0.0017
715.834	0.039
716.0138	0.0039
716.1936	0.0297
716.3733	-0.0147
716.5531	0.029
716.7328	0.0273
716.9126	0.0259
717.0923	-0.0122
717.2719	0.0143
717.4516	0.0153
717.6312	0.0068
717.8109	0.0061
717.9905	0.0164
718.1701	0.0269
718.3496	-0.0112
718.5292	0.0088
718.7087	0.0114
718.8882	0.0058
719.0677	0.0195
719.2472	0.0114
719.4267	0.0102
719.6061	-0.0114
719.7856	0.0121
719.965	0.0085
720.1443	-0.0039
720.3237	-0.0047
720.5031	-0.0015
720.6824	-0.0003
720.8617	-0.0103
721.041	0.0154
721.2203	0.0115
721.3995	-0.012
721.5788	0.004
721.758	0.0144
721.9372	0.0131
722.1164	0.022
722.2956	0.0062
722.4747	0.0202
722.6538	-0.0083
722.8329	0.0131
723.012	-0.0088
723.1911	0.0022
723.3702	0.0262
723.5492	0.0198
723.7282	-0.0164
723.9072	0.0241
724.0862	-0.0347
724.2652	0.0275
724.4441	-0.0144
724.623	0.0065
724.8019	0.019
724.9808	0.0135
725.1597	0.0038
725.3385	0.0055
725.5174	0.0024
725.6962	0.0174
725.875	0.0273
726.0538	0.0127
726.2325	0.0218
726.4112	-0.0041
726.59	0.0169
726.7687	-0.0162
726.9474	-0.0119
727.126	0.0298
727.3047	0.0136
727.4833	-0.0007
727.6619	0.0029
727.8405	0.0287
728.0191	0.0091
728.1976	-0.0108
728.3762	-0.0018
728.5547	0.0103
728.7332	0.0035
728.9116	-0.0003
729.0901	0.0057
729.2686	0.0076
729.447	-0.0019
729.6254	0.0054
729.8038	0.0025
729.9821	0.008
730.1605	0.0058
730.3388	0.0019
730.5171	0.0123
730.6954	-0.0088
730.8737	0.0114
731.0519	-0.0142
731.2302	0.0121
731.4084	0.009
731.5866	-0.0103
731.7648	0.01
731.9429	0.013
732.1211	-0.0136
732.2992	0.0117
732.4773	0.0121
732.6554	-0.0031
732.8335	0.0085
733.0115	0.0048
733.1896	-0.0121
733.3676	0.0209
733.5456	-0.0047
733.7235	0.0145
733.9015	-0.0041
734.0794	-0.002
734.2574	-0.0221
734.4353	0.0136
734.6131	0.0039
734.791	0.0201
734.9689	0.0186
735.1467	-0.0136
735.3245	0.0274
735.5023	-0.0035
735.68	-0.0019
735.8578	0.0131
736.0355	-0.0008
736.2132	0.0051
736.3909	0.0135
736.5686	-0.0048
736.7463	0.0011
736.9239	0.0239
737.1015	-0.002
737.2791	0.0165
737.4567	0.0146
737.6343	0.0036
737.8118	0.0284
737.9894	0.0201
738.1669	0.016
738.3444	0.0167
738.5218	-0.0032
738.6993	0.0162
738.8767	0.0035
739.0541	0.006
739.2315	-0.0045
739.4089	0.0048
739.5863	0.0132
739.7636	0.0209
739.9409	-0.0014
740.1182	0.0133
740.2955	0.0348
740.4728	-0.0081
740.65	-0.0032
740.8272	0.015
741.0044	0.0027
741.1816	0.0006
741.3588	-0.0377
741.5359	0.0306
741.7131	0.0058
741.8902	0.0148
742.0673	-0.0094
742.2444	0.0321
742.4214	0.0096
742.5985	0.0196
742.7755	0.0083
742.9525	-0.0174
743.1295	-0.0338
743.3064	-0.0043
743.4834	0.0055
743.6603	0.0427
743.8372	-0.0067
744.0141	0.0274
744.191	0.0246
744.3678	-0.0361
744.5446	-0.0093
744.7215	0.037
744.8982	0.015
745.075	0.0298
745.2518	0.0315
745.4285	0.0211
745.6052	-0.0201
745.7819	-0.0037
745.9586	0.028
746.1353	-0.0179
746.3119	-0.0093
746.4885	0.0221
746.6651	0.0248
746.8417	-0.0033
747.0183	0.0224
747.1948	0.0132
747.3714	0.0019
747.5479	0.0336
747.7244	-0.0011
747.9008	0.0034
748.0773	0.0441
748.2537	0.0012
748.4301	0.026
748.6065	-0.0022
748.7829	-0.02
748.9593	0.012
749.1356	0.0108
749.3119	0.0129
749.4882	0.0223
749.6645	0.0132
749.8408	0.0171
750.017	0.0232
750.1933	-0.0067
750.3695	0.0096
750.5457	-0.008
750.7218	-0.0076
750.898	-0.0016
751.0741	-0.0069
751.2502	0.005
751.4263	0.0077
751.6024	0
751.7784	0.0007
751.9545	-0.004
752.1305	0.0186
752.3065	0.0119
752.4825	0.0057
752.6584	0.0075
752.8344	-0.0134
753.0103	-0.0197
753.1862	0.0145
753.3621	-0.0055
753.5379	0.0027
753.7138	0.0265
753.8896	-0.0124
754.0654	-0.014
754.2412	0.0304
754.417	0.0313
754.5927	-0.0054
754.7685	0.0064
754.9442	0.0348
755.1199	-0.0023
755.2956	0.016
755.4712	0.0176
755.6469	0.0123
755.8225	-0.0091
755.9981	-0.002
756.1736	0.001
756.3492	0.0253
756.5248	0.0089
756.7003	-0.0028
756.8758	-0.0004
757.0513	0.0127
757.2267	0.013
757.4022	-0.0094
757.5776	0.0136
757.753	0.0258
757.9284	-0.0026
758.1038	0.0207
758.2791	0.0061
758.4545	-0.0139
758.6298	0.0062
758.8051	0.0236
758.9803	-0.0038
759.1556	0.0044
759.3308	-0.0009
759.506	-0.0117
759.6812	0.0039
759.8564	0.0089
760.0316	-0.0101
760.2067	0.0089
760.3819	0.0145
760.557	0.0109
760.732	0.0002
760.9071	0.0078
761.0821	-0.0168
761.2572	-0.0114
761.4322	0.031
761.6072	0.017
761.7821	-0.0125
761.9571	0.0319
762.132	0.0136
762.3069	0.0087
762.4818	0.03
762.6567	0.0037
762.8316	0.0109
763.0064	0.0219
763.1812	-0.0028
763.356	0.0238
763.5308	0.0138
763.7055	0.0133
763.8803	-0.0088
764.055	-0.012
764.2297	-0.015
764.4044	-0.0015
764.579	0.0007
764.7537	0.0024
764.9283	0.0188
765.1029	-0.0028
765.2775	0.0026
765.4521	0.0068
765.6266	-0.0034
765.8011	0.0142
765.9756	0.0117
766.1501	-0.0054
766.3246	0.0157
766.4991	0.0112
766.6735	0.0523
766.8479	0.0287
767.0223	0.0213
767.1967	0.0156
767.371	0.0217
767.5454	0.0402
767.7197	0.0445
767.894	-0.006
768.0683	0.0411
768.2425	0.0139
768.4168	0.0091
768.591	0.0004
768.7652	-0.0071
768.9394	-0.0192
769.1135	-0.0136
769.2877	0.0197
769.4618	0.0174
769.6359	0.0106
769.81	0.0359
769.984	-0.0037
770.1581	-0.007
770.3321	0.0244
770.5061	-0.0113
770.6801	0.0088
770.8541	-0.0031
771.028	0.0486
771.202	0.0205
771.3759	0.0239
771.5498	0.039
771.7236	0.0109
771.8975	0.022
772.0713	0.0551
772.2451	0.0129
772.4189	0.0302
772.5927	0.0011
772.7665	0.0005
772.9402	0.021
773.1139	0.0017
773.2876	0.0034
773.4613	0.0179
773.635	0.0431
773.8086	0.0328
773.9822	0.0172
774.1558	0.0341
774.3294	0.0069
774.503	-0.0182
774.6765	0.0181
774.8501	-0.0094
775.0236	0.0268
775.1971	0.0101
775.3705	0.0087
775.544	-0.0628
775.7174	0.0244
775.8908	0.0053
776.0642	0.005
776.2376	0.0411
776.4109	0.0203
776.5843	-0.0213
776.7576	0.0271
776.9309	0.0657
777.1041	0.0173
777.2774	0.0345
777.4506	0.0078
777.6238	0.0089
777.797	0.0165
777.9702	0.0208
778.1434	-0.0061
778.3165	0.0132
778.4896	-0.0241
778.6627	0.015
778.8358	-0.008
779.0089	-0.0351
779.1819	0.0283
779.3549	0.0106
779.5279	-0.0012
779.7009	0.0309
779.8739	0.0534
780.0468	0.0509
780.2197	0.024
780.3926	0.0007
780.5655	0.02
780.7384	-0.0051
780.9112	0.0271
781.0841	0.0052
781.2569	0.0279
781.4297	0.0088
781.6024	0.0182
781.7752	0.0323
781.9479	0.074
782.1206	-0.0052
782.2933	0
782.466	0.0141
782.6386	0.0122
782.8113	0.0351
782.9839	-0.0052
783.1565	0.0344
783.329	0.0136
783.5016	-0.0307
783.6741	-0.0006
783.8466	0.0429
784.0191	-0.0067
784.1916	-0.0362
784.3641	-0.0675
784.5365	-0.0052
784.7089	-0.0155
784.8813	0.0679
785.0537	0.0794
785.2261	0.0331
785.3984	0.0169
785.5707	-0.0299
785.743	0.0088
785.9153	-0.0022
786.0876	-0.0193
786.2598	0.0016
786.432	0.0301
786.6042	0.0564
786.7764	-0.0086
786.9486	-0.0287
787.1207	0.0381
787.2928	0.0458
787.4649	-0.0158
787.637	-0.0334
787.8091	0.018
787.9811	0.0422
788.1532	-0.0022
788.3252	0.0077
788.4972	-0.0092
788.6691	-0.0109
788.8411	-0.0053
789.013	0.0026
789.1849	-0.0146
789.3568	0.026
789.5287	0.074
789.7005	-0.0175
789.8723	-0.011
790.0442	0.0051
790.2159	-0.004
790.3877	0.0652
790.5595	0.0833
790.7312	-0.0059
790.9029	-0.0248
791.0746	0.0024
791.2463	-0.0068
791.4179	0.0129
791.5896	-0.0125
791.7612	0.029
791.9328	0.0064
792.1044	-0.0078
792.2759	-0.0748
792.4474	0.0203
792.619	0.0093
792.7905	-0.021
792.9619	0.0505
793.1334	0.0537
793.3048	0.0572
793.4762	0.0692
793.6476	-0.0155
793.819	-0.0137
793.9904	-0.0054
794.1617	-0.0194
794.333	0.0154
794.5043	0.0297
794.6756	0.01
794.8469	0.0219
795.0181	0.0207
795.1893	0.0425
795.3605	0.0207
795.5317	0.0081
795.7029	0.006
795.874	-0.0055
796.0452	0.0145
796.2163	0.1336
796.3873	0.0882
796.5584	0.005
796.7294	-0.0245
796.9005	-0.0157
797.0715	0.0146
797.2425	0.1107
797.4134	0.0471
797.5844	0.014
797.7553	-0.0979
797.9262	0.0447
798.0971	0.038
798.2679	0.0136
798.4388	0.0776
798.6096	-0.012
798.7804	0.0125
798.9512	0.0764
799.122	-0.0461
799.2927	0.0925
799.4635	-0.0145
799.6342	-0.0193
799.8049	0.0641
799.9755	-0.0943
800.1462	0.0356
800.3168	0.0546
800.4874	-0.0154
800.658	0.0263
800.8286	0.0224
800.9991	0.0378
801.1696	-0.0388
801.3402	0.0042
801.5106	0.0859
801.6811	-0.0702
801.8516	0.0582
802.022	0.0039
802.1924	0.0652
802.3628	0.05
802.5332	0.0583
802.7035	0.1134
802.8739	0.043
803.0442	-0.0217
803.2145	-0.0096
803.3847	0.0911
803.555	0.0241
803.7252	-0.0051
803.8954	0.0001
804.0656	0.0565
804.2358	0.0712
804.4059	0.1269
804.5761	0.0255
804.7462	0.0287
804.9163	0.0161
805.0864	0.0441
805.2564	0.0235
805.4264	0.0256
805.5965	0.0058
805.7665	-0.025
805.9364	-0.003
806.1064	-0.0069
806.2763	0.001
806.4462	0.0469
806.6161	0.0152
806.786	0.0237
806.9559	0.0169
807.1257	-0.0255
807.2955	-0.0568
807.4653	0.0711
807.6351	0.0291
807.8048	0.0042
807.9746	0.0114
808.1443	0.018
808.314	0.0367
808.4837	0.0762
808.6533	-0.0137
808.8229	-0.004
808.9926	0.0582
809.1622	0.059
809.3317	-0.0134
809.5013	0.002
809.6708	-0.0015
809.8403	0.0303
810.0098	-0.0034
810.1793	0.0305
810.3488	-0.042
810.5182	0.0731
810.6876	0.0139
810.857	-0.0318
811.0264	-0.0023
811.1958	0.0443
811.3651	-0.055
811.5344	0.0592
811.7037	-0.0044
811.873	0.0728
812.0422	-0.0308
812.2115	0.0217
812.3807	-0.0878
812.5499	-0.0779
812.7191	0.0003
812.8882	-0.1148
813.0574	-0.0024
813.2265	-0.0814
813.3956	0.0533
813.5646	0.0851
813.7337	0.0596
813.9027	-0.1131
814.0718	-0.0013
814.2407	0.0335
814.4097	0.0938
814.5787	0.0882
814.7476	-0.0267
814.9165	-0.0499
815.0854	0.0524
815.2543	0.0497
815.4232	0.0987
815.592	0.0566
815.7608	0.0517
815.9296	0.0697
816.0984	0.103
816.2671	-0.1992
816.4359	-0.0315
816.6046	-0.0118
816.7733	-0.1821
816.942	-0.0478
817.1106	0.1459
817.2793	-0.0357
817.4479	0.0553
817.6165	-0.0476
817.785	0.0658
817.9536	-0.0676
818.1221	0.0574
818.2906	-0.0764
818.4591	-0.056
818.6276	-0.0282
818.7961	0.108
818.9645	0.0458
819.1329	0.0988
819.3013	0.0099
819.4697	-0.1141
819.638	0.2565
819.8064	0.0752
819.9747	0.0871
820.143	-0.1407
820.3113	0.1395
820.4795	0.0522
820.6477	0.081
820.816	0.0738
820.9842	0.0655
821.1523	0.1194
821.3205	0.1024
821.4886	0.0525
821.6567	-0.0022
821.8248	0.1559
821.9929	-0.1463
822.1609	-0.0679
822.329	0.0572
822.497	0.0665
822.665	0.1183
822.833	0.0195
823.0009	0.0332
823.1688	0.1818
823.3367	-0.0801
823.5046	0.0342
823.6725	-0.0374
823.8404	-0.0902
824.0082	-0.0798
824.176	0.33
824.3438	0.0496
824.5116	0.0405
824.6793	0.0371
824.847	-0.1074
825.0147	0.0913
825.1824	0.1036
825.3501	0.0538
825.5177	0.0003
825.6854	-0.1137
825.853	0.0641
826.0206	-0.0633
826.1881	0.0669
826.3557	0.0863
826.5232	0.1954
826.6907	0.1506
826.8582	-0.0669
827.0257	0.0992
827.1931	0.1094
827.3605	-0.011
827.528	-0.0149
827.6953	-0.0867
827.8627	0.0404
828.03	0.1044
828.1974	0.0388
828.3647	0.0549
828.532	0.0035
828.6992	0.0576
828.8665	-0.2084
829.0337	0.2401
829.2009	-0.0189
829.3681	0.1836
829.5352	-0.1712
829.7024	0.8368
829.8695	0.1073
830.0366	0.0881
830.2037	0.1384
830.3707	0.029
830.5378	-0.1747
830.7048	-0.1607
830.8718	0.1362
831.0388	-0.1278
831.2057	0.0637
831.3727	0.1386
831.5396	0.1427
831.7065	-0.7782
831.8734	0.5995
832.0402	0.3672
832.2071	-0.2686
832.3739	-0.0431
832.5407	-1.4244
832.7075	-0.2573
832.8742	0.1087
833.041	0.5763
833.2077	0.2487
833.3744	0.1328
833.541	0.3532
833.7077	-0.0895
833.8743	-0.0435
834.0409	0.1258
834.2075	0.016
834.3741	0.0777
834.5407	0.0553
834.7072	0.1465
834.8737	0.183
835.0402	0.4028
835.2067	-0.0781
835.3731	0.0706
835.5395	0.0995
835.706	0.6081
835.8723	0.0779
836.0387	0.0536
836.2051	0.7513
836.3714	0.1853
836.5377	-0.0858
836.704	0.0286
836.8703	-0.263
837.0365	-0.5595
837.2027	0.0253
837.3689	0.3584
837.5351	-0.0578
837.7013	0.0008
837.8674	-0.2646
838.0335	0.0618
838.1997	-0.1534
838.3657	0.8209
838.5318	-0.6035
838.6978	-0
838.8639	-0.3593
839.0299	0.2067
839.1958	0.1596
839.3618	0.223
839.5277	0.0267
839.6937	0.2865
839.8596	0.5114
840.0254	0.1875
840.1913	0.0789
840.3571	-0.0187
840.523	-0
840.6888	-0.1079
840.8545	-0.2072
841.0203	0.1519
841.186	-0.0742
841.3517	-0.0264
841.5174	0.1073
841.6831	0.6059
841.8488	0.0007
842.0144	0.0311
842.18	-0.0313
842.3456	-0.7295
842.5112	-0
842.6767	1.3844
842.8422	0.2
843.0077	0.0362
843.1732	-0.2939
843.3387	0.5353
843.5042	0.6148
843.6696	-0
843.835	-0.0466
844.0004	-0.2065
844.1657	-0
844.3311	0.6486
844.4964	-0.2567
844.6617	0.2011
844.827	0.7964
844.9923	0.3556
845.1575	-0.3383
845.3227	-0.4476
845.4879	-0.2861
845.6531	0.0291
845.8183	-0.1184
845.9834	-0
846.1485	0.3971
846.3136	-0.0734
846.4787	-0
846.6438	-0.0725
846.8088	-0
846.9738	-0
847.1388	0.3282
847.3038	0.0777
847.4687	-0
847.6337	-0.4737
847.7986	0.0306
847.9635	-0.1437
848.1284	1.3915
848.2932	0.3384
848.458	-0
848.6228	-0
848.7876	-0
848.9524	-0
849.1172	-0.9744
849.2819	-0
849.4466	0.3046
849.6113	-0.0153
849.7759	-0
849.9406	-0.0374
850.1052	-0.7782
850.2698	-0.2289
850.4344	-0.6044
850.599	-0.139
850.7635	-0.048
850.928	0.4225
851.0925	0.6899
851.257	0.5353
851.4215	1.0875
851.5859	0.1198
851.7503	-0
851.9147	-0
852.0791	-0.0403
852.2434	0.3391
852.4078	-0.1444
852.5721	-0
852.7364	-0
852.9007	-0.1404
853.0649	-0
853.2291	0.4779
853.3934	-0
853.5575	0.5973
853.7217	-0
853.8859	-0
854.05	-0
854.2141	0.5848
854.3782	-0.3948
854.5423	-0.2392
854.7063	0.8553
854.8703	-0.0069
855.0343	-0.1909
855.1983	0.0401
855.3623	0.7831
855.5262	1.5163
855.6901	0.0951
855.854	0.3685
856.0179	-0.254
856.1818	0.297
856.3456	0.2586
856.5094	-0
856.6732	0.1686
856.837	-0.1319
857.0008	-0.0441
857.1645	0.3142
857.3282	-0.2427
857.4919	-0.0779
857.6556	0.3157
857.8192	-0.4257
857.9828	-0.0316
858.1465	0.0011
858.31	-0
858.4736	-0.043
858.6372	0.0788
858.8007	0.1323
858.9642	0.1666
859.1277	0.3135
859.2911	-0.2916
859.4546	-0
859.618	0.6683
859.7814	-0
859.9448	-0
860.1081	-0
860.2715	-0
860.4348	0.0418
860.5981	0.0805
860.7614	-0
860.9246	0.0278
861.0879	-0.1808
861.2511	-0
861.4143	-0.0792
861.5774	-0.0326
861.7406	-0
861.9037	-0
862.0668	-0
862.2299	-0.1405
862.393	-0.0278
862.556	-0
862.7191	-0.4357
862.8821	0.2557
863.0451	-0
863.208	-0.2524
863.371	-0.5362
863.5339	0.2197
863.6968	-0
863.8597	-0.3192
864.0225	-0.2605
864.1854	-0.2969
864.3482	-0.4007
864.511	-0
864.6737	-0
864.8365	-0.0935
864.9992	-0
865.1619	-0.1398
865.3246	-1.9657
865.4873	-0
865.65	0.2651
865.8126	-0
865.9752	-0
866.1378	0.009
866.3004	-0.0558
866.4629	-1.7324
866.6254	-0
866.7879	0.5732
866.9504	-0
867.1129	0.2344
867.2753	-0.0882
867.4377	-0
867.6001	-0.6372
867.7625	-0.041
867.9249	0.1635
868.0872	0.1444
868.2495	0.6681
868.4118	-0.2621
868.5741	-0
868.7363	-0
868.8986	-0.7423
869.0608	-0
869.223	-0.1994
869.3851	-0.2601
869.5473	-0.0777
869.7094	-0
869.8715	-0
870.0336	0.0229
870.1957	-0
870.3577	-0
870.5197	-0.0993
870.6817	-0.2785
870.8437	0.0789
871.0057	-0
871.1676	0.2441
871.3295	-0.6341
871.4914	-0
871.6533	-0.3974
871.8151	0.9474
871.977	-0
872.1388	-0.1474
872.3006	-0.4252
872.4623	-0.789
872.6241	-0
872.7858	1.0875
872.9475	0.7282
873.1092	1.0749
873.2709	0.397
873.4325	-1.6573
873.5941	-0
873.7557	-0
873.9173	-0.0408
874.0789	0.1603
874.2404	-0
874.4019	-0.007
874.5634	-0
874.7249	0.4933
874.8863	-0.5111
875.0478	-0.2688
875.2092	0.8315
875.3706	0.0742
875.5319	-0
875.6933	-0
875.8546	-0
876.0159	0.2544
876.1772	-0
876.3385	0.1991
876.4997	1.3234
876.6609	0.6322
876.8221	0.939
876.9833	-0
877.1445	1.2308
877.3056	-0.3282
877.4667	-0
877.6278	1.35
877.7889	0.0166
877.9499	-0
878.111	-0.5645
878.272	-0.1965
878.433	-0
878.5939	0.1006
878.7549	-0
878.9158	0.2338
879.0767	-0
879.2376	-0
879.3984	-0
879.5593	1.0959
879.7201	0.0669
879.8809	0.0293
880.0417	-0.3895
880.2024	0.4344
880.3632	-0.1265
880.5239	-0.0971
880.6846	-0
880.8452	-0.0263
881.0059	-0
881.1665	-0.1644
881.3271	0.3346
881.4877	-0.1005
881.6483	-0.8699
881.8088	-0
881.9693	-0
882.1298	-0
882.2903	-0
