Data from D4ACN5uM440nmA_Absorbance_13-50-26-482.txt Node
Date: Fri Feb 21 13:50:26 GMT 2025
User: LASERRRRR
Spectrometer: FLMT03099
Trigger mode: 0
Integration Time (sec): 1.500000E-2
Scans to average: 1
Electric dark correction enabled: true
Nonlinearity correction enabled: false
Boxcar width: 0
XAxis mode: Wavelengths
Number of Pixels in Spectrum: 3648
>>>>>Begin Spectral Data<<<<<
179.3399	-0.6354
179.5586	-0.6354
179.7771	-0.6354
179.9957	-0.2685
180.2143	-1.4314
180.4329	-0
180.6514	-0
180.8699	-0
181.0885	-0
181.307	0.2627
181.5255	-0.0182
181.744	-0
181.9625	0.6555
182.181	0.1578
182.3994	-0.5523
182.6179	-0.3925
182.8363	-0
183.0547	-0
183.2732	0.2601
183.4916	0.0794
183.71	0.0613
183.9284	0.0644
184.1467	0.1245
184.3651	-0.0133
184.5835	0.1451
184.8018	0.1504
185.0201	-0.0453
185.2385	0.1868
185.4568	0.1056
185.6751	0.14
185.8934	-0.1139
186.1117	-0.154
186.3299	0.1513
186.5482	0.1616
186.7664	0.2177
186.9847	-0.1385
187.2029	0.1433
187.4211	0.0141
187.6393	0.0394
187.8575	0.4673
188.0757	2.2026
188.2939	-0.0195
188.512	0.1954
188.7302	0.3188
188.9483	1.7508
189.1665	0.7446
189.3846	0.0918
189.6027	0.0448
189.8208	0.189
190.0389	0.0816
190.257	0.0467
190.475	0.0614
190.6931	0.0957
190.9111	0.0923
191.1292	0.2108
191.3472	0.246
191.5652	0.2001
191.7832	0.1604
192.0012	0.1315
192.2192	0.1115
192.4371	0.2733
192.6551	0.1804
192.873	0.1922
193.091	0.1346
193.3089	0.0858
193.5268	0.1752
193.7447	0.1415
193.9626	0.1797
194.1805	0.2973
194.3984	0.2318
194.6162	0.2338
194.8341	0.3415
195.0519	0.2273
195.2697	0.23
195.4875	0.2609
195.7054	0.3011
195.9231	0.2535
196.1409	0.3217
196.3587	0.3224
196.5765	0.2396
196.7942	0.2913
197.012	0.3319
197.2297	0.3362
197.4474	0.3579
197.6651	0.3195
197.8828	0.2895
198.1005	0.4344
198.3182	0.3722
198.5358	0.3435
198.7535	0.4442
198.9711	0.401
199.1888	0.3488
199.4064	0.4134
199.624	0.3469
199.8416	0.3423
200.0592	0.4252
200.2767	0.398
200.4943	0.4277
200.7119	0.3957
200.9294	0.4651
201.1469	0.3949
201.3645	0.4634
201.582	0.3866
201.7995	0.3843
202.017	0.4222
202.2344	0.4177
202.4519	0.4017
202.6694	0.4159
202.8868	0.3672
203.1042	0.406
203.3217	0.4171
203.5391	0.3968
203.7565	0.3811
203.9739	0.366
204.1913	0.3471
204.4086	0.3734
204.626	0.3599
204.8433	0.3575
205.0607	0.3584
205.278	0.3503
205.4953	0.3452
205.7126	0.3315
205.9299	0.3097
206.1472	0.3128
206.3644	0.337
206.5817	0.3224
206.7989	0.3033
207.0162	0.3207
207.2334	0.3362
207.4506	0.3096
207.6678	0.3019
207.885	0.2967
208.1022	0.3057
208.3194	0.2703
208.5365	0.3186
208.7537	0.2844
208.9708	0.3083
209.1879	0.2885
209.405	0.2783
209.6222	0.2698
209.8392	0.2843
210.0563	0.2772
210.2734	0.2641
210.4905	0.2758
210.7075	0.2807
210.9245	0.2639
211.1416	0.2579
211.3586	0.2495
211.5756	0.2534
211.7926	0.2569
212.0096	0.2598
212.2265	0.2455
212.4435	0.2442
212.6604	0.2498
212.8774	0.2363
213.0943	0.2503
213.3112	0.2489
213.5281	0.2321
213.745	0.2342
213.9619	0.2777
214.1788	0.2508
214.3956	0.229
214.6125	0.2489
214.8293	0.2495
215.0461	0.2426
215.2629	0.2573
215.4798	0.2529
215.6965	0.2446
215.9133	0.2416
216.1301	0.2446
216.3469	0.2528
216.5636	0.2368
216.7803	0.2391
216.9971	0.2473
217.2138	0.2479
217.4305	0.2553
217.6472	0.2488
217.8639	0.2489
218.0805	0.2527
218.2972	0.2482
218.5138	0.2362
218.7305	0.2601
218.9471	0.2368
219.1637	0.2627
219.3803	0.2569
219.5969	0.2496
219.8135	0.2575
220.0301	0.2525
220.2466	0.2433
220.4632	0.2472
220.6797	0.2625
220.8962	0.2578
221.1127	0.2653
221.3292	0.2575
221.5457	0.2783
221.7622	0.2726
221.9787	0.2821
222.1951	0.28
222.4116	0.2773
222.628	0.2825
222.8444	0.274
223.0608	0.2719
223.2772	0.2782
223.4936	0.2785
223.71	0.2791
223.9264	0.2796
224.1427	0.2771
224.3591	0.2847
224.5754	0.2864
224.7917	0.2904
225.008	0.2883
225.2243	0.3048
225.4406	0.2901
225.6569	0.2926
225.8732	0.2981
226.0894	0.3035
226.3057	0.2971
226.5219	0.3095
226.7381	0.3178
226.9543	0.306
227.1705	0.317
227.3867	0.3213
227.6029	0.3249
227.8191	0.3362
228.0352	0.3474
228.2513	0.3411
228.4675	0.3467
228.6836	0.3434
228.8997	0.3356
229.1158	0.3423
229.3319	0.3615
229.548	0.3499
229.764	0.352
229.9801	0.3634
230.1961	0.3759
230.4121	0.3718
230.6282	0.3909
230.8442	0.3832
231.0602	0.3749
231.2761	0.3729
231.4921	0.3844
231.7081	0.4033
231.924	0.3933
232.14	0.4
232.3559	0.4004
232.5718	0.4129
232.7877	0.4015
233.0036	0.4107
233.2195	0.4112
233.4353	0.4232
233.6512	0.4197
233.867	0.4179
234.0829	0.4204
234.2987	0.4249
234.5145	0.4357
234.7303	0.4315
234.9461	0.4354
235.1619	0.4307
235.3776	0.4427
235.5934	0.4216
235.8091	0.4387
236.0249	0.441
236.2406	0.4429
236.4563	0.4477
236.672	0.4353
236.8877	0.4352
237.1034	0.4485
237.319	0.4354
237.5347	0.4547
237.7503	0.433
237.966	0.4593
238.1816	0.4511
238.3972	0.4535
238.6128	0.4614
238.8284	0.4586
239.0439	0.4611
239.2595	0.4682
239.475	0.4645
239.6906	0.451
239.9061	0.467
240.1216	0.459
240.3371	0.4593
240.5526	0.4515
240.7681	0.4593
240.9836	0.4548
241.199	0.4475
241.4145	0.4551
241.6299	0.4582
241.8453	0.4325
242.0607	0.435
242.2761	0.4407
242.4915	0.4234
242.7069	0.417
242.9223	0.4224
243.1376	0.409
243.353	0.4023
243.5683	0.4069
243.7836	0.3962
243.9989	0.3795
244.2142	0.3857
244.4295	0.3742
244.6448	0.3767
244.86	0.3526
245.0753	0.353
245.2905	0.3444
245.5057	0.3374
245.721	0.3392
245.9362	0.3321
246.1514	0.3276
246.3665	0.3156
246.5817	0.3076
246.7969	0.3008
247.012	0.2981
247.2271	0.2978
247.4423	0.2839
247.6574	0.2892
247.8725	0.2767
248.0876	0.2727
248.3026	0.2717
248.5177	0.2552
248.7328	0.2577
248.9478	0.2511
249.1628	0.248
249.3779	0.2411
249.5929	0.2409
249.8079	0.2395
250.0228	0.2291
250.2378	0.232
250.4528	0.229
250.6677	0.2311
250.8827	0.2175
251.0976	0.2113
251.3125	0.2191
251.5274	0.2198
251.7423	0.211
251.9572	0.2117
252.172	0.2054
252.3869	0.2014
252.6017	0.2022
252.8166	0.2022
253.0314	0.1972
253.2462	0.1968
253.461	0.1941
253.6758	0.1996
253.8906	0.1873
254.1053	0.1979
254.3201	0.1893
254.5348	0.1841
254.7496	0.1838
254.9643	0.1943
255.179	0.1859
255.3937	0.1843
255.6083	0.1939
255.823	0.1806
256.0377	0.1794
256.2523	0.1846
256.467	0.1879
256.6816	0.1817
256.8962	0.1846
257.1108	0.1909
257.3254	0.1785
257.54	0.1783
257.7545	0.1871
257.9691	0.1825
258.1836	0.1731
258.3981	0.1747
258.6127	0.1803
258.8272	0.18
259.0417	0.1709
259.2561	0.1778
259.4706	0.1767
259.6851	0.1775
259.8995	0.1799
260.114	0.1802
260.3284	0.1739
260.5428	0.1726
260.7572	0.1725
260.9716	0.1835
261.186	0.1775
261.4003	0.1761
261.6147	0.175
261.829	0.184
262.0433	0.1855
262.2577	0.1812
262.472	0.178
262.6863	0.1817
262.9005	0.1805
263.1148	0.1795
263.3291	0.1789
263.5433	0.1826
263.7576	0.1823
263.9718	0.1823
264.186	0.1814
264.4002	0.1834
264.6144	0.1874
264.8286	0.1823
265.0427	0.185
265.2569	0.1892
265.471	0.1847
265.6851	0.1888
265.8993	0.1787
266.1134	0.1883
266.3275	0.181
266.5415	0.1878
266.7556	0.1889
266.9697	0.1885
267.1837	0.1909
267.3978	0.1865
267.6118	0.1829
267.8258	0.1939
268.0398	0.1914
268.2538	0.188
268.4677	0.1866
268.6817	0.1855
268.8957	0.1792
269.1096	0.1838
269.3235	0.1817
269.5374	0.1857
269.7514	0.1823
269.9652	0.1789
270.1791	0.1789
270.393	0.1805
270.6068	0.1839
270.8207	0.1788
271.0345	0.1783
271.2483	0.1754
271.4622	0.1825
271.676	0.1783
271.8897	0.1734
272.1035	0.1827
272.3173	0.18
272.531	0.182
272.7448	0.1756
272.9585	0.1763
273.1722	0.1746
273.3859	0.1864
273.5996	0.1833
273.8133	0.185
274.0269	0.1785
274.2406	0.1854
274.4542	0.1877
274.6679	0.1882
274.8815	0.1876
275.0951	0.1883
275.3087	0.1851
275.5223	0.1878
275.7358	0.1815
275.9494	0.1989
276.1629	0.1899
276.3765	0.189
276.59	0.1843
276.8035	0.189
277.017	0.1953
277.2305	0.1919
277.444	0.1953
277.6574	0.194
277.8709	0.1971
278.0843	0.1944
278.2978	0.1948
278.5112	0.1939
278.7246	0.1988
278.938	0.1947
279.1513	0.1949
279.3647	0.1966
279.5781	0.1893
279.7914	0.191
280.0047	0.1907
280.2181	0.1843
280.4314	0.1924
280.6447	0.1931
280.8579	0.1901
281.0712	0.1872
281.2845	0.1853
281.4977	0.1906
281.711	0.1849
281.9242	0.1878
282.1374	0.1857
282.3506	0.1912
282.5638	0.1894
282.7769	0.18
282.9901	0.1873
283.2033	0.1906
283.4164	0.1866
283.6295	0.1848
283.8426	0.1825
284.0557	0.1932
284.2688	0.1906
284.4819	0.1829
284.695	0.1901
284.908	0.1799
285.1211	0.1844
285.3341	0.1773
285.5471	0.188
285.7601	0.1861
285.9731	0.1861
286.1861	0.187
286.3991	0.1896
286.612	0.1882
286.825	0.1863
287.0379	0.1875
287.2508	0.1882
287.4637	0.1909
287.6766	0.1841
287.8895	0.1898
288.1024	0.1884
288.3152	0.191
288.5281	0.1799
288.7409	0.195
288.9538	0.1867
289.1666	0.1821
289.3794	0.1919
289.5922	0.1875
289.8049	0.1866
290.0177	0.1818
290.2304	0.1873
290.4432	0.1892
290.6559	0.1922
290.8686	0.1845
291.0813	0.1905
291.294	0.193
291.5067	0.1867
291.7194	0.1836
291.932	0.1879
292.1447	0.1879
292.3573	0.1866
292.5699	0.1891
292.7825	0.1833
292.9951	0.1844
293.2077	0.1857
293.4203	0.1868
293.6328	0.1862
293.8454	0.1893
294.0579	0.1898
294.2704	0.1896
294.4829	0.1814
294.6954	0.1874
294.9079	0.1849
295.1204	0.1777
295.3328	0.1883
295.5453	0.1868
295.7577	0.1852
295.9701	0.185
296.1825	0.1854
296.3949	0.1835
296.6073	0.1843
296.8197	0.1848
297.0321	0.1879
297.2444	0.181
297.4567	0.1893
297.6691	0.1816
297.8814	0.1814
298.0937	0.1806
298.306	0.1857
298.5182	0.1934
298.7305	0.1857
298.9428	0.185
299.155	0.1836
299.3672	0.1855
299.5794	0.1868
299.7916	0.186
300.0038	0.1884
300.216	0.1845
300.4282	0.1886
300.6403	0.1905
300.8525	0.1911
301.0646	0.1875
301.2767	0.1851
301.4888	0.189
301.7009	0.1828
301.913	0.1897
302.125	0.1819
302.3371	0.1857
302.5491	0.19
302.7612	0.1903
302.9732	0.1857
303.1852	0.1841
303.3972	0.185
303.6092	0.1866
303.8211	0.1909
304.0331	0.1852
304.245	0.1917
304.457	0.1886
304.6689	0.1819
304.8808	0.1818
305.0927	0.1892
305.3046	0.1826
305.5164	0.1797
305.7283	0.1741
305.9401	0.1741
306.152	0.1775
306.3638	0.1756
306.5756	0.1766
306.7874	0.1757
306.9992	0.1713
307.2109	0.1726
307.4227	0.1668
307.6344	0.1774
307.8462	0.1685
308.0579	0.1669
308.2696	0.1663
308.4813	0.1683
308.693	0.1631
308.9046	0.1661
309.1163	0.1584
309.328	0.1597
309.5396	0.1547
309.7512	0.1535
309.9628	0.1557
310.1744	0.1507
310.386	0.1491
310.5976	0.1509
310.8091	0.1514
311.0207	0.1521
311.2322	0.1482
311.4437	0.1413
311.6552	0.1482
311.8667	0.1452
312.0782	0.1409
312.2897	0.1422
312.5012	0.1415
312.7126	0.1373
312.924	0.1449
313.1355	0.1435
313.3469	0.1365
313.5583	0.1379
313.7696	0.1378
313.981	0.1399
314.1924	0.1351
314.4037	0.1349
314.6151	0.1303
314.8264	0.1387
315.0377	0.1295
315.249	0.1376
315.4603	0.1263
315.6716	0.1323
315.8828	0.13
316.0941	0.1364
316.3053	0.1246
316.5165	0.1312
316.7277	0.1329
316.9389	0.1353
317.1501	0.1369
317.3613	0.1311
317.5724	0.1352
317.7836	0.129
317.9947	0.1326
318.2058	0.1277
318.417	0.1276
318.6281	0.1309
318.8391	0.1287
319.0502	0.1394
319.2613	0.1319
319.4723	0.1339
319.6834	0.1336
319.8944	0.1329
320.1054	0.1288
320.3164	0.1291
320.5274	0.128
320.7383	0.1311
320.9493	0.1248
321.1602	0.1268
321.3712	0.1279
321.5821	0.1265
321.793	0.1314
322.0039	0.123
322.2148	0.1294
322.4257	0.1304
322.6365	0.1276
322.8474	0.133
323.0582	0.1353
323.269	0.1329
323.4798	0.1289
323.6906	0.1306
323.9014	0.1316
324.1122	0.1303
324.3229	0.1297
324.5337	0.1369
324.7444	0.134
324.9551	0.1352
325.1658	0.1367
325.3765	0.1364
325.5872	0.1318
325.7979	0.1366
326.0085	0.1344
326.2192	0.1344
326.4298	0.1377
326.6404	0.1391
326.851	0.1375
327.0616	0.1389
327.2722	0.1378
327.4828	0.1402
327.6933	0.1418
327.9039	0.1354
328.1144	0.1364
328.3249	0.1433
328.5354	0.1436
328.7459	0.1404
328.9564	0.1381
329.1669	0.1444
329.3773	0.1434
329.5878	0.1345
329.7982	0.1448
330.0086	0.1442
330.219	0.1368
330.4294	0.1462
330.6398	0.1426
330.8502	0.1474
331.0605	0.1382
331.2708	0.1412
331.4812	0.1421
331.6915	0.1397
331.9018	0.1463
332.1121	0.1518
332.3224	0.142
332.5326	0.1386
332.7429	0.1415
332.9531	0.1487
333.1633	0.1385
333.3735	0.1457
333.5837	0.1469
333.7939	0.1374
334.0041	0.1522
334.2143	0.1344
334.4244	0.1482
334.6346	0.1448
334.8447	0.1416
335.0548	0.1515
335.2649	0.1456
335.475	0.1453
335.685	0.1503
335.8951	0.1442
336.1051	0.1457
336.3152	0.149
336.5252	0.1463
336.7352	0.1432
336.9452	0.1514
337.1552	0.1492
337.3652	0.1408
337.5751	0.1443
337.7851	0.1418
337.995	0.1488
338.2049	0.1435
338.4148	0.1475
338.6247	0.1494
338.8346	0.144
339.0445	0.1446
339.2543	0.1432
339.4642	0.1473
339.674	0.1427
339.8838	0.1515
340.0936	0.1479
340.3034	0.149
340.5132	0.1468
340.7229	0.1518
340.9327	0.1534
341.1424	0.154
341.3522	0.1424
341.5619	0.1515
341.7716	0.1532
341.9813	0.1517
342.1909	0.1576
342.4006	0.1546
342.6102	0.1575
342.8199	0.1556
343.0295	0.152
343.2391	0.1529
343.4487	0.1594
343.6583	0.1613
343.8679	0.1455
344.0774	0.1579
344.287	0.1635
344.4965	0.1669
344.706	0.1607
344.9155	0.162
345.125	0.1577
345.3345	0.1708
345.544	0.1663
345.7534	0.1638
345.9629	0.1686
346.1723	0.1665
346.3817	0.171
346.5911	0.1722
346.8005	0.1711
347.0099	0.172
347.2193	0.1846
347.4286	0.1798
347.638	0.1751
347.8473	0.1792
348.0566	0.173
348.2659	0.1786
348.4752	0.1819
348.6845	0.1826
348.8937	0.1757
349.103	0.1846
349.3122	0.1741
349.5214	0.1766
349.7306	0.1773
349.9398	0.1839
350.149	0.174
350.3582	0.1862
350.5674	0.1823
350.7765	0.1808
350.9856	0.1834
351.1948	0.178
351.4039	0.1851
351.613	0.1851
351.822	0.187
352.0311	0.1792
352.2402	0.1906
352.4492	0.18
352.6582	0.183
352.8672	0.1873
353.0762	0.1855
353.2852	0.1853
353.4942	0.1868
353.7032	0.1826
353.9121	0.1825
354.1211	0.1841
354.33	0.1846
354.5389	0.1833
354.7478	0.1857
354.9567	0.1863
355.1655	0.1842
355.3744	0.1853
355.5833	0.1832
355.7921	0.1899
356.0009	0.1893
356.2097	0.1826
356.4185	0.178
356.6273	0.1864
356.8361	0.1819
357.0448	0.1865
357.2536	0.1849
357.4623	0.193
357.671	0.1972
357.8797	0.1889
358.0884	0.1848
358.2971	0.1852
358.5057	0.1946
358.7144	0.1905
358.923	0.196
359.1316	0.1901
359.3402	0.1935
359.5488	0.1964
359.7574	0.1976
359.966	0.1926
360.1746	0.1875
360.3831	0.1996
360.5916	0.1983
360.8002	0.2039
361.0087	0.1917
361.2172	0.1946
361.4256	0.2031
361.6341	0.199
361.8426	0.2039
362.051	0.2006
362.2594	0.2035
362.4678	0.2004
362.6762	0.2049
362.8846	0.2087
363.093	0.2098
363.3014	0.2104
363.5097	0.201
363.718	0.2079
363.9264	0.2095
364.1347	0.2128
364.343	0.2114
364.5513	0.2091
364.7595	0.2204
364.9678	0.2117
365.176	0.2159
365.3842	0.218
365.5925	0.2148
365.8007	0.2159
366.0089	0.2213
366.217	0.2128
366.4252	0.2182
366.6333	0.2231
366.8415	0.2187
367.0496	0.2127
367.2577	0.2275
367.4658	0.223
367.6739	0.2218
367.882	0.2282
368.09	0.2252
368.2981	0.2331
368.5061	0.2275
368.7141	0.2245
368.9221	0.2302
369.1301	0.2255
369.3381	0.2348
369.5461	0.23
369.754	0.2357
369.962	0.229
370.1699	0.226
370.3778	0.2441
370.5857	0.23
370.7936	0.2337
371.0015	0.2323
371.2093	0.2349
371.4172	0.2408
371.625	0.2365
371.8328	0.2317
372.0406	0.2427
372.2484	0.2271
372.4562	0.2367
372.664	0.2397
372.8717	0.2455
373.0795	0.2483
373.2872	0.2419
373.4949	0.2497
373.7026	0.2403
373.9103	0.2373
374.118	0.2539
374.3256	0.2586
374.5333	0.2493
374.7409	0.2413
374.9485	0.2439
375.1561	0.2567
375.3637	0.2433
375.5713	0.257
375.7789	0.2588
375.9864	0.246
376.194	0.2601
376.4015	0.2499
376.609	0.2586
376.8165	0.2564
377.024	0.2501
377.2315	0.2596
377.4389	0.2549
377.6464	0.2581
377.8538	0.2581
378.0612	0.2638
378.2686	0.2543
378.476	0.2632
378.6834	0.2527
378.8908	0.261
379.0981	0.2586
379.3055	0.2714
379.5128	0.2651
379.7201	0.2711
379.9274	0.2608
380.1347	0.2668
380.342	0.2703
380.5492	0.2669
380.7565	0.2632
380.9637	0.2703
381.1709	0.2702
381.3781	0.2832
381.5853	0.26
381.7925	0.2709
381.9997	0.2788
382.2068	0.2641
382.4139	0.2715
382.6211	0.2766
382.8282	0.2702
383.0353	0.2703
383.2424	0.2646
383.4494	0.2707
383.6565	0.2769
383.8635	0.2739
384.0706	0.2796
384.2776	0.2806
384.4846	0.2792
384.6916	0.2756
384.8986	0.2769
385.1055	0.2891
385.3125	0.276
385.5194	0.2752
385.7263	0.2762
385.9333	0.2748
386.1402	0.2784
386.347	0.2724
386.5539	0.2784
386.7608	0.2703
386.9676	0.2768
387.1744	0.275
387.3813	0.2681
387.5881	0.2709
387.7948	0.2826
388.0016	0.2864
388.2084	0.2779
388.4151	0.2823
388.6219	0.2703
388.8286	0.2814
389.0353	0.2833
389.242	0.2788
389.4487	0.2754
389.6553	0.2634
389.862	0.2686
390.0686	0.2749
390.2753	0.2743
390.4819	0.2717
390.6885	0.2698
390.8951	0.2669
391.1016	0.2626
391.3082	0.2684
391.5147	0.2625
391.7213	0.2668
391.9278	0.2569
392.1343	0.2655
392.3408	0.2575
392.5473	0.2662
392.7537	0.2584
392.9602	0.2521
393.1666	0.2529
393.373	0.2543
393.5794	0.257
393.7858	0.2499
393.9922	0.2526
394.1986	0.2457
394.4049	0.2606
394.6113	0.2501
394.8176	0.2514
395.0239	0.2489
395.2302	0.2427
395.4365	0.2485
395.6428	0.2497
395.8491	0.2398
396.0553	0.241
396.2615	0.2466
396.4678	0.2423
396.674	0.2364
396.8802	0.2426
397.0863	0.2422
397.2925	0.2347
397.4987	0.2382
397.7048	0.2458
397.9109	0.2343
398.117	0.232
398.3231	0.2353
398.5292	0.234
398.7353	0.2353
398.9413	0.2314
399.1474	0.2296
399.3534	0.2325
399.5594	0.2416
399.7654	0.2301
399.9714	0.2247
400.1774	0.2306
400.3833	0.233
400.5893	0.2458
400.7952	0.2427
401.0011	0.2355
401.207	0.2287
401.4129	0.2368
401.6188	0.228
401.8247	0.2342
402.0305	0.2251
402.2364	0.2367
402.4422	0.2358
402.648	0.2442
402.8538	0.2374
403.0596	0.2257
403.2654	0.2334
403.4711	0.2344
403.6768	0.2262
403.8826	0.2312
404.0883	0.231
404.294	0.2332
404.4997	0.2348
404.7054	0.244
404.911	0.2228
405.1167	0.2323
405.3223	0.2209
405.5279	0.2308
405.7335	0.2309
405.9391	0.228
406.1447	0.24
406.3502	0.2392
406.5558	0.2316
406.7613	0.2362
406.9668	0.2227
407.1724	0.2334
407.3778	0.2364
407.5833	0.2259
407.7888	0.2286
407.9942	0.2245
408.1997	0.2296
408.4051	0.2309
408.6105	0.2375
408.8159	0.2276
409.0213	0.2334
409.2267	0.2317
409.432	0.2247
409.6374	0.2378
409.8427	0.2429
410.048	0.2321
410.2533	0.2231
410.4586	0.2261
410.6639	0.2307
410.8691	0.2282
411.0744	0.2293
411.2796	0.2299
411.4848	0.2313
411.69	0.2231
411.8952	0.2349
412.1004	0.2295
412.3056	0.2294
412.5107	0.2319
412.7158	0.2402
412.921	0.2431
413.1261	0.231
413.3312	0.2378
413.5362	0.2408
413.7413	0.2294
413.9464	0.2223
414.1514	0.2317
414.3564	0.231
414.5614	0.2218
414.7664	0.2272
414.9714	0.2202
415.1764	0.2275
415.3813	0.2224
415.5863	0.2265
415.7912	0.2331
415.9961	0.221
416.201	0.2305
416.4059	0.2278
416.6108	0.2254
416.8156	0.229
417.0205	0.2293
417.2253	0.2304
417.4301	0.231
417.6349	0.2205
417.8397	0.2209
418.0445	0.2198
418.2492	0.2209
418.454	0.2225
418.6587	0.2224
418.8634	0.2245
419.0681	0.2229
419.2728	0.2274
419.4775	0.2223
419.6822	0.212
419.8868	0.2215
420.0915	0.2209
420.2961	0.2009
420.5007	0.2182
420.7053	0.2104
420.9099	0.213
421.1144	0.2116
421.319	0.2161
421.5235	0.2081
421.728	0.2111
421.9325	0.212
422.137	0.2125
422.3415	0.2063
422.546	0.203
422.7504	0.2022
422.9549	0.2141
423.1593	0.1972
423.3637	0.2042
423.5681	0.2107
423.7725	0.2085
423.9769	0.2109
424.1812	0.197
424.3856	0.1957
424.5899	0.2026
424.7942	0.189
424.9985	0.1962
425.2028	0.2037
425.4071	0.2044
425.6113	0.1994
425.8156	0.1988
426.0198	0.1983
426.224	0.2016
426.4282	0.1898
426.6324	0.188
426.8366	0.1891
427.0407	0.1875
427.2449	0.1892
427.449	0.1808
427.6531	0.1911
427.8572	0.1841
428.0613	0.1899
428.2654	0.196
428.4694	0.1756
428.6735	0.1827
428.8775	0.177
429.0815	0.1733
429.2855	0.176
429.4895	0.1742
429.6935	0.1797
429.8975	0.1749
430.1014	0.1792
430.3053	0.1806
430.5093	0.1716
430.7132	0.1612
430.9171	0.165
431.1209	0.1717
431.3248	0.162
431.5286	0.1621
431.7325	0.1675
431.9363	0.1664
432.1401	0.1593
432.3439	0.1581
432.5477	0.1524
432.7514	0.1606
432.9552	0.1536
433.1589	0.1481
433.3627	0.159
433.5664	0.142
433.7701	0.1437
433.9737	0.1451
434.1774	0.1476
434.3811	0.1315
434.5847	0.143
434.7883	0.1369
434.9919	0.1289
435.1955	0.1449
435.3991	0.1397
435.6027	0.1324
435.8062	0.1384
436.0098	0.1253
436.2133	0.1312
436.4168	0.1252
436.6203	0.1167
436.8238	0.1194
437.0272	0.1256
437.2307	0.1232
437.4341	0.1204
437.6375	0.1217
437.841	0.1161
438.0443	0.1247
438.2477	0.109
438.4511	0.1106
438.6545	0.1166
438.8578	0.116
439.0611	0.1172
439.2644	0.1085
439.4677	0.11
439.671	0.0973
439.8743	0.1091
440.0775	0.0943
440.2808	0.0922
440.484	0.1044
440.6872	0.0983
440.8904	0.0823
441.0936	0.0973
441.2967	0.0865
441.4999	0.0859
441.703	0.0874
441.9062	0.0902
442.1093	0.0933
442.3124	0.0847
442.5155	0.084
442.7185	0.0778
442.9216	0.0817
443.1246	0.0797
443.3276	0.0821
443.5307	0.0713
443.7337	0.0779
443.9366	0.0714
444.1396	0.0669
444.3426	0.0722
444.5455	0.0689
444.7484	0.0732
444.9513	0.0789
445.1542	0.074
445.3571	0.0701
445.56	0.0599
445.7628	0.0669
445.9657	0.0757
446.1685	0.075
446.3713	0.0713
446.5741	0.0699
446.7769	0.0672
446.9797	0.0622
447.1824	0.0584
447.3852	0.0488
447.5879	0.0596
447.7906	0.0511
447.9933	0.0472
448.196	0.0534
448.3986	0.0512
448.6013	0.0429
448.8039	0.0532
449.0066	0.0635
449.2092	0.0545
449.4118	0.0457
449.6143	0.0468
449.8169	0.0437
450.0195	0.0383
450.222	0.0431
450.4245	0.0527
450.627	0.042
450.8295	0.0373
451.032	0.0407
451.2345	0.0306
451.4369	0.0384
451.6394	0.0433
451.8418	0.0356
452.0442	0.0378
452.2466	0.0291
452.449	0.0323
452.6513	0.0313
452.8537	0.0358
453.056	0.0376
453.2583	0.0261
453.4607	0.0202
453.663	0.0373
453.8652	0.0288
454.0675	0.0441
454.2697	0.0319
454.472	0.024
454.6742	0.0348
454.8764	0.0291
455.0786	0.0249
455.2808	0.0305
455.4829	0.0243
455.6851	0.0245
455.8872	0.0192
456.0893	0.0351
456.2915	0.0234
456.4935	0.0319
456.6956	0.02
456.8977	0.0253
457.0997	0.0288
457.3018	0.019
457.5038	0.0296
457.7058	0.0268
457.9078	0.0241
458.1098	0.026
458.3117	0.0255
458.5137	0.0147
458.7156	0.0228
458.9175	0.0244
459.1194	0.0171
459.3213	0.0171
459.5232	0.0269
459.725	0.0177
459.9269	0.019
460.1287	0.0147
460.3305	0.0251
460.5323	0.0204
460.7341	0.0223
460.9359	0.0076
461.1376	0.0197
461.3394	0.0273
461.5411	0.0225
461.7428	0.014
461.9445	0.0135
462.1462	0.0167
462.3479	0.0115
462.5495	0.0171
462.7512	0.0198
462.9528	0.0083
463.1544	0.0082
463.356	0.0044
463.5576	0.0255
463.7592	0.0076
463.9607	0.016
464.1623	0.0062
464.3638	0.0106
464.5653	0.0116
464.7668	0.0089
464.9683	0.0109
465.1697	0.0171
465.3712	0.0038
465.5726	0.0098
465.7741	0.0167
465.9755	0.0176
466.1769	0.0014
466.3782	0.005
466.5796	0.0081
466.7809	0.0093
466.9823	0.0108
467.1836	0.0134
467.3849	0.0076
467.5862	0.0001
467.7875	0.0154
467.9887	0.0114
468.19	0.0086
468.3912	0.014
468.5924	0.0146
468.7936	0.0047
468.9948	0.0044
469.196	0.0082
469.3972	-0.0012
469.5983	0.0107
469.7994	0.0164
470.0006	0.0051
470.2017	0.0111
470.4027	0.0275
470.6038	0.0096
470.8049	0.0057
471.0059	0.0141
471.2069	0.013
471.408	0.0122
471.6089	0.0088
471.8099	0.0121
472.0109	0.0031
472.2119	0.015
472.4128	0.006
472.6137	0.0019
472.8146	0.0089
473.0155	0.0115
473.2164	0.0078
473.4173	-0.0026
473.6181	-0.0063
473.819	0.0075
474.0198	0.0049
474.2206	-0.002
474.4214	0.0061
474.6222	0.0001
474.8229	0.0096
475.0237	0.0107
475.2244	0.0092
475.4251	0.0063
475.6258	-0.0023
475.8265	0.0159
476.0272	-0.0007
476.2278	0.0144
476.4285	0.0034
476.6291	0.0139
476.8297	0.0104
477.0303	0.0026
477.2309	0.0087
477.4315	0.0118
477.632	0.0034
477.8326	0.0088
478.0331	0.0076
478.2336	0.0083
478.4341	0.0028
478.6346	0.0024
478.8351	0.0048
479.0355	0.0069
479.236	0.0121
479.4364	0.008
479.6368	0.0059
479.8372	0.0032
480.0376	-0.0006
480.2379	0.008
480.4383	0.011
480.6386	0.001
480.8389	0.0026
481.0392	0.0064
481.2395	0.0103
481.4398	0.0127
481.6401	0.0083
481.8403	0.0021
482.0405	0.0084
482.2408	0.0127
482.441	0.0039
482.6411	0.011
482.8413	0.0025
483.0415	0.0099
483.2416	0.0063
483.4417	0.0025
483.6419	-0.002
483.8419	0.0061
484.042	0.0018
484.2421	0.0088
484.4422	0.006
484.6422	0.0077
484.8422	0.0081
485.0422	0.0046
485.2422	0.0022
485.4422	0.0049
485.6422	0.0029
485.8421	0.0028
486.042	0.0087
486.242	0
486.4419	0.0073
486.6417	0.0052
486.8416	0.0075
487.0415	0.0019
487.2413	-0.0038
487.4411	0.0087
487.641	0.0038
487.8408	0.0103
488.0405	0.012
488.2403	0.0009
488.4401	0.0033
488.6398	0.0076
488.8395	0.0023
489.0392	0.0086
489.2389	0.01
489.4386	-0.0015
489.6383	0.0155
489.8379	0.0053
490.0376	0.0073
490.2372	0.0031
490.4368	0.0011
490.6364	0.0104
490.836	0.0045
491.0355	0.0028
491.2351	0.0018
491.4346	0.0074
491.6341	0.0048
491.8336	0.0047
492.0331	0.0071
492.2326	0.0097
492.432	0.0052
492.6315	0.0125
492.8309	0.0111
493.0303	0.0045
493.2297	0.0037
493.4291	0.0044
493.6284	0.0081
493.8278	0.0052
494.0271	0.0067
494.2264	0.0018
494.4257	0.0005
494.625	0.0079
494.8243	0.0038
495.0236	0.0072
495.2228	0.0111
495.422	0.0071
495.6213	0.0037
495.8205	0.0065
496.0196	0.0094
496.2188	0.0039
496.418	0.009
496.6171	-0.0037
496.8162	0.0099
497.0153	0.007
497.2144	0.0083
497.4135	0.007
497.6126	0.0076
497.8116	-0.0021
498.0107	0.0044
498.2097	0.0128
498.4087	0.0038
498.6077	0.0003
498.8067	0.0017
499.0056	-0.0001
499.2046	0.008
499.4035	0.0041
499.6024	-0.0078
499.8013	0.0054
500.0002	0.0049
500.199	0.0082
500.3979	0.0031
500.5967	0.0058
500.7956	0.0076
500.9944	0.0033
501.1932	0.0145
501.3919	0.003
501.5907	0.0033
501.7895	0.0055
501.9882	0.003
502.1869	0.0098
502.3856	0.0009
502.5843	0.01
502.783	0.0012
502.9816	0.005
503.1803	0.0053
503.3789	0.0095
503.5775	-0.0004
503.7761	0.0019
503.9747	0.0084
504.1732	0.0036
504.3718	0.015
504.5703	0.0071
504.7689	-0.0023
504.9674	0.0067
505.1658	-0.0012
505.3643	0.0044
505.5628	0.0127
505.7612	0.0116
505.9597	-0.0098
506.1581	0.0026
506.3565	0.0055
506.5549	0.0045
506.7532	0.0049
506.9516	0.0069
507.1499	0.005
507.3482	0.0016
507.5465	0.0081
507.7448	0.0056
507.9431	0.0062
508.1414	0.0013
508.3396	0.0082
508.5379	0.0053
508.7361	0.0092
508.9343	0.013
509.1325	0.0187
509.3306	0.0034
509.5288	-0.0034
509.7269	0.0089
509.9251	0.009
510.1232	0.0071
510.3213	0.0078
510.5193	0.0033
510.7174	0.0021
510.9154	0.0062
511.1135	0.005
511.3115	0.0003
511.5095	0.0069
511.7075	-0
511.9055	0.0067
512.1034	0.0094
512.3014	0.006
512.4993	0.0103
512.6972	0.0053
512.8951	-0.0034
513.093	0.0086
513.2908	0.0135
513.4887	0.0053
513.6865	0.0091
513.8844	0.0051
514.0822	0.0059
514.2799	-0.0015
514.4777	0.0011
514.6755	0.0108
514.8732	0.0007
515.0709	0.0082
515.2687	0.0036
515.4664	0.0151
515.664	0.0115
515.8617	0.0139
516.0594	0.0036
516.257	0.0101
516.4546	0.0194
516.6522	0.0118
516.8498	0.0105
517.0474	0.004
517.2449	0.0054
517.4425	-0.0007
517.64	0.0148
517.8375	0.0085
518.035	0.0084
518.2325	-0.0035
518.43	0.0062
518.6274	0.0045
518.8249	-0.0057
519.0223	0.0082
519.2197	0.001
519.4171	0.0019
519.6145	0.0092
519.8118	-0.0019
520.0092	0.0055
520.2065	0.0125
520.4038	0.0082
520.6011	0.0183
520.7984	0.0056
520.9956	0.0043
521.1929	0.0083
521.3901	0.0098
521.5874	0.0161
521.7846	-0.0011
521.9818	0.0111
522.1789	-0.0057
522.3761	0.0185
522.5732	0.0117
522.7704	0.0008
522.9675	-0.0023
523.1646	-0.0005
523.3617	0.0206
523.5587	-0.0009
523.7558	0.0145
523.9528	0.0095
524.1498	0.0027
524.3468	0.0054
524.5438	0.0158
524.7408	0.0005
524.9378	0.0092
525.1347	0.0077
525.3316	-0.0037
525.5285	0.0091
525.7254	0.0053
525.9223	0.0153
526.1192	0.007
526.316	0.0122
526.5129	-0.0034
526.7097	0.0091
526.9065	0.0116
527.1033	0.0079
527.3	-0.0005
527.4968	0.0006
527.6935	-0.0088
527.8903	-0.0013
528.087	0.0037
528.2837	0.012
528.4804	0.0055
528.677	0.0128
528.8737	-0.001
529.0703	0.0039
529.2669	0.0091
529.4635	-0.0012
529.6601	-0.0025
529.8567	0.0055
530.0532	0.0081
530.2498	0.0061
530.4463	-0.0086
530.6428	0.0007
530.8393	0.0085
531.0358	0.0024
531.2322	-0.0008
531.4287	0.0017
531.6251	-0.0026
531.8215	0.0035
532.0179	0.0102
532.2143	0.0002
532.4107	0.0148
532.607	0.0041
532.8034	-0.0048
532.9997	0.0042
533.196	0.0066
533.3923	0.0112
533.5886	0.0119
533.7848	0.0029
533.9811	0.0089
534.1773	0.0076
534.3735	0.0036
534.5697	0.0024
534.7659	0.0028
534.9621	0.003
535.1582	0.0072
535.3544	0.0138
535.5505	0.0104
535.7466	0.0047
535.9427	0.0114
536.1387	0.003
536.3348	0.008
536.5308	-0.0005
536.7269	-0.0036
536.9229	0.0064
537.1189	0.0104
537.3148	0.0067
537.5108	0.0096
537.7068	0.0174
537.9027	-0.0008
538.0986	0.0051
538.2945	-0.0084
538.4904	-0.0065
538.6863	-0.0014
538.8821	0.0163
539.078	0.009
539.2738	-0.0009
539.4696	-0.0078
539.6654	0.0008
539.8611	-0.0092
540.0569	-0.0003
540.2526	0.0123
540.4484	-0.0008
540.6441	0.0117
540.8398	0.0154
541.0355	0.0008
541.2311	0.0042
541.4268	0.0086
541.6224	0.0172
541.818	0.009
542.0136	0.0137
542.2092	0.0144
542.4048	0.0005
542.6003	0.0004
542.7959	0.008
542.9914	0.0023
543.1869	0.0064
543.3824	0.0079
543.5779	0.0118
543.7734	0.0139
543.9688	0.0032
544.1642	0.0017
544.3596	0.0039
544.555	0.0061
544.7504	0.0169
544.9458	0.0076
545.1411	-0.0066
545.3365	-0.0042
545.5318	0.0043
545.7271	0.0049
545.9224	0.0076
546.1177	0.0087
546.3129	0.0064
546.5081	-0.0039
546.7034	0.0044
546.8986	0.0069
547.0938	0.0067
547.289	0.0089
547.4841	0.0075
547.6793	0.0063
547.8744	0.0036
548.0695	0.009
548.2646	0.0081
548.4597	0.0073
548.6548	0.0119
548.8498	0.0078
549.0448	-0.0005
549.2399	0.0122
549.4349	0.0058
549.6298	0.0119
549.8248	0.001
550.0198	0.0176
550.2147	0.0172
550.4096	0.0043
550.6045	-0.0001
550.7994	0.01
550.9943	0.0162
551.1892	-0.0059
551.384	0.0158
551.5788	-0.0002
551.7737	0.0065
551.9685	0.0028
552.1632	0.0103
552.358	0.0063
552.5528	0.0138
552.7475	0.0038
552.9422	0.0106
553.1369	0.0085
553.3316	0.004
553.5263	0.0041
553.7209	0.0048
553.9156	0.0082
554.1102	0.0086
554.3048	-0.0026
554.4994	0.0072
554.694	0.0042
554.8885	0.0062
555.0831	0.0082
555.2776	0.0134
555.4721	0.0024
555.6666	0.0096
555.8611	0.0026
556.0555	0.0042
556.25	0.0094
556.4444	0.0072
556.6388	0.0008
556.8332	0.0077
557.0276	0.0109
557.222	-0.0047
557.4163	0.0094
557.6107	0.0068
557.805	0.0013
557.9993	0.0081
558.1936	0.0022
558.3879	0.0093
558.5821	0.0043
558.7764	0.0004
558.9706	-0.0052
559.1648	0.0116
559.359	-0.0019
559.5532	0.003
559.7473	-0.0015
559.9415	0.0095
560.1356	0.0219
560.3297	-0.0052
560.5238	0.0083
560.7179	-0.012
560.9119	-0.0006
561.106	0.0064
561.3	0.0055
561.494	-0.0035
561.688	-0.0065
561.882	0.0009
562.076	0.0103
562.2699	0.0087
562.4639	0.0081
562.6578	0.0047
562.8517	0.0047
563.0456	0.0059
563.2395	0.0044
563.4333	0.0018
563.6272	0.0084
563.821	0.0027
564.0148	0.0065
564.2086	0.0085
564.4024	0.0067
564.5961	0.0084
564.7899	0.0101
564.9836	-0.0002
565.1773	0.0128
565.371	0.0037
565.5647	0.0147
565.7584	0.0192
565.952	0.0039
566.1456	0.0068
566.3393	0.0085
566.5329	0.0068
566.7264	0.0037
566.92	0.0041
567.1136	0.0011
567.3071	-0.0035
567.5006	0.0089
567.6941	0.0001
567.8876	0.0069
568.0811	0.0181
568.2745	-0.0027
568.468	0.0075
568.6614	0.0064
568.8548	0.0064
569.0482	0.0034
569.2416	0.0082
569.4349	-0.001
569.6283	0.0054
569.8216	0.0111
570.0149	0.0105
570.2082	0.0082
570.4015	0.0032
570.5947	0.0048
570.788	0.0023
570.9812	0.004
571.1744	0.0034
571.3676	0.0052
571.5608	0.0039
571.754	0.0097
571.9471	0.0112
572.1402	0.0061
572.3333	0.0039
572.5264	0.0045
572.7195	0.003
572.9126	0.0046
573.1057	0.0052
573.2987	0.0029
573.4917	0.0027
573.6847	0.0004
573.8777	0.01
574.0707	0.0061
574.2636	0.0101
574.4566	-0.0005
574.6495	0.0023
574.8424	0.0066
575.0353	0.0048
575.2281	0.0096
575.421	0
575.6138	0.0023
575.8067	0.0019
575.9995	0.0036
576.1923	0.0076
576.385	0.006
576.5778	0.0112
576.7706	0.0038
576.9633	0.0072
577.156	0.0002
577.3487	0.0027
577.5414	0.004
577.734	0.0039
577.9267	0.0059
578.1193	0.0065
578.3119	-0.0008
578.5045	0.0046
578.6971	-0.004
578.8897	0.0056
579.0822	0.0096
579.2747	0.0044
579.4673	0.0057
579.6598	0.0073
579.8522	0.0055
580.0447	0.0051
580.2372	0.0071
580.4296	0.0074
580.622	0.0033
580.8144	0.0069
581.0068	0.0057
581.1992	0.0055
581.3915	-0
581.5839	0.0043
581.7762	0.0042
581.9685	0.0023
582.1608	0.0043
582.353	0.0055
582.5453	0.0082
582.7375	0.0061
582.9298	0.0037
583.122	-0.0001
583.3142	0.0057
583.5063	0.0045
583.6985	-0.0025
583.8906	0.0013
584.0827	0.0061
584.2749	0.0022
584.4669	0.0025
584.659	0.0062
584.8511	0.0113
585.0431	0.0033
585.2352	0.0045
585.4272	0.0034
585.6192	0.0042
585.8111	0.0036
586.0031	-0
586.195	0.0036
586.387	0.0069
586.5789	0.0059
586.7708	0.0064
586.9627	0.0066
587.1545	0.0042
587.3464	0.0035
587.5382	0.0061
587.73	0.0114
587.9218	0.0004
588.1136	0.0052
588.3053	0.0048
588.4971	0.0024
588.6888	-0.0008
588.8805	0.0039
589.0722	0.0164
589.2639	0.0063
589.4556	0.0094
589.6472	0.0146
589.8389	0.0048
590.0305	0.0055
590.2221	0.0087
590.4137	0.0027
590.6052	0.0037
590.7968	0.0084
590.9883	0.0045
591.1798	0.0046
591.3713	-0.0008
591.5628	0.0031
591.7543	0.0118
591.9458	0.0047
592.1372	0.0076
592.3286	0.0014
592.52	0.0034
592.7114	0.0037
592.9028	0.0073
593.0941	0.0037
593.2855	0.0013
593.4768	0.0051
593.6681	0.0083
593.8594	0.0019
594.0506	0.0027
594.2419	0.0054
594.4331	0.0065
594.6244	-0.0021
594.8156	-0.002
595.0067	-0.0015
595.1979	0.003
595.3891	0.0034
595.5802	0.0051
595.7713	-0.001
595.9624	0.012
596.1535	0.0034
596.3446	0.0012
596.5357	0.0095
596.7267	0.0057
596.9177	-0
597.1087	-0.0002
597.2997	0.0022
597.4907	0.0016
597.6817	0.01
597.8726	0.0079
598.0635	-0.0039
598.2544	0.005
598.4453	0.0056
598.6362	0.0065
598.827	0.0032
599.0179	0.0086
599.2087	0.0112
599.3995	0.0075
599.5903	0.0079
599.7811	0.0117
599.9718	0.0049
600.1626	0.0025
600.3533	0.0061
600.544	0.0084
600.7347	0.0049
600.9254	0.0096
601.116	-0.0017
601.3067	-0.0019
601.4973	0.0097
601.6879	0.001
601.8785	0.0083
602.0691	0.0084
602.2596	0.0053
602.4502	0.0072
602.6407	0.009
602.8312	0.0004
603.0217	0.0115
603.2122	0.0061
603.4027	0.005
603.5931	0.0007
603.7835	0.0033
603.9739	0.0063
604.1643	0.0051
604.3547	0.0122
604.5451	0.0088
604.7354	0.0033
604.9257	-0.0024
605.116	-0.0023
605.3063	0.0046
605.4966	0.0034
605.6869	0.0117
605.8771	0.0029
606.0673	0.009
606.2575	0.0025
606.4477	0.0144
606.6379	0.0035
606.8281	0.0044
607.0182	0.0031
607.2083	0.0045
607.3985	0.0022
607.5885	0.0022
607.7786	0.0137
607.9687	0.0079
608.1587	0.009
608.3488	0.0059
608.5388	-0.0011
608.7288	-0.0014
608.9187	0.001
609.1087	0.0063
609.2986	0.0071
609.4886	0
609.6785	0.0034
609.8684	-0.0023
610.0582	0.0012
610.2481	-0.0023
610.4379	0.0059
610.6278	0.002
610.8176	0.0063
611.0074	0.0067
611.1971	0.003
611.3869	0.0076
611.5766	-0.0023
611.7664	0.0111
611.9561	0.0123
612.1458	0.0007
612.3354	0.0056
612.5251	0.0047
612.7147	0.0064
612.9044	0.0043
613.094	0.0055
613.2836	0.0024
613.4731	0.0048
613.6627	0.0135
613.8522	0.0108
614.0417	0.008
614.2313	0.006
614.4207	0.01
614.6102	0.013
614.7997	0.0083
614.9891	-0.0008
615.1785	-0.0011
615.3679	0.004
615.5573	0.0101
615.7467	-0.008
615.9361	0.0086
616.1254	0.0029
616.3147	0.0109
616.504	0.0024
616.6933	0.0096
616.8826	0.0103
617.0718	0.0052
617.2611	0.0011
617.4503	0.0073
617.6395	0.0058
617.8287	0.009
618.0179	-0.0023
618.207	0.0101
618.3961	0.0052
618.5853	0.0015
618.7744	0.0091
618.9634	0.0109
619.1525	0.0023
619.3416	0.0058
619.5306	0.0099
619.7196	0.0036
619.9086	-0.0017
620.0976	-0.0019
620.2866	0.0148
620.4755	0.0003
620.6645	0.0064
620.8534	0.0046
621.0423	0.0116
621.2312	0.0037
621.42	0.0039
621.6089	0.0036
621.7977	0.0062
621.9865	0.0031
622.1753	-0.0009
622.3641	0.0016
622.5529	-0.0031
622.7416	0.0022
622.9303	0.0023
623.1191	0.003
623.3078	0.0004
623.4964	-0.0003
623.6851	0.0095
623.8737	-0.0018
624.0624	-0.0165
624.251	0.0034
624.4396	0.0001
624.6282	0.0056
624.8167	0.0069
625.0053	0.0127
625.1938	0.0058
625.3823	-0.0041
625.5708	0.0027
625.7593	0.0053
625.9477	0.0103
626.1362	-0.0025
626.3246	0.0023
626.513	0.0133
626.7014	0.0117
626.8898	0.008
627.0781	0.0007
627.2665	0.0113
627.4548	-0.0056
627.6431	0.0093
627.8314	0.0149
628.0197	0.0128
628.2079	-0.0082
628.3962	0.0103
628.5844	0.0181
628.7726	-0.0047
628.9608	0.0017
629.1489	0.0084
629.3371	0.0029
629.5252	0.0061
629.7134	-0.0071
629.9015	0.0047
630.0895	-0.005
630.2776	-0.0012
630.4657	0.0091
630.6537	-0.0027
630.8417	0.007
631.0297	0.0045
631.2177	0.0057
631.4057	0.0136
631.5936	-0.0076
631.7815	0.0114
631.9695	0.013
632.1574	0.003
632.3452	0.0033
632.5331	0.0147
632.7209	0.0165
632.9088	0.0023
633.0966	0.0335
633.2844	0.002
633.4722	0.0095
633.6599	0.0061
633.8477	-0.0024
634.0354	-0.0088
634.2231	-0.01
634.4108	0.0036
634.5985	0.0115
634.7861	-0.0033
634.9738	-0.0059
635.1614	-0.0015
635.349	-0.0005
635.5366	-0.0094
635.7242	0.0106
635.9117	-0.0028
636.0993	0.0011
636.2868	-0.003
636.4743	-0.0006
636.6618	-0.0132
636.8492	0.0218
637.0367	0.0043
637.2241	-0.0032
637.4115	0.0318
637.5989	-0.0055
637.7863	0.0231
637.9737	0.0042
638.161	0.0147
638.3484	-0.0012
638.5357	0.0015
638.723	0.0249
638.9103	-0.0117
639.0975	-0.0002
639.2848	0.015
639.472	0.0176
639.6592	-0.0113
639.8464	-0.0074
640.0336	0.0084
640.2208	-0.0078
640.4079	0.0033
640.595	-0.0131
640.7821	0.0189
640.9692	-0.0127
641.1563	-0.0022
641.3434	0.0072
641.5304	0.004
641.7174	0.0162
641.9044	0.0149
642.0914	0.0299
642.2784	0.0043
642.4653	-0.0088
642.6523	0.0108
642.8392	-0.0018
643.0261	0.0002
643.213	0.0131
643.3999	0.0175
643.5867	0.0172
643.7735	0.0007
643.9604	0.0221
644.1472	0.0092
644.3339	0.0079
644.5207	-0.0091
644.7075	0.0067
644.8942	0.0042
645.0809	-0.0038
645.2676	-0.008
645.4543	0.0129
645.6409	0.0275
645.8276	-0.0125
646.0142	-0.0086
646.2008	-0.0203
646.3874	-0.0107
646.574	0.0034
646.7605	0.0163
646.9471	0.0002
647.1336	-0.0198
647.3201	0.0076
647.5066	-0.0009
647.6931	0.0151
647.8795	0.0054
648.0659	-0.012
648.2524	0.0104
648.4388	0.0051
648.6252	0.0219
648.8115	0.0018
648.9979	0.0142
649.1842	0.009
649.3705	0.0168
649.5568	-0.0057
649.7431	-0.0056
649.9294	-0.0122
650.1156	-0.0025
650.3018	0.0093
650.488	0.0276
650.6742	-0.0071
650.8604	0.013
651.0466	-0.0066
651.2327	0.0033
651.4188	0.0079
651.6049	0.0273
651.791	0.0085
651.9771	0.0064
652.1632	0.0129
652.3492	-0.0012
652.5352	0.0167
652.7212	-0.0049
652.9072	0.0041
653.0932	0.0011
653.2791	-0.0016
653.465	-0.0005
653.651	-0
653.8369	0.0115
654.0227	0.0045
654.2086	-0.009
654.3944	0.0069
654.5803	0.0042
654.7661	0.0004
654.9519	0.0003
655.1377	-0
655.3234	-0
655.5092	-0
655.6949	-0
655.8806	-0
656.0663	-0
656.2519	-0
656.4376	-0
656.6232	-0
656.8088	-0
656.9945	-0
657.18	-0
657.3656	-0
657.5511	-0
657.7367	-0
657.9222	-0
658.1077	-0
658.2932	-0
658.4786	-0
658.6641	-0
658.8495	-0
659.0349	-0
659.2203	-0
659.4057	-0
659.591	0.1449
659.7764	0.0309
659.9617	-0.004
660.147	-0.0029
660.3323	0.0083
660.5176	0.0037
660.7028	-0.0058
660.888	-0.0041
661.0733	0.0139
661.2585	-0.0179
661.4436	0.0206
661.6288	0.0283
661.8139	-0.0043
661.9991	-0.0179
662.1842	-0.0011
662.3693	0.001
662.5544	-0.0011
662.7394	0.0106
662.9245	-0.0003
663.1095	0.0059
663.2945	-0.0279
663.4795	-0.0192
663.6644	0.0107
663.8494	0.0057
664.0343	0.0064
664.2193	-0.0168
664.4042	-0.0082
664.589	0.0187
664.7739	0.0027
664.9587	-0.0052
665.1436	0.0019
665.3284	0.0027
665.5132	-0.007
665.698	0.0132
665.8827	0.009
666.0675	-0.0152
666.2522	0.0164
666.4369	-0.002
666.6216	0.0116
666.8063	0.0078
666.9909	0.0006
667.1756	-0.0053
667.3602	0.0049
667.5448	-0.0247
667.7294	0.0209
667.9139	0.0059
668.0985	0.0095
668.283	-0.0048
668.4675	0.0418
668.652	0.0022
668.8365	-0.0037
669.0209	0.0051
669.2054	-0.0113
669.3898	-0.0097
669.5742	0.0338
669.7586	0.0243
669.943	0.011
670.1273	0.0012
670.3117	0.0202
670.496	0.0133
670.6803	0.0241
670.8646	-0.0267
671.0488	0.0201
671.2331	-0.0135
671.4173	0.0085
671.6015	-0.0019
671.7857	0.0058
671.9699	0.0219
672.1541	0.0012
672.3382	0.0061
672.5223	0.0086
672.7064	0.0044
672.8905	-0.0035
673.0746	0.019
673.2587	0.0353
673.4427	0.0034
673.6267	0.0195
673.8107	0.0227
673.9947	0.0193
674.1787	0.024
674.3626	-0.0029
674.5465	0.0096
674.7304	-0.0023
674.9143	-0.0077
675.0982	-0.0107
675.2821	0.0099
675.4659	-0.0044
675.6497	0.0085
675.8335	-0.0003
676.0173	-0.0052
676.2011	-0.0051
676.3849	-0.0035
676.5686	0.0128
676.7523	-0.0162
676.936	0.0059
677.1197	-0.0011
677.3034	0.0432
677.487	0.0094
677.6706	0.019
677.8542	0.0074
678.0378	-0.0029
678.2214	0.0007
678.405	0.0065
678.5885	0.023
678.772	0.0089
678.9555	0.0109
679.139	0.0117
679.3225	-0.0138
679.5059	0.0009
679.6894	-0.0014
679.8728	0.009
680.0562	-0.0055
680.2395	-0.0059
680.4229	0.0087
680.6062	0.0086
680.7896	0.0019
680.9729	0.0255
681.1562	-0.0101
681.3394	0.0077
681.5227	0.0111
681.7059	0.0017
681.8891	0.0034
682.0723	-0.0079
682.2555	-0.0025
682.4387	-0.0064
682.6218	-0.0026
682.805	-0.0037
682.9881	0.029
683.1712	0.0103
683.3542	0.0168
683.5373	-0.0033
683.7203	0.0148
683.9034	-0.0011
684.0864	0.0185
684.2694	-0.0034
684.4523	0.0007
684.6353	-0.0019
684.8182	-0.0025
685.0011	0.0056
685.184	0.0013
685.3669	0.0155
685.5498	0.0054
685.7326	-0.0075
685.9154	-0.0183
686.0982	0.0193
686.281	0.0008
686.4638	0.0067
686.6465	-0.009
686.8293	-0.0046
687.012	0.0098
687.1947	0.007
687.3774	0.0073
687.56	-0.0101
687.7427	0.0013
687.9253	-0.0099
688.1079	0.005
688.2905	-0.0031
688.4731	0.0145
688.6556	-0.0009
688.8382	-0.0229
689.0207	-0.0043
689.2032	0.0117
689.3857	-0.0032
689.5681	-0.0009
689.7506	0.0327
689.933	0.015
690.1154	-0.0062
690.2978	0.003
690.4802	0.0138
690.6626	0.0175
690.8449	0.0129
691.0272	0.0094
691.2095	-0.0138
691.3918	0.0041
691.5741	0.0093
691.7563	-0.0007
691.9386	0.031
692.1208	0.0019
692.303	-0.008
692.4852	0.004
692.6673	0.0068
692.8495	-0.018
693.0316	0.0106
693.2137	0.0183
693.3958	0.0013
693.5778	0.0068
693.7599	0.0069
693.9419	-0.0107
694.1239	0.0034
694.3059	0.0054
694.4879	-0.0056
694.6699	-0.0186
694.8518	0.0083
695.0337	0.0057
695.2157	0.0278
695.3975	-0.0129
695.5794	0.0003
695.7613	0.0354
695.9431	-0.0249
696.1249	0.0399
696.3067	0.0089
696.4885	0.01
696.6703	-0.0024
696.852	-0.0098
697.0337	0.035
697.2154	0.0006
697.3971	0.0124
697.5788	0.0122
697.7605	-0.0135
697.9421	0.0318
698.1237	0.0202
698.3053	-0.0071
698.4869	0.0246
698.6685	-0.0141
698.85	0.0306
699.0315	0.0012
699.213	0.0046
699.3945	-0.0144
699.576	0.0476
699.7575	0.0185
699.9389	0.0019
700.1203	-0.0032
700.3017	0.0107
700.4831	0.0339
700.6645	0.0187
700.8458	0.0231
701.0271	0.0251
701.2084	-0.0184
701.3897	-0.0008
701.571	0.0056
701.7523	0.0017
701.9335	0.0128
702.1147	0.0269
702.2959	-0.0148
702.4771	0.0132
702.6583	-0.0041
702.8394	-0.0058
703.0205	0.0137
703.2016	0.0153
703.3827	0.0073
703.5638	0.0107
703.7449	0.0313
703.9259	-0.0097
704.1069	-0.0271
704.2879	-0.0008
704.4689	-0.0177
704.6499	0.0082
704.8308	0.0184
705.0117	0.0165
705.1927	0.0109
705.3735	-0.0096
705.5544	0.0081
705.7353	-0.0026
705.9161	-0.0038
706.0969	0.0185
706.2777	0.0007
706.4585	-0.001
706.6393	0.0215
706.82	0.0035
707.0007	-0.0039
707.1815	-0.0022
707.3621	0.0263
707.5428	0.016
707.7235	0.0042
707.9041	0.0112
708.0847	0.0039
708.2653	0.0156
708.4459	0.0129
708.6265	-0.0395
708.807	0.0097
708.9875	0.0021
709.168	0.0067
709.3485	0.0131
709.529	-0.0081
709.7095	-0.0186
709.8899	0.019
710.0703	0.0248
710.2507	-0.0135
710.4311	-0.0166
710.6115	0.0141
710.7918	0.0102
710.9721	-0.0025
711.1524	-0.0423
711.3327	-0.0166
711.513	0.0149
711.6932	0.0119
711.8735	-0.0052
712.0537	-0.0262
712.2339	0.0185
712.4141	0.0155
712.5942	-0.0245
712.7744	0.0265
712.9545	0.0149
713.1346	0.0222
713.3147	0.0145
713.4947	-0.0022
713.6748	0.005
713.8548	0.0399
714.0348	-0.0074
714.2148	-0.0023
714.3948	0.0201
714.5748	0.0129
714.7547	0.0265
714.9346	0.0134
715.1145	0.028
715.2944	-0.0277
715.4743	0.0383
715.6541	-0.0107
715.834	0.0263
716.0138	0.0125
716.1936	-0.0308
716.3733	0.0137
716.5531	0.0042
716.7328	0.0157
716.9126	-0.011
717.0923	-0.0186
717.2719	-0.0282
717.4516	0.0358
717.6312	-0.0075
717.8109	0.0364
717.9905	0.0159
718.1701	0.021
718.3496	-0.0185
718.5292	-0.0072
718.7087	-0.0194
718.8882	0.0168
719.0677	0.0084
719.2472	-0.0022
719.4267	-0.0056
719.6061	0.0008
719.7856	0.0436
719.965	0.0136
720.1443	-0.0169
720.3237	0.0003
720.5031	-0.002
720.6824	0.0111
720.8617	0.009
721.041	0.026
721.2203	-0.0271
721.3995	-0.0151
721.5788	-0.0059
721.758	-0.0184
721.9372	0.0176
722.1164	-0.006
722.2956	-0.0177
722.4747	0.0182
722.6538	0.0115
722.8329	0.0104
723.012	0.0151
723.1911	0.0016
723.3702	0.0182
723.5492	-0.025
723.7282	-0.0144
723.9072	0.0025
724.0862	0.0049
724.2652	0.0108
724.4441	0.0007
724.623	-0.0023
724.8019	-0.0064
724.9808	0.0061
725.1597	-0.0138
725.3385	0.0057
725.5174	0.0033
725.6962	0.0227
725.875	0.0209
726.0538	0.0055
726.2325	0.0319
726.4112	-0.0279
726.59	0.0201
726.7687	-0.0042
726.9474	0.006
727.126	0.0408
727.3047	-0.0071
727.4833	0.0145
727.6619	-0.0131
727.8405	0.0068
728.0191	0.0161
728.1976	0.01
728.3762	0.0293
728.5547	-0.013
728.7332	0.0284
728.9116	0.0064
729.0901	-0.0069
729.2686	0.0108
729.447	0.0047
729.6254	0.0241
729.8038	0.0134
729.9821	-0.023
730.1605	-0.004
730.3388	0.001
730.5171	0.0119
730.6954	-0.0256
730.8737	0.0247
731.0519	-0.0038
731.2302	0.0144
731.4084	0.0066
731.5866	-0.0134
731.7648	0.0099
731.9429	0.0265
732.1211	0.0187
732.2992	-0.008
732.4773	-0.0099
732.6554	-0.0126
732.8335	0.0263
733.0115	0.0131
733.1896	0.0024
733.3676	0.004
733.5456	-0.0032
733.7235	0.006
733.9015	-0.0088
734.0794	-0.0102
734.2574	-0.0102
734.4353	-0.0025
734.6131	0.0005
734.791	-0.0012
734.9689	-0.0051
735.1467	-0.0136
735.3245	0.0141
735.5023	0.027
735.68	-0.009
735.8578	0.0054
736.0355	0.0102
736.2132	0.0101
736.3909	0.0045
736.5686	-0.006
736.7463	-0.0426
736.9239	0.0348
737.1015	0.0153
737.2791	-0.0135
737.4567	0.0053
737.6343	-0.0144
737.8118	0.0257
737.9894	-0.0008
738.1669	-0.0128
738.3444	0.0321
738.5218	-0.0331
738.6993	0.0339
738.8767	-0.0067
739.0541	-0.0013
739.2315	0.0093
739.4089	0.0033
739.5863	-0.015
739.7636	-0.0173
739.9409	-0.0058
740.1182	0.0015
740.2955	0.0364
740.4728	-0.0057
740.65	-0.0088
740.8272	0.0267
741.0044	-0.0287
741.1816	-0.0104
741.3588	-0.0314
741.5359	-0.0036
741.7131	-0.0023
741.8902	-0.007
742.0673	-0.0245
742.2444	0.0237
742.4214	0.0293
742.5985	-0.01
742.7755	-0.0153
742.9525	-0.0396
743.1295	-0.0207
743.3064	-0.0059
743.4834	0.0161
743.6603	0.0371
743.8372	-0.0713
744.0141	0.0197
744.191	0.0009
744.3678	-0.0357
744.5446	-0.0028
744.7215	0.0143
744.8982	0.013
745.075	0.0111
745.2518	-0.0135
745.4285	0.0282
745.6052	-0.0404
745.7819	-0.0228
745.9586	0.0086
746.1353	-0.0258
746.3119	-0.0107
746.4885	0.0296
746.6651	0.0012
746.8417	-0.0009
747.0183	0.0307
747.1948	0.0082
747.3714	0.0051
747.5479	0.0153
747.7244	-0.0264
747.9008	-0.0045
748.0773	0.0295
748.2537	0.0202
748.4301	0.0107
748.6065	-0.0139
748.7829	-0.0112
748.9593	-0.008
749.1356	-0.0038
749.3119	0.0009
749.4882	0.0201
749.6645	-0.0111
749.8408	0.0297
750.017	-0.0016
750.1933	-0.0068
750.3695	0.0105
750.5457	0.0033
750.7218	-0.0051
750.898	-0.0061
751.0741	0.008
751.2502	0.015
751.4263	0.0076
751.6024	-0.0065
751.7784	0.0035
751.9545	-0.0163
752.1305	0.0079
752.3065	0.005
752.4825	-0.0127
752.6584	-0.0032
752.8344	-0.0095
753.0103	-0.0097
753.1862	-0.0004
753.3621	0.0122
753.5379	-0.0136
753.7138	-0.0081
753.8896	0.0102
754.0654	-0.0144
754.2412	0.0073
754.417	0.0108
754.5927	0.012
754.7685	0.0264
754.9442	0.0288
755.1199	0.0102
755.2956	0.0092
755.4712	0.0065
755.6469	-0.0139
755.8225	0.0135
755.9981	0.022
756.1736	0.0069
756.3492	-0.0058
756.5248	0.0213
756.7003	0.0106
756.8758	-0.0017
757.0513	-0.022
757.2267	-0.0027
757.4022	-0.0057
757.5776	-0.0103
757.753	0.0176
757.9284	-0.0044
758.1038	0.0177
758.2791	0.0151
758.4545	-0.0103
758.6298	-0.0082
758.8051	0.0244
758.9803	0.0012
759.1556	-0.0137
759.3308	0.0075
759.506	0.0118
759.6812	-0.0022
759.8564	-0.0081
760.0316	-0.0021
760.2067	0.0198
760.3819	-0.0034
760.557	-0.0275
760.732	0.0088
760.9071	0.0228
761.0821	-0.0071
761.2572	0.0072
761.4322	0.0086
761.6072	0.0068
761.7821	-0.0087
761.9571	0.001
762.132	-0.0136
762.3069	0.0148
762.4818	-0.0143
762.6567	-0.0037
762.8316	0.0083
763.0064	0.0145
763.1812	-0.0156
763.356	0.0017
763.5308	0.0078
763.7055	-0.0035
763.8803	-0.01
764.055	-0.0204
764.2297	-0.0022
764.4044	-0.0057
764.579	-0.0003
764.7537	0.0021
764.9283	0.0136
765.1029	0.0139
765.2775	0.0028
765.4521	-0.0006
765.6266	0.0168
765.8011	0.0176
765.9756	0.0172
766.1501	-0.0125
766.3246	0.0119
766.4991	0.0333
766.6735	-0.0049
766.8479	-0.0127
767.0223	0.0087
767.1967	0.0196
767.371	0.0409
767.5454	0.0166
767.7197	0.0264
767.894	-0.0037
768.0683	0.0127
768.2425	0.0415
768.4168	-0.0034
768.591	-0.0115
768.7652	-0.009
768.9394	-0.0058
769.1135	-0.0158
769.2877	0.0135
769.4618	0.0115
769.6359	0.0037
769.81	0.0261
769.984	0.0183
770.1581	0.0113
770.3321	0.0185
770.5061	-0.0117
770.6801	0.0264
770.8541	0.0034
771.028	0.0353
771.202	0.0168
771.3759	-0.007
771.5498	0.0157
771.7236	0.0276
771.8975	0.0325
772.0713	-0.0091
772.2451	-0.0011
772.4189	-0.0111
772.5927	-0.0251
772.7665	0.0024
772.9402	-0.0079
773.1139	-0.0304
773.2876	-0.0093
773.4613	0.0248
773.635	0.0459
773.8086	0.0061
773.9822	0.0108
774.1558	0.0309
774.3294	-0.0161
774.503	-0.0191
774.6765	-0.0055
774.8501	0.0159
775.0236	0.0723
775.1971	-0.0318
775.3705	-0.0086
775.544	-0.0188
775.7174	0.0081
775.8908	0.0325
776.0642	-0.0264
776.2376	0.0247
776.4109	-0.0227
776.5843	-0.0054
776.7576	0.036
776.9309	-0.0245
777.1041	-0.0318
777.2774	-0.0075
777.4506	0.0007
777.6238	0.0043
777.797	0.0156
777.9702	0.0065
778.1434	0.0099
778.3165	-0.0235
778.4896	-0.0332
778.6627	-0.0125
778.8358	-0.0388
779.0089	-0.0325
779.1819	0.0305
779.3549	-0.0126
779.5279	-0.0066
779.7009	0.0539
779.8739	0.0406
780.0468	-0.0392
780.2197	-0.0041
780.3926	-0.0001
780.5655	0.0145
780.7384	0.0275
780.9112	-0.0148
781.0841	0.0107
781.2569	0.0336
781.4297	0.0161
781.6024	0.0262
781.7752	0.0212
781.9479	0.0228
782.1206	-0.0207
782.2933	0.0196
782.466	0.0268
782.6386	-0.0245
782.8113	0.0117
782.9839	-0.0024
783.1565	-0.0104
783.329	-0.0221
783.5016	0.0022
783.6741	-0.0115
783.8466	0.0147
784.0191	0.0061
784.1916	0.007
784.3641	-0.0416
784.5365	0.0405
784.7089	-0.0189
784.8813	0.0466
785.0537	0.0468
785.2261	-0.026
785.3984	-0.0001
785.5707	-0.0082
785.743	0.0315
785.9153	-0.0238
786.0876	-0.0217
786.2598	0.026
786.432	-0.0023
786.6042	0.0299
786.7764	-0.0787
786.9486	0.0139
787.1207	0.0346
787.2928	0.036
787.4649	-0.0046
787.637	-0.0042
787.8091	0.0327
787.9811	0.0162
788.1532	0.0045
788.3252	0.0063
788.4972	0.0184
788.6691	-0.0013
788.8411	0.0066
789.013	0.0049
789.1849	-0.0289
789.3568	0.0368
789.5287	0.0782
789.7005	-0.0601
789.8723	-0.0404
790.0442	-0.0167
790.2159	-0.0053
790.3877	0.0061
790.5595	0.0469
790.7312	-0.031
790.9029	0.0039
791.0746	0.0279
791.2463	-0.0139
791.4179	-0.0044
791.5896	0.0432
791.7612	-0.0149
791.9328	-0.0173
792.1044	0.0354
792.2759	-0.0884
792.4474	-0.015
792.619	-0.0423
792.7905	0.0208
792.9619	0.0354
793.1334	0.0763
793.3048	0.055
793.4762	0.0214
793.6476	-0.0254
793.819	-0.0215
793.9904	0.0248
794.1617	-0.0307
794.333	0.0219
794.5043	0.0022
794.6756	-0.0182
794.8469	0.0036
795.0181	0.0081
795.1893	0.003
795.3605	0.0401
795.5317	-0.0203
795.7029	0.0024
795.874	0.0045
796.0452	-0.0072
796.2163	0.0552
796.3873	0.0523
796.5584	-0.016
796.7294	0.0419
796.9005	0.0162
797.0715	-0.0522
797.2425	0.0148
797.4134	0.0537
797.5844	-0.0051
797.7553	-0.0548
797.9262	0.0743
798.0971	0.0332
798.2679	0.0133
798.4388	0.0253
798.6096	0.0053
798.7804	-0.0285
798.9512	-0.0402
799.122	-0.0153
799.2927	0.0921
799.4635	0.0042
799.6342	-0.0369
799.8049	0.0201
799.9755	0.003
800.1462	-0.0056
800.3168	0.0051
800.4874	-0.1249
800.658	-0.0284
800.8286	-0.0033
800.9991	-0.0142
801.1696	-0.0017
801.3402	0.016
801.5106	-0.0978
801.6811	-0.0796
801.8516	0.0764
802.022	0.0035
802.1924	-0.0439
802.3628	-0.0232
802.5332	0.1641
802.7035	0.0142
802.8739	-0.0321
803.0442	-0.0771
803.2145	0.0667
803.3847	0.0285
803.555	0.0685
803.7252	0.0069
803.8954	-0.041
804.0656	-0.0136
804.2358	0.0728
804.4059	0.0171
804.5761	-0.0133
804.7462	-0.0238
804.9163	-0.0478
805.0864	-0.0354
805.2564	-0.095
805.4264	-0.0305
805.5965	-0.0127
805.7665	-0.0477
805.9364	-0.0095
806.1064	-0.0014
806.2763	0.0383
806.4462	0.0187
806.6161	0.0069
806.786	0.014
806.9559	0.0157
807.1257	-0.0408
807.2955	-0.0102
807.4653	0.0463
807.6351	0.0084
807.8048	0.0207
807.9746	-0.0149
808.1443	0.0025
808.314	0.0226
808.4837	0.0555
808.6533	-0.0065
808.8229	0.0388
808.9926	0.0066
809.1622	0.039
809.3317	-0.0505
809.5013	-0.0252
809.6708	0.0098
809.8403	-0.0239
810.0098	0.0967
810.1793	-0.0715
810.3488	-0.0646
810.5182	0.1164
810.6876	-0.0211
810.857	-0.0026
811.0264	-0.1029
811.1958	0.079
811.3651	-0.0321
811.5344	0.1948
811.7037	0.1103
811.873	0.053
812.0422	-0.222
812.2115	-0.0164
812.3807	-0.1455
812.5499	0.0022
812.7191	-0.0903
812.8882	-0.0036
813.0574	-0.0875
813.2265	-0.1061
813.3956	0.0794
813.5646	0.0019
813.7337	0.0736
813.9027	-0.1087
814.0718	0.1078
814.2407	0.0617
814.4097	0.0268
814.5787	0.0971
814.7476	0.0314
814.9165	0.0904
815.0854	0.0151
815.2543	0.0387
815.4232	0.0823
815.592	0.039
815.7608	-0.2107
815.9296	0.0108
816.0984	0.2611
816.2671	-0.3884
816.4359	0.0365
816.6046	0.0831
816.7733	-0.1712
816.942	-0.0338
817.1106	0.1294
817.2793	-0.0671
817.4479	0.002
817.6165	-0.0257
817.785	0.0626
817.9536	-0.046
818.1221	0.0208
818.2906	0.1008
818.4591	0.0825
818.6276	0.074
818.7961	0.0359
818.9645	-0.0959
819.1329	-0.1601
819.3013	-0.102
819.4697	-0.1067
819.638	-0.0672
819.8064	-0.0381
819.9747	-0.081
820.143	-0.0421
820.3113	0.0058
820.4795	-0.0444
820.6477	-0.0564
820.816	-0.0159
820.9842	0.0298
821.1523	0.2211
821.3205	-0.0315
821.4886	-0.0281
821.6567	-0.0773
821.8248	0.052
821.9929	-0.1158
822.1609	-0.039
822.329	-0.1212
822.497	-0.0448
822.665	-0.0225
822.833	-0.1323
823.0009	-0.0596
823.1688	0.1204
823.3367	-0.0948
823.5046	0.1211
823.6725	-0.0441
823.8404	0.3063
824.0082	-0.1249
824.176	-0.0786
824.3438	0.5749
824.5116	0.0059
824.6793	0.0545
824.847	0.3848
825.0147	-0.0424
825.1824	0.0815
825.3501	-0.0786
825.5177	-0.077
825.6854	-0.1621
825.853	-0.0006
826.0206	0.0178
826.1881	-0.0006
826.3557	-0.0145
826.5232	0.1005
826.6907	0.0139
826.8582	-0.0751
827.0257	0.21
827.1931	0.0522
827.3605	-0.1481
827.528	-0.0405
827.6953	-0.2035
827.8627	-0.0578
828.03	0.1366
828.1974	-0.039
828.3647	-0.0292
828.532	-0.0739
828.6992	0.142
828.8665	-0.1012
829.0337	0.0728
829.2009	0.0717
829.3681	-0.0252
829.5352	-0.2776
829.7024	0.1803
829.8695	-0.0081
830.0366	0.08
830.2037	0.0188
830.3707	0.077
830.5378	-0.1793
830.7048	-0.1107
830.8718	0.3057
831.0388	-0.0114
831.2057	-0.073
831.3727	0.482
831.5396	0.056
831.7065	-0.9637
831.8734	0.2432
832.0402	0.1299
832.2071	-0.7338
832.3739	0.0217
832.5407	-1.4581
832.7075	-0.4083
832.8742	-0
833.041	0.0141
833.2077	0.3789
833.3744	0.0075
833.541	-0.0652
833.7077	-0.2772
833.8743	0.0164
834.0409	0.1625
834.2075	-0.0106
834.3741	0.0205
834.5407	-0.128
834.7072	0.0369
834.8737	-0.0693
835.0402	0.0229
835.2067	-0.1164
835.3731	-0.142
835.5395	0.026
835.706	0.0191
835.8723	-0.001
836.0387	0.1371
836.2051	0.456
836.3714	0.0894
836.5377	-0.0319
836.704	0.3394
836.8703	-0.1414
837.0365	-0.4958
837.2027	-0.0092
837.3689	0.3331
837.5351	0.5992
837.7013	-0.2732
837.8674	-0.2538
838.0335	-0.2294
838.1997	0.2794
838.3657	-0
838.5318	-0
838.6978	-0.0297
838.8639	-0.4189
839.0299	-0.1868
839.1958	0.114
839.3618	0.1022
839.5277	-0.1216
839.6937	-0.1033
839.8596	-0.2414
840.0254	-0.1726
840.1913	-0.2602
840.3571	-0.1916
840.523	-0
840.6888	0.0442
840.8545	-0.6197
841.0203	0.0743
841.186	-0.1173
841.3517	-0.1815
841.5174	0.3286
841.6831	-0.0502
841.8488	0.1716
842.0144	0.0839
842.18	0.4383
842.3456	-0.7047
842.5112	-0
842.6767	-0.1896
842.8422	-0.1442
843.0077	-0.0525
843.1732	-0.0621
843.3387	-0.1378
843.5042	-0
843.6696	-0.2137
843.835	0.0237
844.0004	-0.3519
844.1657	-1.194
844.3311	0.6186
844.4964	-0.8126
844.6617	0.1243
844.827	-0
844.9923	0.1546
845.1575	-0.0039
845.3227	-0.4349
845.4879	-0.5165
845.6531	-0.0609
845.8183	-0.1784
845.9834	-0
846.1485	0.2082
846.3136	-0.0351
846.4787	-0
846.6438	-0.0022
846.8088	0.4153
846.9738	-0.5628
847.1388	0.14
847.3038	0.1485
847.4687	-0
847.6337	1.1496
847.7986	-0.3642
847.9635	-0.1532
848.1284	0.6207
848.2932	-0.1832
848.458	-0
848.6228	-0.0574
848.7876	-0.3831
848.9524	-0.5974
849.1172	-2.0585
849.2819	-0.7975
849.4466	-0.0359
849.6113	-0.0013
849.7759	0.7385
849.9406	-0.2624
850.1052	-0.2398
850.2698	-0
850.4344	-0.8741
850.599	0.6102
850.7635	-0.2138
850.928	0.7235
851.0925	0.3469
851.257	0.0857
851.4215	0.148
851.5859	0.2432
851.7503	-0
851.9147	-0.5416
852.0791	0.0436
852.2434	0.4859
852.4078	-0
852.5721	0.5392
852.7364	0.0196
852.9007	-0.2009
853.0649	-0
853.2291	-0.0107
853.3934	-0
853.5575	0.1477
853.7217	0.0462
853.8859	-0.3324
854.05	-0.0041
854.2141	0.0962
854.3782	-0.169
854.5423	-0.4688
854.7063	-0.2335
854.8703	0.5363
855.0343	-0.2343
855.1983	0.161
855.3623	-0.1493
855.5262	-0
855.6901	0.2896
855.854	0.0359
856.0179	-0.3429
856.1818	-0.0563
856.3456	0.0425
856.5094	-0.8203
856.6732	0.2218
856.837	-1.1761
857.0008	-0.3619
857.1645	-0.4465
857.3282	-0.6734
857.4919	-0.1568
857.6556	0.3558
857.8192	-0.1715
857.9828	-0.1275
858.1465	0.1325
858.31	0.568
858.4736	0.3893
858.6372	-0.6539
858.8007	0.3701
858.9642	0.2683
859.1277	-0
859.2911	-0.6751
859.4546	-0
859.618	-0.0013
859.7814	-0
859.9448	0.9766
860.1081	-0
860.2715	-1.2231
860.4348	0.2531
860.5981	0.0136
860.7614	0.4898
860.9246	0.0383
861.0879	0.6444
861.2511	-0.1508
861.4143	-0
861.5774	1.5156
861.7406	1.0911
861.9037	-0
862.0668	-0.1681
862.2299	0.2069
862.393	0.3549
862.556	-0
862.7191	-0
862.8821	0.0633
863.0451	0.0467
863.208	-0.388
863.371	-0.7453
863.5339	0.1459
863.6968	0.719
863.8597	-0
864.0225	0.4242
864.1854	-0.3638
864.3482	-0
864.511	0.0598
864.6737	-0
864.8365	0.0852
864.9992	-0
865.1619	-0.5909
865.3246	-1.8463
865.4873	-0.8891
865.65	0.1097
865.8126	-0.2092
865.9752	0.1666
866.1378	0.1215
866.3004	-0.2578
866.4629	-1.3724
866.6254	-0.0417
866.7879	-0.1743
866.9504	-0
867.1129	-0.0853
867.2753	-0.3836
867.4377	-0.0591
867.6001	-0
867.7625	-0.0905
867.9249	-0.4368
868.0872	-0.1849
868.2495	1.7225
868.4118	-0
868.5741	-0.1719
868.7363	-0
868.8986	0.8282
869.0608	0.5853
869.223	-0.14
869.3851	-0
869.5473	-0.0936
869.7094	0.0533
869.8715	-0.7413
870.0336	-0.0424
870.1957	-0
870.3577	-0
870.5197	-0.4125
870.6817	-0.2516
870.8437	0.0532
871.0057	-0
871.1676	0.3164
871.3295	-0
871.4914	-0
871.6533	-0.3077
871.8151	0.3667
871.977	0.433
872.1388	0.0427
872.3006	-0.9162
872.4623	-0.7225
872.6241	0.0092
872.7858	0.0747
872.9475	-0
873.1092	0.1603
873.2709	0.8253
873.4325	-1.7874
873.5941	-0.1827
873.7557	0.1141
873.9173	-0.2344
874.0789	0.2526
874.2404	-0
874.4019	-0.2675
874.5634	-0
874.7249	-0
874.8863	0.1187
875.0478	-0.3887
875.2092	-0
875.3706	0.6919
875.5319	-0
875.6933	0.2363
875.8546	0.0256
876.0159	0.4571
876.1772	-0
876.3385	1.1119
876.4997	0.6702
876.6609	-0
876.8221	-0
876.9833	0.9984
877.1445	0.1004
877.3056	-0.5768
877.4667	-0.8855
877.6278	-0
877.7889	-0.2062
877.9499	-0
878.111	-0.6268
878.272	-0
878.433	-0.3328
878.5939	-0.1746
878.7549	-0.2099
878.9158	0.4143
879.0767	-0.0815
879.2376	-0.5792
879.3984	-0
879.5593	0.5407
879.7201	-1.7219
879.8809	-0.156
880.0417	-0.3146
880.2024	0.4283
880.3632	-0.3948
880.5239	0.2503
880.6846	0.174
880.8452	0.4358
881.0059	-0
881.1665	0.3149
881.3271	0.6201
881.4877	-0
881.6483	-0
881.8088	-0
881.9693	-0
882.1298	-0
882.2903	-0
