Data from D4ACN5uM440nmA_Absorbance_13-50-24-621.txt Node
Date: Fri Feb 21 13:50:24 GMT 2025
User: LASERRRRR
Spectrometer: FLMT03099
Trigger mode: 0
Integration Time (sec): 1.500000E-2
Scans to average: 1
Electric dark correction enabled: true
Nonlinearity correction enabled: false
Boxcar width: 0
XAxis mode: Wavelengths
Number of Pixels in Spectrum: 3648
>>>>>Begin Spectral Data<<<<<
179.3399	-0.944
179.5586	-0.944
179.7771	-0.944
179.9957	-0.3934
180.2143	-0
180.4329	0.6364
180.6514	-0
180.8699	-0
181.0885	-0
181.307	0.3676
181.5255	0.1899
181.744	0.3809
181.9625	1.0166
182.181	0.1619
182.3994	-0.4895
182.6179	0.451
182.8363	0.2672
183.0547	-0
183.2732	0.0365
183.4916	0.2181
183.71	0.2203
183.9284	0.051
184.1467	-0.1069
184.3651	-0.0046
184.5835	0.0856
184.8018	0.2016
185.0201	0.2536
185.2385	0.0946
185.4568	0.1496
185.6751	0.1267
185.8934	0.1587
186.1117	-0.133
186.3299	0.0888
186.5482	0.1898
186.7664	0.0675
186.9847	-0.1801
187.2029	0.4468
187.4211	-0.0484
187.6393	0.0538
187.8575	0.1389
188.0757	0.0924
188.2939	0.1783
188.512	0.2762
188.7302	0.1497
188.9483	0.0041
189.1665	0.1912
189.3846	0.1001
189.6027	0.0696
189.8208	0.2457
190.0389	0.099
190.257	0.3283
190.475	-0.0408
190.6931	0.1816
190.9111	0.0437
191.1292	0.0478
191.3472	0.047
191.5652	0.3993
191.7832	0.2054
192.0012	0.1409
192.2192	0.1089
192.4371	0.1493
192.6551	0.2221
192.873	0.1581
193.091	0.155
193.3089	0.1531
193.5268	0.278
193.7447	0.125
193.9626	0.2842
194.1805	0.2139
194.3984	0.175
194.6162	0.3112
194.8341	0.319
195.0519	0.2559
195.2697	0.2798
195.4875	0.317
195.7054	0.2384
195.9231	0.2312
196.1409	0.2924
196.3587	0.3379
196.5765	0.27
196.7942	0.25
197.012	0.3178
197.2297	0.2812
197.4474	0.378
197.6651	0.3156
197.8828	0.3363
198.1005	0.3854
198.3182	0.3427
198.5358	0.3882
198.7535	0.4402
198.9711	0.3806
199.1888	0.402
199.4064	0.4054
199.624	0.3946
199.8416	0.3929
200.0592	0.4298
200.2767	0.387
200.4943	0.4395
200.7119	0.3806
200.9294	0.3791
201.1469	0.434
201.3645	0.4709
201.582	0.3705
201.7995	0.4115
202.017	0.4124
202.2344	0.399
202.4519	0.3592
202.6694	0.4043
202.8868	0.3916
203.1042	0.4135
203.3217	0.3858
203.5391	0.3846
203.7565	0.369
203.9739	0.3795
204.1913	0.3682
204.4086	0.3875
204.626	0.3862
204.8433	0.3485
205.0607	0.3648
205.278	0.3221
205.4953	0.3279
205.7126	0.3372
205.9299	0.3172
206.1472	0.3138
206.3644	0.3463
206.5817	0.302
206.7989	0.3454
207.0162	0.3384
207.2334	0.3297
207.4506	0.2947
207.6678	0.3053
207.885	0.3113
208.1022	0.2989
208.3194	0.2782
208.5365	0.3061
208.7537	0.3007
208.9708	0.2687
209.1879	0.3005
209.405	0.2744
209.6222	0.2784
209.8392	0.3128
210.0563	0.2738
210.2734	0.2551
210.4905	0.2618
210.7075	0.2757
210.9245	0.2557
211.1416	0.2726
211.3586	0.2764
211.5756	0.2562
211.7926	0.2744
212.0096	0.2658
212.2265	0.26
212.4435	0.2726
212.6604	0.2495
212.8774	0.2564
213.0943	0.2444
213.3112	0.2492
213.5281	0.2476
213.745	0.2488
213.9619	0.2328
214.1788	0.2523
214.3956	0.2614
214.6125	0.2661
214.8293	0.2495
215.0461	0.2424
215.2629	0.2542
215.4798	0.24
215.6965	0.2586
215.9133	0.2323
216.1301	0.2389
216.3469	0.2515
216.5636	0.2449
216.7803	0.2423
216.9971	0.2542
217.2138	0.2276
217.4305	0.2553
217.6472	0.2469
217.8639	0.2572
218.0805	0.2712
218.2972	0.2364
218.5138	0.2501
218.7305	0.2522
218.9471	0.2396
219.1637	0.2564
219.3803	0.2535
219.5969	0.2681
219.8135	0.2704
220.0301	0.2591
220.2466	0.2636
220.4632	0.2532
220.6797	0.2695
220.8962	0.2643
221.1127	0.2667
221.3292	0.2593
221.5457	0.2734
221.7622	0.2707
221.9787	0.2834
222.1951	0.2781
222.4116	0.2736
222.628	0.2782
222.8444	0.2816
223.0608	0.2717
223.2772	0.2788
223.4936	0.2821
223.71	0.2967
223.9264	0.2842
224.1427	0.2923
224.3591	0.2855
224.5754	0.2881
224.7917	0.2921
225.008	0.2962
225.2243	0.2925
225.4406	0.2962
225.6569	0.3132
225.8732	0.3176
226.0894	0.2899
226.3057	0.3105
226.5219	0.3162
226.7381	0.3352
226.9543	0.3151
227.1705	0.3072
227.3867	0.3287
227.6029	0.3306
227.8191	0.3349
228.0352	0.3461
228.2513	0.345
228.4675	0.341
228.6836	0.3497
228.8997	0.3455
229.1158	0.3566
229.3319	0.3574
229.548	0.3498
229.764	0.3482
229.9801	0.3766
230.1961	0.3769
230.4121	0.3738
230.6282	0.3702
230.8442	0.3785
231.0602	0.381
231.2761	0.388
231.4921	0.3831
231.7081	0.388
231.924	0.398
232.14	0.4009
232.3559	0.3988
232.5718	0.409
232.7877	0.4084
233.0036	0.4121
233.2195	0.4088
233.4353	0.4206
233.6512	0.4049
233.867	0.4198
234.0829	0.4209
234.2987	0.4225
234.5145	0.4268
234.7303	0.4243
234.9461	0.4367
235.1619	0.4444
235.3776	0.4394
235.5934	0.4203
235.8091	0.4419
236.0249	0.4542
236.2406	0.4368
236.4563	0.4505
236.672	0.4295
236.8877	0.4436
237.1034	0.445
237.319	0.4504
237.5347	0.445
237.7503	0.4391
237.966	0.4581
238.1816	0.4555
238.3972	0.451
238.6128	0.4649
238.8284	0.4674
239.0439	0.4587
239.2595	0.458
239.475	0.4629
239.6906	0.4506
239.9061	0.4581
240.1216	0.46
240.3371	0.4663
240.5526	0.4579
240.7681	0.457
240.9836	0.4599
241.199	0.4543
241.4145	0.4503
241.6299	0.453
241.8453	0.4358
242.0607	0.4405
242.2761	0.4305
242.4915	0.429
242.7069	0.4182
242.9223	0.4124
243.1376	0.4005
243.353	0.3961
243.5683	0.4032
243.7836	0.3836
243.9989	0.3721
244.2142	0.3712
244.4295	0.3681
244.6448	0.3657
244.86	0.3445
245.0753	0.3352
245.2905	0.3405
245.5057	0.3246
245.721	0.333
245.9362	0.3199
246.1514	0.314
246.3665	0.3036
246.5817	0.2917
246.7969	0.2936
247.012	0.287
247.2271	0.2932
247.4423	0.2825
247.6574	0.2776
247.8725	0.268
248.0876	0.2644
248.3026	0.2632
248.5177	0.2548
248.7328	0.2514
248.9478	0.2429
249.1628	0.241
249.3779	0.2415
249.5929	0.2376
249.8079	0.2342
250.0228	0.2334
250.2378	0.2358
250.4528	0.2257
250.6677	0.2251
250.8827	0.2134
251.0976	0.2173
251.3125	0.2178
251.5274	0.2099
251.7423	0.2049
251.9572	0.2121
252.172	0.2058
252.3869	0.2033
252.6017	0.1974
252.8166	0.1936
253.0314	0.1989
253.2462	0.1953
253.461	0.1959
253.6758	0.1995
253.8906	0.1966
254.1053	0.1913
254.3201	0.186
254.5348	0.1819
254.7496	0.1839
254.9643	0.1884
255.179	0.184
255.3937	0.1865
255.6083	0.1903
255.823	0.192
256.0377	0.1779
256.2523	0.1838
256.467	0.1784
256.6816	0.1796
256.8962	0.1822
257.1108	0.1802
257.3254	0.1829
257.54	0.1773
257.7545	0.1857
257.9691	0.1803
258.1836	0.1785
258.3981	0.1806
258.6127	0.1712
258.8272	0.1789
259.0417	0.1735
259.2561	0.1754
259.4706	0.1732
259.6851	0.1776
259.8995	0.1749
260.114	0.1765
260.3284	0.1744
260.5428	0.1782
260.7572	0.1704
260.9716	0.179
261.186	0.1724
261.4003	0.1686
261.6147	0.1771
261.829	0.1713
262.0433	0.1716
262.2577	0.1725
262.472	0.1734
262.6863	0.1774
262.9005	0.173
263.1148	0.1771
263.3291	0.1724
263.5433	0.1795
263.7576	0.1789
263.9718	0.1768
264.186	0.1738
264.4002	0.1757
264.6144	0.186
264.8286	0.1799
265.0427	0.1772
265.2569	0.185
265.471	0.1823
265.6851	0.1784
265.8993	0.1716
266.1134	0.1774
266.3275	0.1765
266.5415	0.1724
266.7556	0.1848
266.9697	0.1817
267.1837	0.1812
267.3978	0.1829
267.6118	0.1732
267.8258	0.1718
268.0398	0.1815
268.2538	0.177
268.4677	0.1687
268.6817	0.1745
268.8957	0.1672
269.1096	0.1641
269.3235	0.1728
269.5374	0.1731
269.7514	0.1727
269.9652	0.1738
270.1791	0.1693
270.393	0.1753
270.6068	0.1732
270.8207	0.1722
271.0345	0.1678
271.2483	0.1644
271.4622	0.1703
271.676	0.1677
271.8897	0.1643
272.1035	0.1734
272.3173	0.1693
272.531	0.1675
272.7448	0.165
272.9585	0.1646
273.1722	0.1681
273.3859	0.1668
273.5996	0.1721
273.8133	0.1665
274.0269	0.1669
274.2406	0.1646
274.4542	0.1658
274.6679	0.1694
274.8815	0.1726
275.0951	0.1766
275.3087	0.1733
275.5223	0.1676
275.7358	0.1764
275.9494	0.174
276.1629	0.1742
276.3765	0.1718
276.59	0.1644
276.8035	0.1716
277.017	0.1747
277.2305	0.1742
277.444	0.1722
277.6574	0.1705
277.8709	0.1761
278.0843	0.1737
278.2978	0.1794
278.5112	0.1747
278.7246	0.1748
278.938	0.1753
279.1513	0.1755
279.3647	0.177
279.5781	0.1699
279.7914	0.179
280.0047	0.1784
280.2181	0.1719
280.4314	0.1789
280.6447	0.1839
280.8579	0.1696
281.0712	0.1727
281.2845	0.1772
281.4977	0.1818
281.711	0.1718
281.9242	0.1801
282.1374	0.1762
282.3506	0.1751
282.5638	0.1781
282.7769	0.1788
282.9901	0.18
283.2033	0.1744
283.4164	0.1813
283.6295	0.182
283.8426	0.1774
284.0557	0.1837
284.2688	0.1836
284.4819	0.1789
284.695	0.181
284.908	0.177
285.1211	0.1836
285.3341	0.1868
285.5471	0.1844
285.7601	0.1843
285.9731	0.1849
286.1861	0.1909
286.3991	0.1888
286.612	0.1873
286.825	0.1867
287.0379	0.1855
287.2508	0.1863
287.4637	0.1897
287.6766	0.1916
287.8895	0.1873
288.1024	0.1904
288.3152	0.1878
288.5281	0.188
288.7409	0.1943
288.9538	0.1865
289.1666	0.1875
289.3794	0.1877
289.5922	0.1882
289.8049	0.1871
290.0177	0.1891
290.2304	0.1929
290.4432	0.1972
290.6559	0.1953
290.8686	0.1946
291.0813	0.1903
291.294	0.189
291.5067	0.188
291.7194	0.1973
291.932	0.1868
292.1447	0.1935
292.3573	0.194
292.5699	0.1916
292.7825	0.1946
292.9951	0.1859
293.2077	0.1897
293.4203	0.1905
293.6328	0.1911
293.8454	0.1968
294.0579	0.1882
294.2704	0.1976
294.4829	0.1903
294.6954	0.1932
294.9079	0.1894
295.1204	0.1877
295.3328	0.1962
295.5453	0.1963
295.7577	0.1909
295.9701	0.1952
296.1825	0.1985
296.3949	0.1942
296.6073	0.1886
296.8197	0.1896
297.0321	0.1929
297.2444	0.189
297.4567	0.2008
297.6691	0.1912
297.8814	0.1927
298.0937	0.191
298.306	0.1883
298.5182	0.1964
298.7305	0.1954
298.9428	0.1934
299.155	0.1872
299.3672	0.1995
299.5794	0.1943
299.7916	0.1894
300.0038	0.1948
300.216	0.1899
300.4282	0.1919
300.6403	0.1932
300.8525	0.1958
301.0646	0.1948
301.2767	0.1933
301.4888	0.1922
301.7009	0.1974
301.913	0.1925
302.125	0.1899
302.3371	0.1928
302.5491	0.1937
302.7612	0.1967
302.9732	0.1931
303.1852	0.1962
303.3972	0.1952
303.6092	0.1881
303.8211	0.1967
304.0331	0.1903
304.245	0.1915
304.457	0.1854
304.6689	0.1872
304.8808	0.191
305.0927	0.1924
305.3046	0.1838
305.5164	0.186
305.7283	0.1833
305.9401	0.177
306.152	0.1801
306.3638	0.1822
306.5756	0.1812
306.7874	0.1773
306.9992	0.1733
307.2109	0.1708
307.4227	0.17
307.6344	0.1784
307.8462	0.1657
308.0579	0.174
308.2696	0.1672
308.4813	0.1678
308.693	0.1611
308.9046	0.1648
309.1163	0.1613
309.328	0.1563
309.5396	0.1534
309.7512	0.1498
309.9628	0.156
310.1744	0.152
310.386	0.1486
310.5976	0.1502
310.8091	0.1514
311.0207	0.1456
311.2322	0.1445
311.4437	0.1425
311.6552	0.144
311.8667	0.1434
312.0782	0.1408
312.2897	0.1396
312.5012	0.1388
312.7126	0.134
312.924	0.1405
313.1355	0.1345
313.3469	0.1357
313.5583	0.1365
313.7696	0.1282
313.981	0.1383
314.1924	0.1257
314.4037	0.1262
314.6151	0.131
314.8264	0.1309
315.0377	0.1303
315.249	0.1296
315.4603	0.1237
315.6716	0.127
315.8828	0.1277
316.0941	0.1249
316.3053	0.1168
316.5165	0.124
316.7277	0.1164
316.9389	0.1241
317.1501	0.1241
317.3613	0.1211
317.5724	0.125
317.7836	0.1193
317.9947	0.1251
318.2058	0.1187
318.417	0.1247
318.6281	0.115
318.8391	0.1217
319.0502	0.1211
319.2613	0.1235
319.4723	0.1194
319.6834	0.1204
319.8944	0.1204
320.1054	0.1208
320.3164	0.1153
320.5274	0.1211
320.7383	0.1232
320.9493	0.1162
321.1602	0.1224
321.3712	0.1255
321.5821	0.1173
321.793	0.128
322.0039	0.1212
322.2148	0.1228
322.4257	0.1205
322.6365	0.1212
322.8474	0.1264
323.0582	0.1175
323.269	0.1267
323.4798	0.1198
323.6906	0.1213
323.9014	0.1186
324.1122	0.1124
324.3229	0.1227
324.5337	0.1288
324.7444	0.121
324.9551	0.1269
325.1658	0.1252
325.3765	0.1255
325.5872	0.1198
325.7979	0.1291
326.0085	0.123
326.2192	0.1201
326.4298	0.1263
326.6404	0.1286
326.851	0.1227
327.0616	0.1261
327.2722	0.1261
327.4828	0.1222
327.6933	0.1355
327.9039	0.1303
328.1144	0.1271
328.3249	0.1234
328.5354	0.131
328.7459	0.1225
328.9564	0.1255
329.1669	0.1302
329.3773	0.1236
329.5878	0.1277
329.7982	0.1294
330.0086	0.1238
330.219	0.1302
330.4294	0.1317
330.6398	0.1256
330.8502	0.1328
331.0605	0.1282
331.2708	0.133
331.4812	0.1256
331.6915	0.1309
331.9018	0.1314
332.1121	0.1356
332.3224	0.129
332.5326	0.1242
332.7429	0.1304
332.9531	0.1327
333.1633	0.125
333.3735	0.1254
333.5837	0.1342
333.7939	0.1308
334.0041	0.137
334.2143	0.1324
334.4244	0.1458
334.6346	0.131
334.8447	0.1288
335.0548	0.1371
335.2649	0.1341
335.475	0.1387
335.685	0.1378
335.8951	0.1298
336.1051	0.1367
336.3152	0.1395
336.5252	0.1271
336.7352	0.135
336.9452	0.1367
337.1552	0.1369
337.3652	0.1301
337.5751	0.1318
337.7851	0.1358
337.995	0.1396
338.2049	0.1396
338.4148	0.1421
338.6247	0.1375
338.8346	0.1376
339.0445	0.1365
339.2543	0.1401
339.4642	0.1388
339.674	0.1336
339.8838	0.1449
340.0936	0.1427
340.3034	0.139
340.5132	0.1353
340.7229	0.1454
340.9327	0.1488
341.1424	0.147
341.3522	0.1342
341.5619	0.1437
341.7716	0.1479
341.9813	0.1438
342.1909	0.1501
342.4006	0.152
342.6102	0.1437
342.8199	0.1498
343.0295	0.1421
343.2391	0.1524
343.4487	0.1507
343.6583	0.1589
343.8679	0.1411
344.0774	0.1462
344.287	0.1501
344.4965	0.1519
344.706	0.1571
344.9155	0.1483
345.125	0.1465
345.3345	0.1569
345.544	0.1461
345.7534	0.1564
345.9629	0.1623
346.1723	0.1611
346.3817	0.1561
346.5911	0.1608
346.8005	0.163
347.0099	0.1565
347.2193	0.1637
347.4286	0.166
347.638	0.1659
347.8473	0.1617
348.0566	0.1543
348.2659	0.1657
348.4752	0.1621
348.6845	0.1644
348.8937	0.1595
349.103	0.1583
349.3122	0.171
349.5214	0.1665
349.7306	0.1732
349.9398	0.1704
350.149	0.1615
350.3582	0.1748
350.5674	0.176
350.7765	0.174
350.9856	0.1632
351.1948	0.1739
351.4039	0.176
351.613	0.1739
351.822	0.1707
352.0311	0.1785
352.2402	0.1814
352.4492	0.1734
352.6582	0.1728
352.8672	0.182
353.0762	0.1744
353.2852	0.1789
353.4942	0.1814
353.7032	0.1781
353.9121	0.1768
354.1211	0.1858
354.33	0.1818
354.5389	0.1762
354.7478	0.1765
354.9567	0.1873
355.1655	0.1846
355.3744	0.1815
355.5833	0.1821
355.7921	0.1912
356.0009	0.1863
356.2097	0.181
356.4185	0.1839
356.6273	0.1854
356.8361	0.1867
357.0448	0.1828
357.2536	0.1839
357.4623	0.1899
357.671	0.1928
357.8797	0.1947
358.0884	0.188
358.2971	0.1912
358.5057	0.2
358.7144	0.1957
358.923	0.1977
359.1316	0.2039
359.3402	0.1977
359.5488	0.1925
359.7574	0.2106
359.966	0.2048
360.1746	0.203
360.3831	0.2029
360.5916	0.2076
360.8002	0.2063
361.0087	0.2107
361.2172	0.2093
361.4256	0.2035
361.6341	0.2098
361.8426	0.2127
362.051	0.2153
362.2594	0.2045
362.4678	0.2172
362.6762	0.2174
362.8846	0.2207
363.093	0.222
363.3014	0.2301
363.5097	0.2233
363.718	0.2243
363.9264	0.2234
364.1347	0.2177
364.343	0.2238
364.5513	0.2271
364.7595	0.2291
364.9678	0.2212
365.176	0.2339
365.3842	0.2322
365.5925	0.2226
365.8007	0.2333
366.0089	0.2401
366.217	0.2424
366.4252	0.2322
366.6333	0.2346
366.8415	0.2386
367.0496	0.2444
367.2577	0.2383
367.4658	0.227
367.6739	0.2322
367.882	0.2514
368.09	0.24
368.2981	0.2539
368.5061	0.2398
368.7141	0.2469
368.9221	0.255
369.1301	0.2523
369.3381	0.2499
369.5461	0.2545
369.754	0.2506
369.962	0.2486
370.1699	0.2684
370.3778	0.2685
370.5857	0.2561
370.7936	0.2553
371.0015	0.2572
371.2093	0.255
371.4172	0.2558
371.625	0.2537
371.8328	0.2524
372.0406	0.2596
372.2484	0.2615
372.4562	0.2584
372.664	0.2639
372.8717	0.2648
373.0795	0.2671
373.2872	0.2779
373.4949	0.265
373.7026	0.2655
373.9103	0.2615
374.118	0.2681
374.3256	0.2724
374.5333	0.2717
374.7409	0.2664
374.9485	0.2726
375.1561	0.2776
375.3637	0.2728
375.5713	0.2801
375.7789	0.2804
375.9864	0.2701
376.194	0.2835
376.4015	0.2777
376.609	0.2809
376.8165	0.2786
377.024	0.2853
377.2315	0.2801
377.4389	0.2707
377.6464	0.2879
377.8538	0.2859
378.0612	0.29
378.2686	0.2879
378.476	0.2957
378.6834	0.29
378.8908	0.2928
379.0981	0.2844
379.3055	0.297
379.5128	0.2876
379.7201	0.293
379.9274	0.2921
380.1347	0.2875
380.342	0.3038
380.5492	0.2933
380.7565	0.2953
380.9637	0.3002
381.1709	0.2908
381.3781	0.3076
381.5853	0.2955
381.7925	0.2978
381.9997	0.2991
382.2068	0.3089
382.4139	0.3079
382.6211	0.3064
382.8282	0.3142
383.0353	0.3083
383.2424	0.3061
383.4494	0.2985
383.6565	0.3105
383.8635	0.2997
384.0706	0.3028
384.2776	0.3061
384.4846	0.3119
384.6916	0.3001
384.8986	0.3153
385.1055	0.3223
385.3125	0.3162
385.5194	0.3163
385.7263	0.3062
385.9333	0.3109
386.1402	0.3114
386.347	0.3117
386.5539	0.3061
386.7608	0.3009
386.9676	0.3059
387.1744	0.3119
387.3813	0.3156
387.5881	0.2989
387.7948	0.3113
388.0016	0.3154
388.2084	0.3093
388.4151	0.3104
388.6219	0.303
388.8286	0.3079
389.0353	0.3131
389.242	0.3094
389.4487	0.3025
389.6553	0.2988
389.862	0.3029
390.0686	0.3028
390.2753	0.3082
390.4819	0.3052
390.6885	0.2967
390.8951	0.3003
391.1016	0.2985
391.3082	0.3007
391.5147	0.2982
391.7213	0.2916
391.9278	0.293
392.1343	0.2907
392.3408	0.2876
392.5473	0.2907
392.7537	0.2902
392.9602	0.2908
393.1666	0.2911
393.373	0.2781
393.5794	0.2822
393.7858	0.2878
393.9922	0.2783
394.1986	0.2853
394.4049	0.2764
394.6113	0.2804
394.8176	0.28
395.0239	0.2768
395.2302	0.2851
395.4365	0.2808
395.6428	0.2821
395.8491	0.2719
396.0553	0.2665
396.2615	0.2747
396.4678	0.2809
396.674	0.2615
396.8802	0.2652
397.0863	0.2708
397.2925	0.2716
397.4987	0.2673
397.7048	0.268
397.9109	0.2624
398.117	0.2685
398.3231	0.2652
398.5292	0.2611
398.7353	0.2618
398.9413	0.2611
399.1474	0.2686
399.3534	0.2666
399.5594	0.2633
399.7654	0.2617
399.9714	0.2553
400.1774	0.257
400.3833	0.2631
400.5893	0.2564
400.7952	0.2657
401.0011	0.2573
401.207	0.2705
401.4129	0.2461
401.6188	0.2621
401.8247	0.2735
402.0305	0.2625
402.2364	0.2689
402.4422	0.2652
402.648	0.258
402.8538	0.2517
403.0596	0.2546
403.2654	0.2651
403.4711	0.2599
403.6768	0.262
403.8826	0.2656
404.0883	0.256
404.294	0.2588
404.4997	0.2715
404.7054	0.2747
404.911	0.2668
405.1167	0.2671
405.3223	0.2552
405.5279	0.2697
405.7335	0.2593
405.9391	0.2653
406.1447	0.2673
406.3502	0.2633
406.5558	0.2578
406.7613	0.2549
406.9668	0.26
407.1724	0.2702
407.3778	0.2609
407.5833	0.26
407.7888	0.261
407.9942	0.258
408.1997	0.2609
408.4051	0.259
408.6105	0.2573
408.8159	0.2587
409.0213	0.2631
409.2267	0.2655
409.432	0.2572
409.6374	0.2655
409.8427	0.2594
410.048	0.2603
410.2533	0.2656
410.4586	0.2649
410.6639	0.2619
410.8691	0.2496
411.0744	0.2535
411.2796	0.2671
411.4848	0.258
411.69	0.2587
411.8952	0.255
412.1004	0.2635
412.3056	0.2535
412.5107	0.2555
412.7158	0.2588
412.921	0.2521
413.1261	0.2581
413.3312	0.2601
413.5362	0.264
413.7413	0.2518
413.9464	0.2461
414.1514	0.2521
414.3564	0.2608
414.5614	0.2504
414.7664	0.2537
414.9714	0.2514
415.1764	0.2531
415.3813	0.247
415.5863	0.2611
415.7912	0.254
415.9961	0.261
416.201	0.2639
416.4059	0.2536
416.6108	0.2565
416.8156	0.2465
417.0205	0.2538
417.2253	0.2499
417.4301	0.251
417.6349	0.2432
417.8397	0.2477
418.0445	0.2432
418.2492	0.25
418.454	0.2358
418.6587	0.2602
418.8634	0.2422
419.0681	0.2588
419.2728	0.2493
419.4775	0.2577
419.6822	0.2398
419.8868	0.2456
420.0915	0.242
420.2961	0.234
420.5007	0.2536
420.7053	0.2442
420.9099	0.2404
421.1144	0.2299
421.319	0.2424
421.5235	0.2299
421.728	0.2432
421.9325	0.2436
422.137	0.241
422.3415	0.2377
422.546	0.2387
422.7504	0.2242
422.9549	0.2406
423.1593	0.2231
423.3637	0.2361
423.5681	0.2462
423.7725	0.2244
423.9769	0.2389
424.1812	0.2225
424.3856	0.2199
424.5899	0.227
424.7942	0.2278
424.9985	0.222
425.2028	0.2361
425.4071	0.2192
425.6113	0.2294
425.8156	0.2203
426.0198	0.2242
426.224	0.2261
426.4282	0.2086
426.6324	0.2113
426.8366	0.2206
427.0407	0.2109
427.2449	0.2162
427.449	0.2203
427.6531	0.2191
427.8572	0.2133
428.0613	0.2111
428.2654	0.2132
428.4694	0.1978
428.6735	0.2104
428.8775	0.2094
429.0815	0.2014
429.2855	0.1955
429.4895	0.1992
429.6935	0.1937
429.8975	0.1902
430.1014	0.2023
430.3053	0.2023
430.5093	0.1954
430.7132	0.1874
430.9171	0.1887
431.1209	0.1939
431.3248	0.1834
431.5286	0.1799
431.7325	0.1869
431.9363	0.1735
432.1401	0.1745
432.3439	0.1788
432.5477	0.1704
432.7514	0.1766
432.9552	0.1696
433.1589	0.1616
433.3627	0.1735
433.5664	0.1648
433.7701	0.1638
433.9737	0.177
434.1774	0.1567
434.3811	0.1499
434.5847	0.1608
434.7883	0.1627
434.9919	0.15
435.1955	0.1525
435.3991	0.1496
435.6027	0.1455
435.8062	0.159
436.0098	0.1434
436.2133	0.1442
436.4168	0.1404
436.6203	0.1401
436.8238	0.1341
437.0272	0.1355
437.2307	0.1354
437.4341	0.1338
437.6375	0.1316
437.841	0.1192
438.0443	0.1371
438.2477	0.1146
438.4511	0.1152
438.6545	0.1212
438.8578	0.1239
439.0611	0.125
439.2644	0.1241
439.4677	0.1242
439.671	0.1106
439.8743	0.1171
440.0775	0.12
440.2808	0.1147
440.484	0.1153
440.6872	0.1096
440.8904	0.093
441.0936	0.1152
441.2967	0.0966
441.4999	0.0949
441.703	0.0922
441.9062	0.1093
442.1093	0.1001
442.3124	0.0979
442.5155	0.1054
442.7185	0.0895
442.9216	0.086
443.1246	0.0886
443.3276	0.0878
443.5307	0.0925
443.7337	0.0926
443.9366	0.0788
444.1396	0.0743
444.3426	0.0831
444.5455	0.0801
444.7484	0.0738
444.9513	0.0763
445.1542	0.0798
445.3571	0.0793
445.56	0.0661
445.7628	0.0749
445.9657	0.0688
446.1685	0.0816
446.3713	0.0729
446.5741	0.075
446.7769	0.0745
446.9797	0.069
447.1824	0.0598
447.3852	0.056
447.5879	0.0616
447.7906	0.0571
447.9933	0.0604
448.196	0.0595
448.3986	0.0603
448.6013	0.0462
448.8039	0.0601
449.0066	0.0628
449.2092	0.0659
449.4118	0.0586
449.6143	0.0513
449.8169	0.0566
450.0195	0.0482
450.222	0.0557
450.4245	0.0564
450.627	0.0547
450.8295	0.0455
451.032	0.047
451.2345	0.0412
451.4369	0.0431
451.6394	0.0371
451.8418	0.0427
452.0442	0.0471
452.2466	0.0373
452.449	0.0436
452.6513	0.0377
452.8537	0.0318
453.056	0.0418
453.2583	0.0345
453.4607	0.0296
453.663	0.039
453.8652	0.0378
454.0675	0.0356
454.2697	0.0373
454.472	0.0334
454.6742	0.0365
454.8764	0.0342
455.0786	0.0296
455.2808	0.0358
455.4829	0.034
455.6851	0.0338
455.8872	0.0203
456.0893	0.0303
456.2915	0.0192
456.4935	0.0316
456.6956	0.0243
456.8977	0.0299
457.0997	0.0328
457.3018	0.0216
457.5038	0.0335
457.7058	0.0235
457.9078	0.0197
458.1098	0.0225
458.3117	0.0297
458.5137	0.0082
458.7156	0.0266
458.9175	0.0305
459.1194	0.0208
459.3213	0.0212
459.5232	0.0261
459.725	0.0175
459.9269	0.0206
460.1287	0.014
460.3305	0.0217
460.5323	0.0163
460.7341	0.0201
460.9359	0.0071
461.1376	0.0205
461.3394	0.0151
461.5411	0.026
461.7428	0.0175
461.9445	0.017
462.1462	0.021
462.3479	0.0097
462.5495	0.0205
462.7512	0.0233
462.9528	0.0187
463.1544	0.0131
463.356	-0.0005
463.5576	0.0217
463.7592	0.0163
463.9607	0.0168
464.1623	0.0112
464.3638	0.0095
464.5653	0.0161
464.7668	0.0164
464.9683	0.0152
465.1697	0.009
465.3712	0.0014
465.5726	0.0068
465.7741	0.0159
465.9755	0.0143
466.1769	0.004
466.3782	0.0085
466.5796	0.0134
466.7809	0.0128
466.9823	0.011
467.1836	0.0053
467.3849	0.004
467.5862	0.0035
467.7875	0.0126
467.9887	0.0049
468.19	0.0146
468.3912	0.0205
468.5924	0.0051
468.7936	0.0134
468.9948	0.0078
469.196	0.0127
469.3972	0.0016
469.5983	0.0086
469.7994	0.0081
470.0006	0.0102
470.2017	-0.003
470.4027	0.0172
470.6038	0.0146
470.8049	0.0093
471.0059	0.0138
471.2069	0.0126
471.408	0.0094
471.6089	0.0172
471.8099	0.0148
472.0109	0.0037
472.2119	0.0242
472.4128	-0.0008
472.6137	0.0012
472.8146	0.0085
473.0155	0.0118
473.2164	0.0071
473.4173	-0.0027
473.6181	0.0073
473.819	0.0153
474.0198	0.0064
474.2206	-0.0058
474.4214	0.0093
474.6222	-0.0018
474.8229	0.0014
475.0237	0.0131
475.2244	0.0161
475.4251	0.0123
475.6258	0.0018
475.8265	0.0045
476.0272	0.0003
476.2278	0.0092
476.4285	0.0021
476.6291	0.0045
476.8297	0.013
477.0303	-0.0023
477.2309	0.006
477.4315	0.0089
477.632	0.0001
477.8326	0.0029
478.0331	0.0102
478.2336	0.0052
478.4341	0.006
478.6346	0.0047
478.8351	0.0042
479.0355	0.0126
479.236	0.0081
479.4364	0.0041
479.6368	0.0071
479.8372	0.0044
480.0376	0.0043
480.2379	0.0103
480.4383	0.0081
480.6386	-0.004
480.8389	0.0126
481.0392	0.0066
481.2395	0.0182
481.4398	0.0024
481.6401	0.0075
481.8403	-0.0026
482.0405	0.0041
482.2408	0.0122
482.441	0.0046
482.6411	0.0098
482.8413	0.0031
483.0415	0.0153
483.2416	0.005
483.4417	0.008
483.6419	-0.0064
483.8419	0.0027
484.042	0.0117
484.2421	-0.0019
484.4422	0.0036
484.6422	0.0074
484.8422	0.0052
485.0422	0.0047
485.2422	0.0048
485.4422	0.0038
485.6422	0.0034
485.8421	0.0024
486.042	0.0117
486.242	-0.0008
486.4419	0.0047
486.6417	0.0005
486.8416	0.0026
487.0415	0.0033
487.2413	0.0002
487.4411	0.0066
487.641	0.0042
487.8408	0.0089
488.0405	0.0118
488.2403	-0.0002
488.4401	0.0041
488.6398	0.0149
488.8395	0.0034
489.0392	0.0098
489.2389	0.0088
489.4386	0.0009
489.6383	0.0101
489.8379	-0.0022
490.0376	0.0056
490.2372	0.0007
490.4368	-0.0032
490.6364	-0.0002
490.836	0.0023
491.0355	0.0042
491.2351	-0.0002
491.4346	0.0058
491.6341	-0.0023
491.8336	0.0142
492.0331	-0.0009
492.2326	0.0097
492.432	0.0047
492.6315	0.0082
492.8309	0.0003
493.0303	0.0018
493.2297	0.0042
493.4291	-0.0011
493.6284	0.0094
493.8278	0.0032
494.0271	0.0043
494.2264	0.0058
494.4257	0.0011
494.625	0.0095
494.8243	-0.0003
495.0236	0.0126
495.2228	0.0115
495.422	0.0068
495.6213	0.0016
495.8205	0.0055
496.0196	0.0036
496.2188	0.0039
496.418	0.0074
496.6171	-0.0022
496.8162	0.0075
497.0153	0.0119
497.2144	0.0098
497.4135	0.003
497.6126	0.0031
497.8116	0.0021
498.0107	0.0079
498.2097	0.0117
498.4087	0.0039
498.6077	-0.0032
498.8067	0.0018
499.0056	0.0032
499.2046	0.0099
499.4035	0.0045
499.6024	-0.0079
499.8013	0.0021
500.0002	0.0038
500.199	0.0142
500.3979	-0.0006
500.5967	0.0056
500.7956	0.011
500.9944	0.0114
501.1932	0.0114
501.3919	0.0052
501.5907	0.0068
501.7895	-0.0002
501.9882	0.0055
502.1869	0.013
502.3856	0.0047
502.5843	0.0055
502.783	-0.0038
502.9816	0.008
503.1803	-0.004
503.3789	0.0144
503.5775	0.0049
503.7761	0.0009
503.9747	0.0055
504.1732	-0.0045
504.3718	0.0023
504.5703	0.003
504.7689	-0.001
504.9674	0.0025
505.1658	0.0023
505.3643	0.0136
505.5628	0.008
505.7612	0.0041
505.9597	-0.0041
506.1581	-0.0023
506.3565	0.0038
506.5549	0.0034
506.7532	0.0036
506.9516	0.0041
507.1499	0.0055
507.3482	0.0013
507.5465	0.0062
507.7448	0.0085
507.9431	0.0054
508.1414	-0.006
508.3396	0.0068
508.5379	0.0017
508.7361	0.0118
508.9343	0.0046
509.1325	0.0072
509.3306	0.0068
509.5288	-0.0121
509.7269	0.01
509.9251	0.0077
510.1232	0.0022
510.3213	0.0015
510.5193	-0.0001
510.7174	-0.0046
510.9154	0.0085
511.1135	0.0018
511.3115	0.0136
511.5095	0.0031
511.7075	0.0035
511.9055	0.006
512.1034	0.0017
512.3014	-0.0007
512.4993	0.0077
512.6972	0.0004
512.8951	0.0114
513.093	-0.0025
513.2908	0.0109
513.4887	-0.0055
513.6865	0.0072
513.8844	0.0101
514.0822	0.0039
514.2799	-0.011
514.4777	0.0017
514.6755	0.0038
514.8732	0.0001
515.0709	0.0096
515.2687	0.0016
515.4664	0.0207
515.664	0.0134
515.8617	0.0129
516.0594	0.0108
516.257	0.0044
516.4546	0.0163
516.6522	0.0053
516.8498	-0.0041
517.0474	0.0057
517.2449	0.0022
517.4425	0.0106
517.64	0.0041
517.8375	0.0172
518.035	0.0059
518.2325	0.0001
518.43	0.005
518.6274	0.0075
518.8249	-0.0002
519.0223	0.0052
519.2197	-0.0015
519.4171	0.0017
519.6145	-0.0018
519.8118	-0.0143
520.0092	-0.0069
520.2065	0.0108
520.4038	0.0056
520.6011	0.0129
520.7984	0.012
520.9956	0.0029
521.1929	0.0007
521.3901	0.005
521.5874	0.0097
521.7846	-0.0088
521.9818	-0.0022
522.1789	-0.0017
522.3761	0.0188
522.5732	0.0035
522.7704	-0.0185
522.9675	-0.0024
523.1646	-0.0037
523.3617	0.0197
523.5587	0.002
523.7558	0.0077
523.9528	0.0095
524.1498	0.0033
524.3468	0.0096
524.5438	-0.0016
524.7408	-0.0016
524.9378	0.0107
525.1347	0.0105
525.3316	0.0035
525.5285	0.0038
525.7254	-0.0002
525.9223	0.0118
526.1192	0.0198
526.316	0.0074
526.5129	0.0092
526.7097	0.0014
526.9065	0.0133
527.1033	0.0091
527.3	-0.0019
527.4968	0.0112
527.6935	-0.0084
527.8903	-0.0078
528.087	0.0032
528.2837	0.01
528.4804	0.0024
528.677	0.0069
528.8737	0.006
529.0703	0.0108
529.2669	0.0091
529.4635	0.0021
529.6601	-0.0133
529.8567	0.0022
530.0532	0.006
530.2498	0.0036
530.4463	-0.0026
530.6428	0.0088
530.8393	0.0164
531.0358	-0.0017
531.2322	-0.0028
531.4287	-0.0025
531.6251	0.0043
531.8215	0.0004
532.0179	0.0151
532.2143	0.0102
532.4107	0.0028
532.607	0.0015
532.8034	-0.0027
532.9997	0.0039
533.196	0.0074
533.3923	0.0172
533.5886	0.0083
533.7848	0.0033
533.9811	0.008
534.1773	0.0049
534.3735	0.0087
534.5697	0.004
534.7659	0.0135
534.9621	0.0009
535.1582	0.0082
535.3544	0.0041
535.5505	0.0128
535.7466	0.0048
535.9427	0.0008
536.1387	0.002
536.3348	0.011
536.5308	0.0113
536.7269	-0.0063
536.9229	0.0025
537.1189	0.0153
537.3148	0.0103
537.5108	0.0054
537.7068	0.0044
537.9027	-0.0077
538.0986	0.0061
538.2945	-0.0018
538.4904	-0.0047
538.6863	-0.0034
538.8821	0.0112
539.078	0.0062
539.2738	0.0042
539.4696	0.0051
539.6654	-0.0023
539.8611	0.0075
540.0569	0.0021
540.2526	0.0184
540.4484	0.0013
540.6441	0.003
540.8398	0.0123
541.0355	-0.0001
541.2311	-0.0015
541.4268	0.0134
541.6224	0.0126
541.818	0.0099
542.0136	0.0094
542.2092	0.0169
542.4048	0.0054
542.6003	0.0047
542.7959	0.007
542.9914	0.003
543.1869	-0.0042
543.3824	0.0028
543.5779	0.0151
543.7734	0.0166
543.9688	0.0116
544.1642	-0.0009
544.3596	0.008
544.555	-0.0016
544.7504	0.0154
544.9458	0.0048
545.1411	0.0015
545.3365	0.0027
545.5318	0.0062
545.7271	0.0089
545.9224	-0.0031
546.1177	0.0025
546.3129	0.0007
546.5081	-0.0041
546.7034	0.008
546.8986	0.0098
547.0938	0.0048
547.289	0.0065
547.4841	0.012
547.6793	0.0046
547.8744	0.0073
548.0695	-0.0002
548.2646	-0.0017
548.4597	0.0015
548.6548	0.0193
548.8498	0.0107
549.0448	0.0083
549.2399	0.0184
549.4349	0.006
549.6298	0.0164
549.8248	0.0028
550.0198	0.0072
550.2147	0.0016
550.4096	0.0011
550.6045	0.0033
550.7994	0.0042
550.9943	0.0053
551.1892	-0.0067
551.384	0.015
551.5788	0.0066
551.7737	0.002
551.9685	0.0062
552.1632	0.01
552.358	0.0003
552.5528	0.0076
552.7475	0.0016
552.9422	0.0077
553.1369	0.007
553.3316	0.0064
553.5263	0.0148
553.7209	0.0056
553.9156	0.0077
554.1102	0.0126
554.3048	-0.0008
554.4994	0.0047
554.694	0.0002
554.8885	0.0121
555.0831	0.0228
555.2776	0.0094
555.4721	0.0035
555.6666	0.0111
555.8611	0.0009
556.0555	0.0036
556.25	0.0113
556.4444	-0.0042
556.6388	0.0084
556.8332	0.0054
557.0276	0.0049
557.222	-0.001
557.4163	0.0062
557.6107	-0.0036
557.805	-0.0005
557.9993	-0
558.1936	-0.013
558.3879	0.0019
558.5821	-0.0054
558.7764	-0.0099
558.9706	-0.0009
559.1648	0.0049
559.359	-0.0007
559.5532	0.0032
559.7473	0.0018
559.9415	0.0074
560.1356	0.0156
560.3297	-0.0014
560.5238	0.0024
560.7179	0.0005
560.9119	0.0015
561.106	-0.0068
561.3	-0.0021
561.494	0.0045
561.688	0.0023
561.882	-0.0016
562.076	0.0121
562.2699	0.0079
562.4639	0.024
562.6578	0.0088
562.8517	0.0034
563.0456	0.0047
563.2395	0.0051
563.4333	-0.0026
563.6272	0.0058
563.821	-0.0006
564.0148	-0.0021
564.2086	0.0059
564.4024	0.0134
564.5961	0.0124
564.7899	0.0053
564.9836	0.0067
565.1773	0.0106
565.371	0.0076
565.5647	0.0148
565.7584	0.0162
565.952	0.0081
566.1456	0.003
566.3393	0.0086
566.5329	0.0051
566.7264	0.0021
566.92	-0.0026
567.1136	0.0028
567.3071	-0.0046
567.5006	0.0066
567.6941	0.01
567.8876	0.0087
568.0811	0.0159
568.2745	0.0004
568.468	0.0107
568.6614	0.0076
568.8548	0.0084
569.0482	0.0107
569.2416	0.0073
569.4349	0.0059
569.6283	0.0004
569.8216	0.0093
570.0149	0.0049
570.2082	0.0079
570.4015	0.0067
570.5947	0.0041
570.788	0.0066
570.9812	0.004
571.1744	0.0049
571.3676	0.0055
571.5608	0.0032
571.754	0.0105
571.9471	0.0094
572.1402	0.004
572.3333	0.0027
572.5264	0.0063
572.7195	0.0063
572.9126	0.0026
573.1057	0.0056
573.2987	0.002
573.4917	0.0045
573.6847	0.0023
573.8777	0.0071
574.0707	0.0074
574.2636	0.0058
574.4566	-0.0007
574.6495	0.0039
574.8424	0.0067
575.0353	0.0117
575.2281	0.0023
575.421	0.0026
575.6138	0.006
575.8067	0.0063
575.9995	0.0053
576.1923	0.0077
576.385	0.0021
576.5778	0.0089
576.7706	0.0023
576.9633	0.0076
577.156	-0.0019
577.3487	0.002
577.5414	0.0008
577.734	0.004
577.9267	0.006
578.1193	0.0082
578.3119	0.003
578.5045	0.0065
578.6971	0.0029
578.8897	0.0048
579.0822	0.009
579.2747	0.0048
579.4673	0.0059
579.6598	0.01
579.8522	0.0064
580.0447	0.0056
580.2372	0.0086
580.4296	0.0097
580.622	0.0019
580.8144	0.0067
581.0068	0.0058
581.1992	0.004
581.3915	-0.0001
581.5839	0.0044
581.7762	0.0045
581.9685	0.004
582.1608	0.0062
582.353	0.0034
582.5453	0.0057
582.7375	0.0018
582.9298	0.0016
583.122	0.0028
583.3142	0.0069
583.5063	0.0043
583.6985	-0.0003
583.8906	0.0001
584.0827	0.0057
584.2749	0.0071
584.4669	0.0079
584.659	0.0039
584.8511	0.0061
585.0431	0.0066
585.2352	0.0045
585.4272	0.0064
585.6192	0.006
585.8111	0.0037
586.0031	0.003
586.195	-0.0008
586.387	0.0029
586.5789	0.0057
586.7708	0.0045
586.9627	0.0053
587.1545	0.0046
587.3464	0.0051
587.5382	0.0012
587.73	0.0091
587.9218	0.0035
588.1136	0.0012
588.3053	0.0039
588.4971	0.0029
588.6888	0.0001
588.8805	0.0026
589.0722	0.0112
589.2639	0.0045
589.4556	0.0119
589.6472	0.0134
589.8389	0.0085
590.0305	0.0049
590.2221	0.0099
590.4137	0.0065
590.6052	0.0049
590.7968	0.0034
590.9883	0.0059
591.1798	0.0044
591.3713	0.0014
591.5628	0.0029
591.7543	0.0018
591.9458	-0.0002
592.1372	0.0082
592.3286	0.0016
592.52	0.0027
592.7114	0.0004
592.9028	0.0099
593.0941	0.0037
593.2855	0.0054
593.4768	0.0117
593.6681	0.0068
593.8594	0.0083
594.0506	0.0069
594.2419	0.0066
594.4331	0.0003
594.6244	0.0032
594.8156	-0.0014
595.0067	-0.0062
595.1979	0.001
595.3891	0.0067
595.5802	0.0043
595.7713	0.0038
595.9624	0.0058
596.1535	0.0034
596.3446	-0
596.5357	-0.0025
596.7267	0.002
596.9177	0.0066
597.1087	0.0031
597.2997	0.0053
597.4907	0.0016
597.6817	0.0064
597.8726	0.0094
598.0635	0.0029
598.2544	0.0045
598.4453	0.0028
598.6362	0.0001
598.827	0.0013
599.0179	0.0025
599.2087	0.0058
599.3995	0.0088
599.5903	0.0061
599.7811	0.0098
599.9718	-0.0003
600.1626	0.0035
600.3533	0.0023
600.544	0.0049
600.7347	0.0065
600.9254	0.0091
601.116	0.0051
601.3067	0.0044
601.4973	0.0092
601.6879	0.0056
601.8785	0.0071
602.0691	0.0041
602.2596	0.0012
602.4502	0.0078
602.6407	0.003
602.8312	0.0054
603.0217	0.0026
603.2122	0.0045
603.4027	0.0061
603.5931	0.0039
603.7835	0.0087
603.9739	0.0001
604.1643	0.0075
604.3547	0.0037
604.5451	0.0109
604.7354	-0.0062
604.9257	0.0083
605.116	0.0015
605.3063	0.0058
605.4966	0.0019
605.6869	0.0095
605.8771	0.0079
606.0673	0.0053
606.2575	0.0071
606.4477	0.0093
606.6379	0.0031
606.8281	-0.0045
607.0182	0.0036
607.2083	0.0085
607.3985	0.0022
607.5885	0.0014
607.7786	0.003
607.9687	0.0067
608.1587	0.0149
608.3488	0.0113
608.5388	-0.0007
608.7288	-0.0007
608.9187	0.0069
609.1087	0.0072
609.2986	0.0088
609.4886	0.0048
609.6785	0.0037
609.8684	0.0058
610.0582	0.0052
610.2481	0.0009
610.4379	0.0044
610.6278	0.0068
610.8176	0.012
611.0074	0.0089
611.1971	0.0076
611.3869	0.0043
611.5766	-0.0031
611.7664	0.0019
611.9561	0.0065
612.1458	0.0049
612.3354	0.0046
612.5251	0.0067
612.7147	0.0027
612.9044	0.0044
613.094	0.0039
613.2836	-0.0009
613.4731	0.0084
613.6627	0.0087
613.8522	0.0015
614.0417	0.0095
614.2313	0.0008
614.4207	0.0019
614.6102	0.0044
614.7997	0.0081
614.9891	0.0108
615.1785	-0.0015
615.3679	0.0063
615.5573	0.005
615.7467	-0.0031
615.9361	0.0004
616.1254	0.0069
616.3147	0.0032
616.504	0.0044
616.6933	0.0107
616.8826	-0.0023
617.0718	0.0114
617.2611	-0.0018
617.4503	0.005
617.6395	0.0008
617.8287	0.0118
618.0179	0.004
618.207	0.01
618.3961	0.0017
618.5853	0.0034
618.7744	0.002
618.9634	0.0052
619.1525	0.0018
619.3416	0.0011
619.5306	0.0083
619.7196	0.0152
619.9086	-0.0009
620.0976	-0.0004
620.2866	0.0074
620.4755	0.002
620.6645	0.0103
620.8534	0.0104
621.0423	0.0036
621.2312	-0.0026
621.42	0.0095
621.6089	0.0116
621.7977	0.0111
621.9865	0.0027
622.1753	0.0001
622.3641	-0.0012
622.5529	0.0051
622.7416	0.0063
622.9303	0.0064
623.1191	0.0089
623.3078	0.0069
623.4964	0.009
623.6851	0.007
623.8737	0.0016
624.0624	0.0032
624.251	0.0058
624.4396	0.0087
624.6282	0.0113
624.8167	0.01
625.0053	0.0185
625.1938	0.0015
625.3823	0.0029
625.5708	-0.0008
625.7593	0.0028
625.9477	0.0069
626.1362	0.0008
626.3246	0.005
626.513	-0.0003
626.7014	0.0036
626.8898	0.0168
627.0781	0.0005
627.2665	0.006
627.4548	-0.0001
627.6431	0.0096
627.8314	0.0081
628.0197	0.0105
628.2079	0.004
628.3962	0.0009
628.5844	-0.0019
628.7726	0.0018
628.9608	0.0138
629.1489	0.0026
629.3371	0.0053
629.5252	-0.0102
629.7134	-0.0074
629.9015	0.0067
630.0895	-0.0166
630.2776	0.0008
630.4657	0.0143
630.6537	0.0078
630.8417	-0.0025
631.0297	0.002
631.2177	-0
631.4057	0.0058
631.5936	-0.0064
631.7815	0.0075
631.9695	0.0286
632.1574	0.0014
632.3452	0.0106
632.5331	-0.0005
632.7209	0.0214
632.9088	-0.007
633.0966	0.0286
633.2844	0.0062
633.4722	0.0021
633.6599	0.0102
633.8477	-0.0024
634.0354	0.0189
634.2231	-0.0114
634.4108	0.0045
634.5985	0.0102
634.7861	0.013
634.9738	-0.0127
635.1614	-0.0041
635.349	0.0023
635.5366	0.0194
635.7242	0.0018
635.9117	-0.0016
636.0993	0.0055
636.2868	-0.009
636.4743	-0.0056
636.6618	-0.0121
636.8492	0.0043
637.0367	-0.0072
637.2241	0.0012
637.4115	0.0225
637.5989	0.0009
637.7863	0.0178
637.9737	0.0087
638.161	0.005
638.3484	-0.0052
638.5357	-0.0012
638.723	0.0017
638.9103	-0.011
639.0975	0.0175
639.2848	-0.0085
639.472	0.0112
639.6592	-0.0046
639.8464	-0.0096
640.0336	0.0017
640.2208	0.0025
640.4079	-0.015
640.595	-0.0019
640.7821	0.0192
640.9692	0.0115
641.1563	0.0114
641.3434	0.0111
641.5304	0.0231
641.7174	0.0156
641.9044	0.0125
642.0914	0.0342
642.2784	0.0057
642.4653	-0.0233
642.6523	0.0052
642.8392	-0.0007
643.0261	0.0151
643.213	0.0132
643.3999	0.0205
643.5867	0.0172
643.7735	0.0024
643.9604	0.0043
644.1472	0.0179
644.3339	0.0067
644.5207	-0.0058
644.7075	0.019
644.8942	-0.0021
645.0809	0.0059
645.2676	-0.0184
645.4543	-0.0096
645.6409	0.0222
645.8276	0.0066
646.0142	0.0008
646.2008	0.0077
646.3874	0.0138
646.574	0.008
646.7605	-0.0185
646.9471	-0.0219
647.1336	-0.0071
647.3201	0.0042
647.5066	-0.0085
647.6931	0.0134
647.8795	-0.0028
648.0659	0.002
648.2524	0.0179
648.4388	0.006
648.6252	0.0052
648.8115	0.0072
648.9979	0.0078
649.1842	-0.0069
649.3705	0.025
649.5568	-0.0169
649.7431	0.0002
649.9294	0.0018
650.1156	-0.008
650.3018	-0.002
650.488	0.0065
650.6742	0.0051
650.8604	0.0082
651.0466	0.0054
651.2327	-0.0017
651.4188	0.0009
651.6049	0.0111
651.791	0.0314
651.9771	0.0049
652.1632	0.0096
652.3492	0.0081
652.5352	0.0135
652.7212	-0.011
652.9072	-0.001
653.0932	0.0065
653.2791	0.011
653.465	0.0059
653.651	-0.0015
653.8369	-0.0043
654.0227	-0.0057
654.2086	0.0012
654.3944	0.0115
654.5803	0.0071
654.7661	0.0081
654.9519	0.0006
655.1377	-0.0001
655.3234	-0.0001
655.5092	-0.0001
655.6949	-0.0001
655.8806	-0.0001
656.0663	-0.0001
656.2519	-0.0001
656.4376	-0.0001
656.6232	-0.0001
656.8088	-0.0001
656.9945	-0.0001
657.18	-0.0001
657.3656	-0.0001
657.5511	-0.0001
657.7367	-0.0001
657.9222	-0.0001
658.1077	-0.0001
658.2932	-0.0001
658.4786	-0.0001
658.6641	-0.0001
658.8495	-0.0001
659.0349	-0.0001
659.2203	-0.0001
659.4057	-0.0001
659.591	0.1299
659.7764	0.0094
659.9617	0.0024
660.147	0.0075
660.3323	-0.0078
660.5176	-0.0074
660.7028	-0.0098
660.888	0.0075
661.0733	0.0039
661.2585	-0.0143
661.4436	-0
661.6288	0.0017
661.8139	-0.0151
661.9991	-0.0259
662.1842	-0.0005
662.3693	0.0033
662.5544	0.006
662.7394	0.0176
662.9245	0.0097
663.1095	-0.0275
663.2945	-0.0009
663.4795	-0.0124
663.6644	-0.0074
663.8494	0.0052
664.0343	0.0023
664.2193	-0.005
664.4042	-0.0041
664.589	0.0106
664.7739	0.0056
664.9587	-0.0125
665.1436	-0.0085
665.3284	0.0099
665.5132	-0.0199
665.698	-0.0086
665.8827	0.0177
666.0675	-0.0227
666.2522	0.0028
666.4369	-0.0154
666.6216	0.001
666.8063	0.0201
666.9909	0.0081
667.1756	-0.001
667.3602	0.0003
667.5448	0.0264
667.7294	0.0123
667.9139	0.0038
668.0985	0.0197
668.283	-0.0105
668.4675	0.0141
668.652	0.0058
668.8365	0.0026
669.0209	0.0016
669.2054	-0.0063
669.3898	0.0012
669.5742	0.0163
669.7586	0.0168
669.943	0.0039
670.1273	0.0066
670.3117	0.0108
670.496	0.0051
670.6803	0.0068
670.8646	-0.0186
671.0488	0.026
671.2331	-0.0158
671.4173	-0.0032
671.6015	0.0008
671.7857	0.0045
671.9699	0.0092
672.1541	0.0027
672.3382	0.0033
672.5223	0.0002
672.7064	0.0006
672.8905	-0.0121
673.0746	-0.0043
673.2587	0.0178
673.4427	0.0005
673.6267	0.01
673.8107	0.0172
673.9947	0.0202
674.1787	0.0214
674.3626	0.0025
674.5465	0.0119
674.7304	-0.0065
674.9143	-0.0013
675.0982	0.01
675.2821	0.0061
675.4659	-0.0092
675.6497	-0.0055
675.8335	0.0186
676.0173	-0.0082
676.2011	0.0204
676.3849	-0.0051
676.5686	0.025
676.7523	-0.0023
676.936	-0.0036
677.1197	0.0134
677.3034	0.0346
677.487	0.0058
677.6706	0.0004
677.8542	-0.0131
678.0378	0.0026
678.2214	0.0112
678.405	-0.0187
678.5885	0.0112
678.772	0.0201
678.9555	0.0088
679.139	0.012
679.3225	0.0105
679.5059	0.0085
679.6894	0.0166
679.8728	0.0037
680.0562	-0.0066
680.2395	-0.001
680.4229	-0.0008
680.6062	0.0075
680.7896	-0.013
680.9729	0.0199
681.1562	-0.0108
681.3394	-0.0147
681.5227	0.0068
681.7059	0.0121
681.8891	0.0241
682.0723	0.0047
682.2555	0.005
682.4387	-0.0108
682.6218	-0.0003
682.805	0.0184
682.9881	0.0178
683.1712	0.0137
683.3542	0.0312
683.5373	-0.011
683.7203	0.0107
683.9034	-0.0081
684.0864	0.0085
684.2694	0.0102
684.4523	0.0017
684.6353	0.005
684.8182	0.0014
685.0011	0.0094
685.184	0.0065
685.3669	0.0107
685.5498	-0.0119
685.7326	0.0047
685.9154	0.0064
686.0982	0.0176
686.281	0.0048
686.4638	0.0067
686.6465	0.0102
686.8293	-0.0242
687.012	0.0059
687.1947	-0
687.3774	0.0137
687.56	0.0012
687.7427	-0.0071
687.9253	-0.0003
688.1079	0.0146
688.2905	-0.0134
688.4731	0.0075
688.6556	-0.0138
688.8382	-0.0312
689.0207	0.0025
689.2032	0.0248
689.3857	-0.0115
689.5681	0.0005
689.7506	0.0277
689.933	-0.0049
690.1154	-0.0057
690.2978	0.0042
690.4802	0.023
690.6626	-0.0023
690.8449	0.0065
691.0272	-0.0101
691.2095	-0.0207
691.3918	0.0057
691.5741	0.0164
691.7563	0.0043
691.9386	-0.0005
692.1208	0.0084
692.303	-0.0025
692.4852	-0.0073
692.6673	-0.0095
692.8495	-0.0054
693.0316	-0.0043
693.2137	0.0024
693.3958	0.0194
693.5778	-0.0041
693.7599	-0.0262
693.9419	-0.025
694.1239	0.0055
694.3059	0.0213
694.4879	-0.005
694.6699	-0.0034
694.8518	0.007
695.0337	0.0123
695.2157	0.0419
695.3975	0.0016
695.5794	-0.0078
695.7613	-0.0156
695.9431	-0.0071
696.1249	0.0165
696.3067	-0.0029
696.4885	0.0011
696.6703	0.0087
696.852	-0.0154
697.0337	0.0277
697.2154	0.006
697.3971	0.0138
697.5788	0.0132
697.7605	-0.0053
697.9421	0.0097
698.1237	-0.001
698.3053	-0.0045
698.4869	-0.0053
698.6685	-0.0006
698.85	0.03
699.0315	-0.0065
699.213	0.0267
699.3945	0.0017
699.576	0.0096
699.7575	0.0151
699.9389	-0.0066
700.1203	-0.002
700.3017	0.0196
700.4831	0.0405
700.6645	0.0421
700.8458	0.0012
701.0271	0.0309
701.2084	0.0039
701.3897	-0.0011
701.571	-0.0174
701.7523	0.0259
701.9335	0.0018
702.1147	0.0119
702.2959	0.0009
702.4771	0.0136
702.6583	0.0115
702.8394	-0.0268
703.0205	0.0016
703.2016	-0.0075
703.3827	-0.0114
703.5638	0.0095
703.7449	-0.0068
703.9259	0.0109
704.1069	-0.0358
704.2879	-0.0047
704.4689	-0.0009
704.6499	-0.0037
704.8308	0.0228
705.0117	-0.0016
705.1927	-0.0015
705.3735	0.0028
705.5544	0.0292
705.7353	0.0132
705.9161	-0.0286
706.0969	0.0119
706.2777	-0.0021
706.4585	-0.0083
706.6393	0.0099
706.82	0.0138
707.0007	-0.0074
707.1815	0.0042
707.3621	0.0284
707.5428	0.0041
707.7235	-0.0052
707.9041	0.0015
708.0847	0.0073
708.2653	0.0187
708.4459	0.0018
708.6265	-0.0037
708.807	0.0367
708.9875	0.0033
709.168	-0.0217
709.3485	0.0153
709.529	-0.0007
709.7095	-0.0318
709.8899	0.0036
710.0703	0.01
710.2507	-0.0095
710.4311	-0.013
710.6115	0.0193
710.7918	0.0184
710.9721	0.0073
711.1524	-0.0135
711.3327	-0.0174
711.513	-0.0103
711.6932	-0.0182
711.8735	0.0056
712.0537	-0.0207
712.2339	0.0061
712.4141	0.0254
712.5942	-0.032
712.7744	0.0216
712.9545	0.0035
713.1346	0.0155
713.3147	0.0184
713.4947	-0.0144
713.6748	0.0061
713.8548	0.0083
714.0348	0.0174
714.2148	0.0297
714.3948	0.0008
714.5748	0.0008
714.7547	0.0259
714.9346	0.0161
715.1145	-0.0201
715.2944	-0.0059
715.4743	0.008
715.6541	-0.0022
715.834	0.0154
716.0138	-0.0019
716.1936	-0.0027
716.3733	0.0153
716.5531	-0.0226
716.7328	0.0349
716.9126	0.0117
717.0923	-0.0226
717.2719	-0.0045
717.4516	-0.0024
717.6312	-0.0205
717.8109	0.0314
717.9905	-0.0087
718.1701	0.0089
718.3496	-0.0147
718.5292	-0.0195
718.7087	0.0109
718.8882	0.025
719.0677	0.0003
719.2472	0.0109
719.4267	-0.0059
719.6061	-0.0148
719.7856	0.0427
719.965	-0.0129
720.1443	-0.0131
720.3237	-0.025
720.5031	0.0112
720.6824	-0.0008
720.8617	-0.0004
721.041	0.0305
721.2203	-0.0108
721.3995	0.012
721.5788	-0.0039
721.758	0.0105
721.9372	0.0126
722.1164	0.0047
722.2956	0.0057
722.4747	0.0008
722.6538	0.0022
722.8329	0.0139
723.012	-0.0118
723.1911	0.0098
723.3702	0.0203
723.5492	-0.0226
723.7282	0.0021
723.9072	0.0195
724.0862	-0.0031
724.2652	0.0104
724.4441	0.0277
724.623	0.0022
724.8019	0.0167
724.9808	0.0142
725.1597	0.0092
725.3385	0.0075
725.5174	-0.025
725.6962	0.0117
725.875	0.004
726.0538	0.0245
726.2325	-0.0007
726.4112	-0.0151
726.59	-0.0129
726.7687	-0.0261
726.9474	0.0114
727.126	0.003
727.3047	0.0176
727.4833	-0.006
727.6619	-0.0057
727.8405	0.0149
728.0191	0.0348
728.1976	-0.0231
728.3762	0.009
728.5547	0.0159
728.7332	-0
728.9116	0.0113
729.0901	-0.0121
729.2686	0.0019
729.447	-0.0003
729.6254	0.0137
729.8038	0.0076
729.9821	-0.0091
730.1605	0.0047
730.3388	-0.0276
730.5171	0.0148
730.6954	-0.0081
730.8737	0.0227
731.0519	0.003
731.2302	0.0102
731.4084	-0.0072
731.5866	-0.0187
731.7648	0.0045
731.9429	0.0032
732.1211	-0.0108
732.2992	-0.012
732.4773	0.0168
732.6554	-0.0109
732.8335	0.0166
733.0115	0.0047
733.1896	-0.0095
733.3676	0.0281
733.5456	-0.0041
733.7235	-0.0166
733.9015	0.0236
734.0794	-0.0039
734.2574	-0.0421
734.4353	-0.003
734.6131	-0.0047
734.791	-0.0192
734.9689	0.0077
735.1467	-0.0011
735.3245	0.0089
735.5023	0.0132
735.68	0.0094
735.8578	0.0172
736.0355	0.0116
736.2132	0.0142
736.3909	0.0187
736.5686	-0.0016
736.7463	-0.0116
736.9239	0.0186
737.1015	0.011
737.2791	0.0115
737.4567	0.0006
737.6343	0.0036
737.8118	0.0071
737.9894	-0.0025
738.1669	0.0215
738.3444	0.0211
738.5218	-0.0115
738.6993	0.0041
738.8767	0.0007
739.0541	0.0078
739.2315	-0.0199
739.4089	0.0238
739.5863	0.0038
739.7636	-0.0203
739.9409	-0.0047
740.1182	0.0004
740.2955	0.0198
740.4728	-0.0048
740.65	-0.0061
740.8272	0.0289
741.0044	-0.0292
741.1816	0.0169
741.3588	-0.018
741.5359	-0.0075
741.7131	0.0245
741.8902	-0.0062
742.0673	-0.0134
742.2444	0.0316
742.4214	-0.0145
742.5985	-0.0066
742.7755	0.0189
742.9525	-0.0156
743.1295	-0.0159
743.3064	0.0009
743.4834	-0.0005
743.6603	0.0362
743.8372	-0.0546
744.0141	0.0132
744.191	-0
744.3678	-0.0393
744.5446	-0.0009
744.7215	-0.0022
744.8982	-0.0019
745.075	0.0384
745.2518	0.0004
745.4285	0.0077
745.6052	-0.0248
745.7819	-0.0033
745.9586	-0.0009
746.1353	-0.0111
746.3119	0.0037
746.4885	0.0229
746.6651	-0.0231
746.8417	0.0093
747.0183	0.0162
747.1948	-0.0174
747.3714	0.0143
747.5479	0.0015
747.7244	-0.0112
747.9008	-0.027
748.0773	0.0267
748.2537	0.0055
748.4301	0.0173
748.6065	-0.0199
748.7829	-0.0299
748.9593	-0.0012
749.1356	0.0189
749.3119	-0.0026
749.4882	-0.0015
749.6645	-0.0096
749.8408	0.0164
750.017	0.0098
750.1933	-0.0143
750.3695	-0.003
750.5457	-0.0202
750.7218	-0.0051
750.898	-0.0129
751.0741	-0.0132
751.2502	0.0068
751.4263	-0.0054
751.6024	0.0022
751.7784	0.0106
751.9545	-0.0167
752.1305	0.0138
752.3065	0.0035
752.4825	-0.004
752.6584	-0.0008
752.8344	-0.0109
753.0103	-0.0152
753.1862	0.0102
753.3621	-0.0167
753.5379	-0.0132
753.7138	0.0068
753.8896	-0.0011
754.0654	-0.0183
754.2412	0.0122
754.417	0.0153
754.5927	-0.0071
754.7685	0.0148
754.9442	0.0126
755.1199	0.0226
755.2956	0.0047
755.4712	0.021
755.6469	0.0017
755.8225	0.0003
755.9981	0.0138
756.1736	0.0097
756.3492	0.0034
756.5248	0.0204
756.7003	-0.0037
756.8758	0.0049
757.0513	0.0024
757.2267	0.0102
757.4022	0.0022
757.5776	-0.0075
757.753	0.0154
757.9284	-0.0041
758.1038	0.009
758.2791	0.0061
758.4545	-0.0153
758.6298	0.0089
758.8051	0.0132
758.9803	-0.0022
759.1556	0.0055
759.3308	0.0054
759.506	-0.0105
759.6812	0.0015
759.8564	0.0025
760.0316	0.0072
760.2067	0.0263
760.3819	-0.0038
760.557	0.0055
760.732	0.0043
760.9071	0.0157
761.0821	-0.0118
761.2572	0.0157
761.4322	-0
761.6072	-0.0058
761.7821	-0.0274
761.9571	0.0039
762.132	-0.0019
762.3069	0.0344
762.4818	0.0266
762.6567	-0.0029
762.8316	-0.0106
763.0064	0.025
763.1812	0.0121
763.356	-0.0115
763.5308	0.0033
763.7055	-0.0236
763.8803	-0.0092
764.055	-0.0081
764.2297	-0.0209
764.4044	-0.0011
764.579	-0.0131
764.7537	-0.0031
764.9283	0.0131
765.1029	0.0121
765.2775	0.0213
765.4521	0.0022
765.6266	-0.0111
765.8011	0.0017
765.9756	0.0102
766.1501	-0.0013
766.3246	0.0004
766.4991	0.0111
766.6735	0.025
766.8479	-0.0111
767.0223	-0.0087
767.1967	0.0208
767.371	-0.0092
767.5454	0.026
767.7197	0.0353
767.894	-0.0028
768.0683	0.0179
768.2425	0.0042
768.4168	0.0053
768.591	0.0099
768.7652	-0.0177
768.9394	-0.0266
769.1135	0.01
769.2877	0.0063
769.4618	0.0229
769.6359	-0.0111
769.81	0.0158
769.984	-0.0041
770.1581	-0.0226
770.3321	0.0122
770.5061	-0.022
770.6801	-0.0007
770.8541	0.0295
771.028	0.0336
771.202	0.0161
771.3759	0.0189
771.5498	0.0067
771.7236	-0.0145
771.8975	0.0425
772.0713	0.0018
772.2451	-0.0405
772.4189	-0.0232
772.5927	-0.0172
772.7665	-0.0094
772.9402	0.0154
773.1139	0.0174
773.2876	0.0179
773.4613	-0.0056
773.635	0.0232
773.8086	0.0388
773.9822	0.0278
774.1558	0.0254
774.3294	0.011
774.503	0.0069
774.6765	0.0413
774.8501	-0.0088
775.0236	0.0223
775.1971	-0.0246
775.3705	-0.0108
775.544	-0.0278
775.7174	-0.0025
775.8908	0.0052
776.0642	-0.0408
776.2376	0.0644
776.4109	0.0139
776.5843	-0.0088
776.7576	0.0085
776.9309	0.0092
777.1041	-0.0115
777.2774	-0.0042
777.4506	-0.0393
777.6238	-0.007
777.797	0.0313
777.9702	-0.023
778.1434	-0.0122
778.3165	-0.0223
778.4896	-0.0593
778.6627	0.0165
778.8358	-0.0329
779.0089	-0.0217
779.1819	-0.007
779.3549	0.0147
779.5279	0.0172
779.7009	0.0641
779.8739	0.0602
780.0468	0.0136
780.2197	-0.0001
780.3926	-0.018
780.5655	0.0358
780.7384	-0.0323
780.9112	0.0033
781.0841	-0.0051
781.2569	-0.0041
781.4297	-0.0095
781.6024	0.0205
781.7752	0.0302
781.9479	0.0375
782.1206	-0.0237
782.2933	0.0274
782.466	0.0135
782.6386	-0.018
782.8113	0.0046
782.9839	-0.0093
783.1565	0.0331
783.329	-0.0286
783.5016	-0.0018
783.6741	-0.0019
783.8466	0.0196
784.0191	0.0167
784.1916	-0.014
784.3641	-0.0278
784.5365	0.0258
784.7089	-0.0124
784.8813	0.0571
785.0537	-0.0122
785.2261	-0.003
785.3984	-0.0156
785.5707	-0.0037
785.743	0.0252
785.9153	-0.0259
786.0876	-0.0245
786.2598	-0.0067
786.432	-0.0204
786.6042	0.0204
786.7764	0.0104
786.9486	-0.0001
787.1207	0.034
787.2928	0.0231
787.4649	-0.0196
787.637	0.0071
787.8091	-0.0041
787.9811	0.0174
788.1532	0.0092
788.3252	-0.0155
788.4972	0.006
788.6691	0.0191
788.8411	0.0054
789.013	0.0211
789.1849	-0.0071
789.3568	-0.0484
789.5287	0.0313
789.7005	-0.0389
789.8723	-0.0273
790.0442	-0.0214
790.2159	-0.0062
790.3877	-0.0001
790.5595	-0.0042
790.7312	-0.0139
790.9029	-0.0102
791.0746	-0.0243
791.2463	-0.0815
791.4179	-0.0394
791.5896	-0.0323
791.7612	0.0396
791.9328	-0.0267
792.1044	-0.0157
792.2759	-0.0708
792.4474	0.0263
792.619	-0.0265
792.7905	0.0185
792.9619	-0.0001
793.1334	0.0546
793.3048	0.0293
793.4762	-0.0222
793.6476	-0.04
793.819	0.0239
793.9904	-0.0173
794.1617	-0.005
794.333	0.0093
794.5043	0.0057
794.6756	-0.0114
794.8469	-0.0001
795.0181	0.0018
795.1893	0.0329
795.3605	0.0212
795.5317	0.0071
795.7029	-0.0394
795.874	0.017
796.0452	0.0539
796.2163	0.0678
796.3873	0.0785
796.5584	0.0402
796.7294	0.0437
796.9005	-0.0088
797.0715	-0.0364
797.2425	-0.0012
797.4134	0.0051
797.5844	0.0137
797.7553	-0.0848
797.9262	0.0698
798.0971	0.0245
798.2679	0.0011
798.4388	0.0814
798.6096	-0.0082
798.7804	-0.0085
798.9512	-0.0036
799.122	-0.0532
799.2927	0.0363
799.4635	-0.0425
799.6342	-0.0547
799.8049	0.0241
799.9755	-0.0866
800.1462	0.0644
800.3168	0.0159
800.4874	-0.0468
800.658	-0.0144
800.8286	-0.0032
800.9991	0.041
801.1696	-0.013
801.3402	0.01
801.5106	-0.0823
801.6811	0.0034
801.8516	0.0128
802.022	-0.0168
802.1924	-0.053
802.3628	0.0097
802.5332	-0.0042
802.7035	0.0891
802.8739	0.0077
803.0442	-0.0642
803.2145	-0.024
803.3847	0.0061
803.555	0.0393
803.7252	0.0161
803.8954	-0.0835
804.0656	-0.0193
804.2358	-0.0782
804.4059	0.0093
804.5761	0.0075
804.7462	-0.0686
804.9163	-0.011
805.0864	-0.0255
805.2564	-0.0433
805.4264	0.0431
805.5965	0.0013
805.7665	0.0447
805.9364	-0.043
806.1064	-0.076
806.2763	0.0143
806.4462	-0.0056
806.6161	-0.0164
806.786	0.011
806.9559	0.0019
807.1257	0.0358
807.2955	-0.0409
807.4653	-0.0001
807.6351	0.0772
807.8048	-0.0214
807.9746	0.0099
808.1443	-0.016
808.314	0.0276
808.4837	0.0613
808.6533	-0.0376
808.8229	0.0069
808.9926	-0.0501
809.1622	0.0391
809.3317	-0.135
809.5013	-0.011
809.6708	0.0168
809.8403	-0.0097
810.0098	-0.026
810.1793	-0.0533
810.3488	-0.019
810.5182	0.0296
810.6876	0.0361
810.857	0.0439
811.0264	-0.0968
811.1958	0.1225
811.3651	-0.0656
811.5344	-0.075
811.7037	0.0649
811.873	0.057
812.0422	-0.0089
812.2115	-0.0444
812.3807	-0.1115
812.5499	0.073
812.7191	-0.113
812.8882	-0.0615
813.0574	-0.008
813.2265	-0.0442
813.3956	0.0082
813.5646	0.0477
813.7337	0.0053
813.9027	0.006
814.0718	0.1044
814.2407	0.0491
814.4097	0.0419
814.5787	0.1312
814.7476	0.0378
814.9165	0.0248
815.0854	-0.0518
815.2543	-0.0163
815.4232	0.1076
815.592	-0.0655
815.7608	-0.1796
815.9296	0.0469
816.0984	-0.0107
816.2671	-0.1164
816.4359	0.0023
816.6046	-0.0931
816.7733	0.0101
816.942	-0.0914
817.1106	0.0508
817.2793	-0.1354
817.4479	-0.0275
817.6165	0.0093
817.785	0.0277
817.9536	-0.0435
818.1221	0.004
818.2906	-0.1297
818.4591	0.0179
818.6276	-0.0123
818.7961	0.124
818.9645	0.0206
819.1329	0.2544
819.3013	-0.1043
819.4697	0.1552
819.638	-0.0745
819.8064	-0.0807
819.9747	-0.0257
820.143	-0.1552
820.3113	-0.0156
820.4795	0.1323
820.6477	0.0669
820.816	0.0654
820.9842	0.1876
821.1523	0.07
821.3205	0.0205
821.4886	-0.0523
821.6567	-0.019
821.8248	0.1051
821.9929	-0.0376
822.1609	-0.0135
822.329	0.126
822.497	0.0492
822.665	-0.0548
822.833	-0.1208
823.0009	-0.0918
823.1688	0.3611
823.3367	-0.0716
823.5046	-0.0266
823.6725	-0.0888
823.8404	-0.1352
824.0082	-0.1113
824.176	-0.122
824.3438	0.1397
824.5116	-0.0655
824.6793	0.0969
824.847	-0.08
825.0147	0.1793
825.1824	0.0242
825.3501	0.3732
825.5177	-0.0434
825.6854	-0.0655
825.853	-0.0338
826.0206	-0.1406
826.1881	0.062
826.3557	-0.1121
826.5232	0.0374
826.6907	0.029
826.8582	-0.0854
827.0257	0.0445
827.1931	0.1159
827.3605	-0.0508
827.528	-0.1059
827.6953	-0.231
827.8627	-0.0707
828.03	0.0673
828.1974	-0.0961
828.3647	0.0277
828.532	-0.0737
828.6992	0.112
828.8665	-0.0719
829.0337	-0.0398
829.2009	-0.0791
829.3681	0.0029
829.5352	-0.1777
829.7024	0.004
829.8695	0.1213
830.0366	0.137
830.2037	0.0162
830.3707	-0.0526
830.5378	-0.1327
830.7048	-0.145
830.8718	0.1012
831.0388	0.0563
831.2057	-0.0555
831.3727	-0.4567
831.5396	0.085
831.7065	-0.8657
831.8734	0.2024
832.0402	0.1303
832.2071	-0.5121
832.3739	0.0107
832.5407	-2.0894
832.7075	-0.3962
832.8742	0.1386
833.041	-0.0004
833.2077	-0.0609
833.3744	-0.043
833.541	0.1742
833.7077	0.0525
833.8743	0.1661
834.0409	0.2269
834.2075	0.005
834.3741	-0.222
834.5407	0.0614
834.7072	-0.0999
834.8737	0.0595
835.0402	0.4153
835.2067	-0.116
835.3731	-0.1456
835.5395	0.0109
835.706	-0.1241
835.8723	0.247
836.0387	0.3558
836.2051	0.0075
836.3714	-0.1589
836.5377	-0.0868
836.704	0.1312
836.8703	-0.2339
837.0365	-0.9632
837.2027	-0.1418
837.3689	-0.1116
837.5351	-0.0142
837.7013	-0.278
837.8674	-0.0022
838.0335	-0.0495
838.1997	-0.3629
838.3657	-0
838.5318	-0.5692
838.6978	0.5002
838.8639	-0.4524
839.0299	-0.0334
839.1958	0.0745
839.3618	0.0556
839.5277	-0.1752
839.6937	-0.1711
839.8596	-0.3245
840.0254	-0.2591
840.1913	-0.355
840.3571	-0.1216
840.523	-0
840.6888	0.3088
840.8545	-0.5577
841.0203	0.0563
841.186	0.0144
841.3517	-0.2385
841.5174	0.0267
841.6831	-0.0134
841.8488	0.1602
842.0144	-0.1479
842.18	0.3792
842.3456	-0.2923
842.5112	-0
842.6767	-0.1703
842.8422	-0.2037
843.0077	-0.027
843.1732	-0.4321
843.3387	-0.0142
843.5042	-0
843.6696	-0.0306
843.835	-0.1572
844.0004	-0.2261
844.1657	-0.9031
844.3311	-0.1627
844.4964	-0.2327
844.6617	0.8373
844.827	-0
844.9923	0.1765
845.1575	-0.3068
845.3227	-0.4963
845.4879	-0.2593
845.6531	0.0682
845.8183	-0.1399
845.9834	0.0444
846.1485	-0.11
846.3136	0.906
846.4787	-0
846.6438	-0.1171
846.8088	-0
846.9738	-0.8911
847.1388	0.6566
847.3038	0.3321
847.4687	-0
847.6337	-0.462
847.7986	-0.3818
847.9635	-0.0607
848.1284	0.2252
848.2932	0.3356
848.458	-0
848.6228	0.397
848.7876	-0
848.9524	0.3797
849.1172	-1.8841
849.2819	-0
849.4466	0.519
849.6113	0.3932
849.7759	-0.6685
849.9406	-0.1577
850.1052	-0.5538
850.2698	-0
850.4344	-0
850.599	-0.1306
850.7635	-0
850.928	-0.0704
851.0925	0.2438
851.257	0.1389
851.4215	-0
851.5859	0.1872
851.7503	-0
851.9147	-0.3367
852.0791	0.2621
852.2434	0.1102
852.4078	1.0631
852.5721	-0
852.7364	-0.0771
852.9007	-0.0503
853.0649	-0
853.2291	-0
853.3934	0.2559
853.5575	0.4723
853.7217	0.1766
853.8859	-0.5513
854.05	-0.2555
854.2141	1.3492
854.3782	0.3053
854.5423	-0.2555
854.7063	-0.2049
854.8703	-0.0298
855.0343	0.509
855.1983	0.196
855.3623	-0.1305
855.5262	-0.071
855.6901	0.5837
855.854	0.1059
856.0179	-0.0735
856.1818	0.4273
856.3456	0.1369
856.5094	-0.6063
856.6732	-0.4445
856.837	-0.9432
857.0008	-0.202
857.1645	0.6229
857.3282	-0.5234
857.4919	-0.0308
857.6556	-0.2948
857.8192	0.1715
857.9828	0.3153
858.1465	0.4592
858.31	-0
858.4736	-0.2686
858.6372	-0
858.8007	-0.1013
858.9642	0.1652
859.1277	0.8066
859.2911	-0.7299
859.4546	-0
859.618	0.1531
859.7814	-0
859.9448	-0
860.1081	-0
860.2715	-1.6082
860.4348	0.1002
860.5981	0.261
860.7614	-0.3455
860.9246	-0.2639
861.0879	0.177
861.2511	-0
861.4143	0.0969
861.5774	-0.2784
861.7406	-0.3874
861.9037	-0
862.0668	-0.713
862.2299	-0.0961
862.393	-0
862.556	-0.2514
862.7191	0.09
862.8821	0.2626
863.0451	0.2009
863.208	0.2759
863.371	-0.0516
863.5339	0.1312
863.6968	-0.1817
863.8597	-0.4271
864.0225	0.4896
864.1854	-0
864.3482	-0.3411
864.511	-0.1465
864.6737	-0
864.8365	-0.0947
864.9992	-0
865.1619	-0.4573
865.3246	-1.1072
865.4873	-0.058
865.65	0.3757
865.8126	1.6891
865.9752	-0.1235
866.1378	0.1335
866.3004	0.2343
866.4629	-1.81
866.6254	1.2399
866.7879	-0.1588
866.9504	-0.2455
867.1129	-0
867.2753	-0.2392
867.4377	-0.0961
867.6001	-0.0449
867.7625	0.0332
867.9249	-0.0882
868.0872	0.1203
868.2495	1.3757
868.4118	-0
868.5741	-0.6306
868.7363	-0
868.8986	-0
869.0608	0.3556
869.223	-0.8386
869.3851	-0
869.5473	0.0079
869.7094	-0
869.8715	-0.6929
870.0336	-0.0165
870.1957	-0
870.3577	-0.0234
870.5197	-0.3362
870.6817	-1.1093
870.8437	0.1196
871.0057	-0.0334
871.1676	0.2783
871.3295	0.1477
871.4914	-1.017
871.6533	-0
871.8151	-0
871.977	-0.1011
872.1388	-0.1341
872.3006	-0.3725
872.4623	-0.7689
872.6241	0.7129
872.7858	-0.1343
872.9475	0.6033
873.1092	0.1615
873.2709	0.4231
873.4325	-1.995
873.5941	-0.5953
873.7557	-0
873.9173	0.6471
874.0789	0.3104
874.2404	-0
874.4019	-0.023
874.5634	-0
874.7249	-0.0296
874.8863	-0.0881
875.0478	-0.3772
875.2092	1.74
875.3706	-0
875.5319	-0
875.6933	0.1918
875.8546	-0
876.0159	0.2128
876.1772	-0
876.3385	-0
876.4997	-0
876.6609	0.1508
876.8221	-0
876.9833	-0.1723
877.1445	0.908
877.3056	-1.3487
877.4667	-0
877.6278	-0.0937
877.7889	0.4176
877.9499	0.1576
878.111	-0.7093
878.272	-0.4946
878.433	-0.1141
878.5939	-0.1616
878.7549	0.5386
878.9158	-0
879.0767	-0
879.2376	-0.1474
879.3984	0.5728
879.5593	0.2061
879.7201	-0
879.8809	-0.0514
880.0417	-0.2983
880.2024	-0.1529
880.3632	-0.5346
880.5239	0.0421
880.6846	-0.6537
880.8452	-0.242
881.0059	-1.0298
881.1665	-0.2369
881.3271	1.251
881.4877	-0.0007
881.6483	-0.9031
881.8088	-0
881.9693	-0
882.1298	-0
882.2903	-0
