Data from D4ACN5uM440nmA_Absorbance_13-50-26-438.txt Node
Date: Fri Feb 21 13:50:26 GMT 2025
User: LASERRRRR
Spectrometer: FLMT03099
Trigger mode: 0
Integration Time (sec): 1.500000E-2
Scans to average: 1
Electric dark correction enabled: true
Nonlinearity correction enabled: false
Boxcar width: 0
XAxis mode: Wavelengths
Number of Pixels in Spectrum: 3648
>>>>>Begin Spectral Data<<<<<
179.3399	-0.2765
179.5586	-0.2765
179.7771	-0.2765
179.9957	-0.0981
180.2143	-0
180.4329	0.5002
180.6514	-0
180.8699	-0
181.0885	-0
181.307	-0.0283
181.5255	-0.173
181.744	-0
181.9625	-0
182.181	-0
182.3994	-0.7104
182.6179	-0.4835
182.8363	0.243
183.0547	-0.2579
183.2732	0.2286
183.4916	0.2043
183.71	0.0728
183.9284	0.0759
184.1467	0.2728
184.3651	-0.0437
184.5835	0.1974
184.8018	0.0746
185.0201	-0.0068
185.2385	0.4698
185.4568	0.0638
185.6751	0.0712
185.8934	0.0975
186.1117	-0.2899
186.3299	0.1931
186.5482	0.2726
186.7664	0.0547
186.9847	0.1628
187.2029	0.2234
187.4211	-0.044
187.6393	0.0966
187.8575	0.2013
188.0757	0.4614
188.2939	0.0768
188.512	0.1882
188.7302	0.2552
188.9483	0.3279
189.1665	0.4701
189.3846	0.1439
189.6027	0.19
189.8208	0.2229
190.0389	0.118
190.257	-0.0646
190.475	-0.0216
190.6931	0.2106
190.9111	-0.0154
191.1292	0.0849
191.3472	0.1786
191.5652	0.1155
191.7832	0.4022
192.0012	0.1513
192.2192	0.1523
192.4371	0.184
192.6551	0.3506
192.873	0.1246
193.091	0.1282
193.3089	0.1515
193.5268	0.2327
193.7447	0.1196
193.9626	0.2151
194.1805	0.2907
194.3984	0.2223
194.6162	0.2143
194.8341	0.2853
195.0519	0.2665
195.2697	0.2403
195.4875	0.2809
195.7054	0.3036
195.9231	0.2778
196.1409	0.3327
196.3587	0.3786
196.5765	0.2878
196.7942	0.3308
197.012	0.3504
197.2297	0.3354
197.4474	0.3961
197.6651	0.338
197.8828	0.4748
198.1005	0.3737
198.3182	0.4074
198.5358	0.3687
198.7535	0.3968
198.9711	0.3822
199.1888	0.3527
199.4064	0.4185
199.624	0.359
199.8416	0.4009
200.0592	0.3759
200.2767	0.3555
200.4943	0.4197
200.7119	0.4039
200.9294	0.3776
201.1469	0.3872
201.3645	0.4353
201.582	0.4021
201.7995	0.3935
202.017	0.4119
202.2344	0.4282
202.4519	0.4036
202.6694	0.4163
202.8868	0.4062
203.1042	0.4063
203.3217	0.4025
203.5391	0.455
203.7565	0.3713
203.9739	0.3984
204.1913	0.3436
204.4086	0.3898
204.626	0.3412
204.8433	0.3618
205.0607	0.3609
205.278	0.3596
205.4953	0.328
205.7126	0.34
205.9299	0.3455
206.1472	0.3297
206.3644	0.3301
206.5817	0.3409
206.7989	0.3301
207.0162	0.3371
207.2334	0.3187
207.4506	0.3107
207.6678	0.3207
207.885	0.2884
208.1022	0.299
208.3194	0.2971
208.5365	0.3008
208.7537	0.291
208.9708	0.3142
209.1879	0.282
209.405	0.2728
209.6222	0.2608
209.8392	0.3243
210.0563	0.283
210.2734	0.2504
210.4905	0.2716
210.7075	0.2475
210.9245	0.2487
211.1416	0.2781
211.3586	0.2441
211.5756	0.2337
211.7926	0.2653
212.0096	0.2805
212.2265	0.2489
212.4435	0.2473
212.6604	0.263
212.8774	0.2525
213.0943	0.2581
213.3112	0.2501
213.5281	0.267
213.745	0.247
213.9619	0.2488
214.1788	0.2571
214.3956	0.2459
214.6125	0.2475
214.8293	0.2329
215.0461	0.2374
215.2629	0.26
215.4798	0.2472
215.6965	0.2582
215.9133	0.2442
216.1301	0.2385
216.3469	0.2419
216.5636	0.2475
216.7803	0.2465
216.9971	0.2462
217.2138	0.2547
217.4305	0.2319
217.6472	0.2493
217.8639	0.2412
218.0805	0.2571
218.2972	0.2383
218.5138	0.2508
218.7305	0.2541
218.9471	0.253
219.1637	0.2743
219.3803	0.2487
219.5969	0.2558
219.8135	0.2531
220.0301	0.2654
220.2466	0.2535
220.4632	0.2436
220.6797	0.2568
220.8962	0.2556
221.1127	0.2684
221.3292	0.273
221.5457	0.2668
221.7622	0.2665
221.9787	0.2713
222.1951	0.2808
222.4116	0.2714
222.628	0.2886
222.8444	0.2692
223.0608	0.272
223.2772	0.2712
223.4936	0.2679
223.71	0.2865
223.9264	0.2865
224.1427	0.2943
224.3591	0.2711
224.5754	0.2879
224.7917	0.2895
225.008	0.2979
225.2243	0.2904
225.4406	0.2902
225.6569	0.3074
225.8732	0.3154
226.0894	0.3086
226.3057	0.3116
226.5219	0.3153
226.7381	0.3267
226.9543	0.3081
227.1705	0.3162
227.3867	0.3145
227.6029	0.3248
227.8191	0.3391
228.0352	0.3384
228.2513	0.3465
228.4675	0.344
228.6836	0.3525
228.8997	0.3475
229.1158	0.3594
229.3319	0.3515
229.548	0.3482
229.764	0.3613
229.9801	0.3722
230.1961	0.3741
230.4121	0.3664
230.6282	0.3793
230.8442	0.384
231.0602	0.3798
231.2761	0.3834
231.4921	0.3785
231.7081	0.3774
231.924	0.4
232.14	0.3952
232.3559	0.4017
232.5718	0.4139
232.7877	0.4163
233.0036	0.4133
233.2195	0.4145
233.4353	0.4125
233.6512	0.4152
233.867	0.4165
234.0829	0.4249
234.2987	0.4351
234.5145	0.4336
234.7303	0.4341
234.9461	0.4408
235.1619	0.4386
235.3776	0.4236
235.5934	0.4198
235.8091	0.4352
236.0249	0.4464
236.2406	0.4435
236.4563	0.4471
236.672	0.4428
236.8877	0.4414
237.1034	0.4494
237.319	0.4508
237.5347	0.4529
237.7503	0.4436
237.966	0.4638
238.1816	0.4615
238.3972	0.4524
238.6128	0.4665
238.8284	0.4677
239.0439	0.4524
239.2595	0.4687
239.475	0.4577
239.6906	0.4589
239.9061	0.4507
240.1216	0.4515
240.3371	0.46
240.5526	0.4551
240.7681	0.4572
240.9836	0.4661
241.199	0.452
241.4145	0.4478
241.6299	0.4555
241.8453	0.4442
242.0607	0.441
242.2761	0.4321
242.4915	0.4198
242.7069	0.421
242.9223	0.4281
243.1376	0.4173
243.353	0.4076
243.5683	0.4073
243.7836	0.3868
243.9989	0.385
244.2142	0.3805
244.4295	0.369
244.6448	0.3715
244.86	0.3595
245.0753	0.3448
245.2905	0.3507
245.5057	0.3435
245.721	0.3383
245.9362	0.3335
246.1514	0.3265
246.3665	0.3104
246.5817	0.3006
246.7969	0.3026
247.012	0.2993
247.2271	0.2962
247.4423	0.2906
247.6574	0.2885
247.8725	0.278
248.0876	0.2668
248.3026	0.2669
248.5177	0.2612
248.7328	0.2565
248.9478	0.2554
249.1628	0.2463
249.3779	0.2456
249.5929	0.2386
249.8079	0.2358
250.0228	0.2323
250.2378	0.2313
250.4528	0.2284
250.6677	0.2212
250.8827	0.2179
251.0976	0.2124
251.3125	0.2237
251.5274	0.2112
251.7423	0.2069
251.9572	0.2054
252.172	0.2093
252.3869	0.2075
252.6017	0.2048
252.8166	0.1966
253.0314	0.197
253.2462	0.2002
253.461	0.1947
253.6758	0.1946
253.8906	0.1926
254.1053	0.1895
254.3201	0.1916
254.5348	0.1893
254.7496	0.1828
254.9643	0.1879
255.179	0.1875
255.3937	0.1901
255.6083	0.1916
255.823	0.1873
256.0377	0.1835
256.2523	0.1803
256.467	0.1896
256.6816	0.181
256.8962	0.1834
257.1108	0.1792
257.3254	0.183
257.54	0.1762
257.7545	0.1845
257.9691	0.1867
258.1836	0.1779
258.3981	0.1887
258.6127	0.1745
258.8272	0.1776
259.0417	0.1724
259.2561	0.1762
259.4706	0.1775
259.6851	0.18
259.8995	0.1803
260.114	0.1824
260.3284	0.183
260.5428	0.1795
260.7572	0.1763
260.9716	0.1886
261.186	0.1755
261.4003	0.1754
261.6147	0.1758
261.829	0.1815
262.0433	0.1774
262.2577	0.1775
262.472	0.1766
262.6863	0.1858
262.9005	0.1802
263.1148	0.1768
263.3291	0.1848
263.5433	0.1839
263.7576	0.1728
263.9718	0.1821
264.186	0.1829
264.4002	0.1874
264.6144	0.1869
264.8286	0.1868
265.0427	0.1878
265.2569	0.1839
265.471	0.1882
265.6851	0.1875
265.8993	0.1876
266.1134	0.1828
266.3275	0.1844
266.5415	0.1834
266.7556	0.1875
266.9697	0.1902
267.1837	0.1834
267.3978	0.1923
267.6118	0.1748
267.8258	0.1834
268.0398	0.1894
268.2538	0.1897
268.4677	0.184
268.6817	0.187
268.8957	0.1756
269.1096	0.1745
269.3235	0.1808
269.5374	0.1853
269.7514	0.1818
269.9652	0.1791
270.1791	0.1759
270.393	0.1749
270.6068	0.1787
270.8207	0.1802
271.0345	0.1785
271.2483	0.1734
271.4622	0.1831
271.676	0.1826
271.8897	0.1775
272.1035	0.183
272.3173	0.1838
272.531	0.1811
272.7448	0.1738
272.9585	0.1791
273.1722	0.1775
273.3859	0.1774
273.5996	0.1831
273.8133	0.1868
274.0269	0.1788
274.2406	0.1851
274.4542	0.1834
274.6679	0.1888
274.8815	0.1907
275.0951	0.1906
275.3087	0.1854
275.5223	0.1838
275.7358	0.1867
275.9494	0.1873
276.1629	0.1881
276.3765	0.1888
276.59	0.1811
276.8035	0.1839
277.017	0.1948
277.2305	0.1953
277.444	0.1902
277.6574	0.1973
277.8709	0.1976
278.0843	0.19
278.2978	0.1922
278.5112	0.1901
278.7246	0.1883
278.938	0.1917
279.1513	0.1973
279.3647	0.1958
279.5781	0.1924
279.7914	0.189
280.0047	0.1929
280.2181	0.1859
280.4314	0.1871
280.6447	0.191
280.8579	0.1832
281.0712	0.1888
281.2845	0.1873
281.4977	0.1877
281.711	0.1824
281.9242	0.1873
282.1374	0.1932
282.3506	0.1895
282.5638	0.1889
282.7769	0.1856
282.9901	0.1876
283.2033	0.1809
283.4164	0.181
283.6295	0.1821
283.8426	0.1837
284.0557	0.1824
284.2688	0.1854
284.4819	0.1815
284.695	0.1913
284.908	0.1867
285.1211	0.1843
285.3341	0.1873
285.5471	0.1802
285.7601	0.1912
285.9731	0.1806
286.1861	0.1874
286.3991	0.1902
286.612	0.1888
286.825	0.1894
287.0379	0.1845
287.2508	0.1846
287.4637	0.1928
287.6766	0.1837
287.8895	0.1896
288.1024	0.1897
288.3152	0.1908
288.5281	0.1846
288.7409	0.1909
288.9538	0.1848
289.1666	0.1869
289.3794	0.1815
289.5922	0.1843
289.8049	0.1881
290.0177	0.1883
290.2304	0.1876
290.4432	0.1922
290.6559	0.1882
290.8686	0.1817
291.0813	0.1827
291.294	0.1888
291.5067	0.1864
291.7194	0.1874
291.932	0.1833
292.1447	0.1898
292.3573	0.1897
292.5699	0.1875
292.7825	0.184
292.9951	0.1883
293.2077	0.1834
293.4203	0.1882
293.6328	0.1875
293.8454	0.188
294.0579	0.1876
294.2704	0.1937
294.4829	0.184
294.6954	0.1861
294.9079	0.1875
295.1204	0.1813
295.3328	0.184
295.5453	0.1876
295.7577	0.1845
295.9701	0.1828
296.1825	0.1893
296.3949	0.1827
296.6073	0.1776
296.8197	0.1882
297.0321	0.188
297.2444	0.183
297.4567	0.1939
297.6691	0.1832
297.8814	0.1852
298.0937	0.1852
298.306	0.1824
298.5182	0.1856
298.7305	0.1866
298.9428	0.1888
299.155	0.1809
299.3672	0.1846
299.5794	0.1873
299.7916	0.1921
300.0038	0.1815
300.216	0.1847
300.4282	0.1903
300.6403	0.1905
300.8525	0.1886
301.0646	0.1882
301.2767	0.1893
301.4888	0.191
301.7009	0.1878
301.913	0.1875
302.125	0.1848
302.3371	0.1889
302.5491	0.1844
302.7612	0.1923
302.9732	0.1906
303.1852	0.1906
303.3972	0.1923
303.6092	0.1857
303.8211	0.1884
304.0331	0.1859
304.245	0.1874
304.457	0.18
304.6689	0.185
304.8808	0.1825
305.0927	0.1826
305.3046	0.1818
305.5164	0.1787
305.7283	0.1765
305.9401	0.1691
306.152	0.1778
306.3638	0.1778
306.5756	0.1792
306.7874	0.1721
306.9992	0.1674
307.2109	0.1713
307.4227	0.1693
307.6344	0.1707
307.8462	0.1664
308.0579	0.1729
308.2696	0.1627
308.4813	0.1636
308.693	0.1567
308.9046	0.1655
309.1163	0.1538
309.328	0.1584
309.5396	0.1548
309.7512	0.1533
309.9628	0.1528
310.1744	0.1514
310.386	0.1458
310.5976	0.1435
310.8091	0.1553
311.0207	0.1494
311.2322	0.1433
311.4437	0.1468
311.6552	0.1498
311.8667	0.1483
312.0782	0.1454
312.2897	0.1461
312.5012	0.1411
312.7126	0.1396
312.924	0.1396
313.1355	0.1389
313.3469	0.1388
313.5583	0.1409
313.7696	0.138
313.981	0.1416
314.1924	0.1293
314.4037	0.1385
314.6151	0.1289
314.8264	0.1358
315.0377	0.1371
315.249	0.1348
315.4603	0.1273
315.6716	0.1332
315.8828	0.1356
316.0941	0.1345
316.3053	0.129
316.5165	0.1331
316.7277	0.1294
316.9389	0.135
317.1501	0.1317
317.3613	0.1294
317.5724	0.1293
317.7836	0.1262
317.9947	0.1281
318.2058	0.1329
318.417	0.129
318.6281	0.1266
318.8391	0.131
319.0502	0.1334
319.2613	0.1299
319.4723	0.1297
319.6834	0.1317
319.8944	0.13
320.1054	0.1285
320.3164	0.1265
320.5274	0.1304
320.7383	0.1282
320.9493	0.1282
321.1602	0.1317
321.3712	0.1297
321.5821	0.128
321.793	0.1343
322.0039	0.1312
322.2148	0.1305
322.4257	0.1246
322.6365	0.1282
322.8474	0.1335
323.0582	0.1339
323.269	0.134
323.4798	0.1336
323.6906	0.1289
323.9014	0.129
324.1122	0.1261
324.3229	0.1282
324.5337	0.1382
324.7444	0.1296
324.9551	0.1368
325.1658	0.133
325.3765	0.1351
325.5872	0.1295
325.7979	0.1324
326.0085	0.1307
326.2192	0.1298
326.4298	0.1422
326.6404	0.1382
326.851	0.1335
327.0616	0.1388
327.2722	0.1404
327.4828	0.1367
327.6933	0.1427
327.9039	0.1353
328.1144	0.1435
328.3249	0.1455
328.5354	0.1353
328.7459	0.1367
328.9564	0.1383
329.1669	0.1491
329.3773	0.1354
329.5878	0.1422
329.7982	0.147
330.0086	0.1439
330.219	0.1401
330.4294	0.1472
330.6398	0.146
330.8502	0.144
331.0605	0.1448
331.2708	0.1408
331.4812	0.1477
331.6915	0.1449
331.9018	0.1492
332.1121	0.1474
332.3224	0.1401
332.5326	0.1444
332.7429	0.1417
332.9531	0.1422
333.1633	0.1451
333.3735	0.1429
333.5837	0.1441
333.7939	0.1412
334.0041	0.1485
334.2143	0.1417
334.4244	0.151
334.6346	0.1461
334.8447	0.145
335.0548	0.1465
335.2649	0.1489
335.475	0.1471
335.685	0.1426
335.8951	0.1321
336.1051	0.1488
336.3152	0.1442
336.5252	0.1439
336.7352	0.1393
336.9452	0.1434
337.1552	0.1446
337.3652	0.1509
337.5751	0.1451
337.7851	0.1441
337.995	0.1507
338.2049	0.1435
338.4148	0.1438
338.6247	0.147
338.8346	0.1494
339.0445	0.1476
339.2543	0.1539
339.4642	0.1458
339.674	0.1391
339.8838	0.1455
340.0936	0.1453
340.3034	0.1442
340.5132	0.1431
340.7229	0.1464
340.9327	0.1563
341.1424	0.1529
341.3522	0.1469
341.5619	0.1549
341.7716	0.1482
341.9813	0.1597
342.1909	0.1547
342.4006	0.1562
342.6102	0.1585
342.8199	0.1503
343.0295	0.1522
343.2391	0.158
343.4487	0.158
343.6583	0.157
343.8679	0.1603
344.0774	0.1593
344.287	0.1605
344.4965	0.163
344.706	0.1616
344.9155	0.1571
345.125	0.1543
345.3345	0.166
345.544	0.1662
345.7534	0.1697
345.9629	0.1649
346.1723	0.1703
346.3817	0.1659
346.5911	0.1737
346.8005	0.1736
347.0099	0.1724
347.2193	0.183
347.4286	0.1763
347.638	0.175
347.8473	0.1795
348.0566	0.1734
348.2659	0.1752
348.4752	0.1803
348.6845	0.1751
348.8937	0.1724
349.103	0.173
349.3122	0.1735
349.5214	0.1789
349.7306	0.181
349.9398	0.1798
350.149	0.1804
350.3582	0.1821
350.5674	0.1814
350.7765	0.1839
350.9856	0.1767
351.1948	0.189
351.4039	0.1764
351.613	0.1797
351.822	0.18
352.0311	0.1826
352.2402	0.1757
352.4492	0.1774
352.6582	0.1815
352.8672	0.1885
353.0762	0.1897
353.2852	0.1829
353.4942	0.186
353.7032	0.1858
353.9121	0.1805
354.1211	0.1824
354.33	0.183
354.5389	0.1795
354.7478	0.1765
354.9567	0.1894
355.1655	0.1833
355.3744	0.1742
355.5833	0.1894
355.7921	0.1937
356.0009	0.188
356.2097	0.1793
356.4185	0.1811
356.6273	0.1841
356.8361	0.1907
357.0448	0.1886
357.2536	0.184
357.4623	0.1901
357.671	0.1934
357.8797	0.1879
358.0884	0.1894
358.2971	0.1884
358.5057	0.1943
358.7144	0.1908
358.923	0.1981
359.1316	0.2012
359.3402	0.1897
359.5488	0.1891
359.7574	0.1891
359.966	0.1888
360.1746	0.1919
360.3831	0.1952
360.5916	0.1949
360.8002	0.1998
361.0087	0.2004
361.2172	0.1953
361.4256	0.2035
361.6341	0.1971
361.8426	0.2003
362.051	0.2074
362.2594	0.1997
362.4678	0.206
362.6762	0.2062
362.8846	0.2027
363.093	0.2076
363.3014	0.2105
363.5097	0.2101
363.718	0.2086
363.9264	0.2089
364.1347	0.2067
364.343	0.2084
364.5513	0.2125
364.7595	0.2162
364.9678	0.2116
365.176	0.215
365.3842	0.2121
365.5925	0.2164
365.8007	0.2148
366.0089	0.2302
366.217	0.2212
366.4252	0.2132
366.6333	0.2178
366.8415	0.2244
367.0496	0.2192
367.2577	0.2274
367.4658	0.2164
367.6739	0.2217
367.882	0.2304
368.09	0.2192
368.2981	0.2272
368.5061	0.2266
368.7141	0.2236
368.9221	0.2348
369.1301	0.235
369.3381	0.2303
369.5461	0.2331
369.754	0.235
369.962	0.2305
370.1699	0.2392
370.3778	0.2471
370.5857	0.2267
370.7936	0.2389
371.0015	0.24
371.2093	0.2384
371.4172	0.234
371.625	0.244
371.8328	0.233
372.0406	0.2497
372.2484	0.2372
372.4562	0.2444
372.664	0.2459
372.8717	0.2519
373.0795	0.2432
373.2872	0.2436
373.4949	0.2392
373.7026	0.2415
373.9103	0.2425
374.118	0.2488
374.3256	0.2526
374.5333	0.2432
374.7409	0.2417
374.9485	0.2445
375.1561	0.2532
375.3637	0.2432
375.5713	0.2609
375.7789	0.2486
375.9864	0.2487
376.194	0.2558
376.4015	0.2563
376.609	0.2591
376.8165	0.259
377.024	0.262
377.2315	0.2617
377.4389	0.251
377.6464	0.274
377.8538	0.2617
378.0612	0.2649
378.2686	0.2594
378.476	0.2659
378.6834	0.2672
378.8908	0.2665
379.0981	0.2614
379.3055	0.2737
379.5128	0.2603
379.7201	0.2667
379.9274	0.265
380.1347	0.2633
380.342	0.2705
380.5492	0.2625
380.7565	0.2747
380.9637	0.2671
381.1709	0.2643
381.3781	0.2816
381.5853	0.265
381.7925	0.264
381.9997	0.2809
382.2068	0.2684
382.4139	0.2672
382.6211	0.2763
382.8282	0.2811
383.0353	0.2757
383.2424	0.2758
383.4494	0.2737
383.6565	0.2736
383.8635	0.2758
384.0706	0.2708
384.2776	0.2768
384.4846	0.2851
384.6916	0.2754
384.8986	0.2893
385.1055	0.2853
385.3125	0.2768
385.5194	0.2869
385.7263	0.2805
385.9333	0.2725
386.1402	0.2775
386.347	0.2678
386.5539	0.2818
386.7608	0.2824
386.9676	0.2711
387.1744	0.2738
387.3813	0.2844
387.5881	0.2782
387.7948	0.2792
388.0016	0.2821
388.2084	0.2689
388.4151	0.277
388.6219	0.2687
388.8286	0.281
389.0353	0.2836
389.242	0.2734
389.4487	0.2738
389.6553	0.2587
389.862	0.2639
390.0686	0.2831
390.2753	0.2696
390.4819	0.2695
390.6885	0.2669
390.8951	0.2759
391.1016	0.2761
391.3082	0.2676
391.5147	0.2683
391.7213	0.2689
391.9278	0.263
392.1343	0.2606
392.3408	0.2594
392.5473	0.2609
392.7537	0.2581
392.9602	0.2535
393.1666	0.2595
393.373	0.25
393.5794	0.2594
393.7858	0.2604
393.9922	0.2568
394.1986	0.2531
394.4049	0.2507
394.6113	0.2549
394.8176	0.2499
395.0239	0.244
395.2302	0.2543
395.4365	0.2491
395.6428	0.249
395.8491	0.2458
396.0553	0.239
396.2615	0.2418
396.4678	0.2514
396.674	0.2443
396.8802	0.2385
397.0863	0.2392
397.2925	0.2453
397.4987	0.239
397.7048	0.2299
397.9109	0.2311
398.117	0.2411
398.3231	0.2366
398.5292	0.2342
398.7353	0.2355
398.9413	0.2369
399.1474	0.2371
399.3534	0.2272
399.5594	0.236
399.7654	0.2269
399.9714	0.2327
400.1774	0.2352
400.3833	0.2358
400.5893	0.2359
400.7952	0.2427
401.0011	0.2313
401.207	0.2342
401.4129	0.2308
401.6188	0.2286
401.8247	0.2506
402.0305	0.2268
402.2364	0.2342
402.4422	0.2309
402.648	0.2345
402.8538	0.2352
403.0596	0.2337
403.2654	0.2324
403.4711	0.2292
403.6768	0.2335
403.8826	0.2294
404.0883	0.2353
404.294	0.2369
404.4997	0.2399
404.7054	0.2384
404.911	0.2317
405.1167	0.2358
405.3223	0.2355
405.5279	0.2268
405.7335	0.2289
405.9391	0.2311
406.1447	0.2378
406.3502	0.2293
406.5558	0.2362
406.7613	0.2256
406.9668	0.2357
407.1724	0.2366
407.3778	0.2423
407.5833	0.2148
407.7888	0.2418
407.9942	0.2303
408.1997	0.2315
408.4051	0.2272
408.6105	0.2394
408.8159	0.2263
409.0213	0.2228
409.2267	0.2311
409.432	0.2314
409.6374	0.2378
409.8427	0.2334
410.048	0.2314
410.2533	0.2295
410.4586	0.2147
410.6639	0.2309
410.8691	0.2312
411.0744	0.2425
411.2796	0.2441
411.4848	0.2329
411.69	0.2356
411.8952	0.2359
412.1004	0.2394
412.3056	0.2151
412.5107	0.2339
412.7158	0.243
412.921	0.228
413.1261	0.2315
413.3312	0.2357
413.5362	0.2393
413.7413	0.2181
413.9464	0.2183
414.1514	0.2263
414.3564	0.2171
414.5614	0.2211
414.7664	0.2248
414.9714	0.2242
415.1764	0.2309
415.3813	0.2236
415.5863	0.2325
415.7912	0.2191
415.9961	0.2259
416.201	0.2286
416.4059	0.2263
416.6108	0.233
416.8156	0.2285
417.0205	0.2251
417.2253	0.2195
417.4301	0.2252
417.6349	0.2249
417.8397	0.2196
418.0445	0.2169
418.2492	0.2174
418.454	0.2176
418.6587	0.2191
418.8634	0.2207
419.0681	0.2096
419.2728	0.2183
419.4775	0.2337
419.6822	0.2185
419.8868	0.2115
420.0915	0.2126
420.2961	0.2
420.5007	0.2187
420.7053	0.2103
420.9099	0.212
421.1144	0.2081
421.319	0.2172
421.5235	0.2106
421.728	0.2198
421.9325	0.2044
422.137	0.2114
422.3415	0.2071
422.546	0.2082
422.7504	0.2077
422.9549	0.2192
423.1593	0.2129
423.3637	0.2136
423.5681	0.2092
423.7725	0.201
423.9769	0.2097
424.1812	0.1978
424.3856	0.1925
424.5899	0.2009
424.7942	0.2021
424.9985	0.2005
425.2028	0.2044
425.4071	0.2044
425.6113	0.2077
425.8156	0.2045
426.0198	0.1945
426.224	0.205
426.4282	0.1856
426.6324	0.1978
426.8366	0.1881
427.0407	0.1971
427.2449	0.1867
427.449	0.1957
427.6531	0.1924
427.8572	0.192
428.0613	0.1903
428.2654	0.1894
428.4694	0.1794
428.6735	0.1786
428.8775	0.1774
429.0815	0.181
429.2855	0.1732
429.4895	0.1789
429.6935	0.1779
429.8975	0.165
430.1014	0.1815
430.3053	0.1825
430.5093	0.1659
430.7132	0.1698
430.9171	0.168
431.1209	0.1602
431.3248	0.1562
431.5286	0.156
431.7325	0.1719
431.9363	0.1612
432.1401	0.1572
432.3439	0.1583
432.5477	0.1557
432.7514	0.1566
432.9552	0.1469
433.1589	0.1523
433.3627	0.16
433.5664	0.1437
433.7701	0.1518
433.9737	0.1503
434.1774	0.1459
434.3811	0.1466
434.5847	0.1442
434.7883	0.1455
434.9919	0.1384
435.1955	0.1358
435.3991	0.1396
435.6027	0.1338
435.8062	0.1473
436.0098	0.1199
436.2133	0.125
436.4168	0.1311
436.6203	0.1263
436.8238	0.1295
437.0272	0.1243
437.2307	0.1169
437.4341	0.1119
437.6375	0.1248
437.841	0.1157
438.0443	0.1144
438.2477	0.108
438.4511	0.1089
438.6545	0.1136
438.8578	0.1079
439.0611	0.1154
439.2644	0.1047
439.4677	0.105
439.671	0.1002
439.8743	0.1064
440.0775	0.1068
440.2808	0.1061
440.484	0.094
440.6872	0.0985
440.8904	0.0883
441.0936	0.1
441.2967	0.0891
441.4999	0.0815
441.703	0.0864
441.9062	0.0989
442.1093	0.1012
442.3124	0.0877
442.5155	0.0799
442.7185	0.0807
442.9216	0.0844
443.1246	0.0765
443.3276	0.0787
443.5307	0.0664
443.7337	0.0814
443.9366	0.0699
444.1396	0.0784
444.3426	0.0749
444.5455	0.0724
444.7484	0.0628
444.9513	0.0643
445.1542	0.0748
445.3571	0.0675
445.56	0.0699
445.7628	0.0722
445.9657	0.0656
446.1685	0.0613
446.3713	0.0696
446.5741	0.0714
446.7769	0.065
446.9797	0.0598
447.1824	0.0584
447.3852	0.0529
447.5879	0.0613
447.7906	0.0516
447.9933	0.0538
448.196	0.0557
448.3986	0.0493
448.6013	0.0496
448.8039	0.0516
449.0066	0.0546
449.2092	0.0542
449.4118	0.0486
449.6143	0.0495
449.8169	0.047
450.0195	0.0466
450.222	0.0517
450.4245	0.0543
450.627	0.0497
450.8295	0.0384
451.032	0.039
451.2345	0.03
451.4369	0.0347
451.6394	0.0424
451.8418	0.0364
452.0442	0.0401
452.2466	0.0333
452.449	0.0376
452.6513	0.041
452.8537	0.0399
453.056	0.03
453.2583	0.029
453.4607	0.0212
453.663	0.0324
453.8652	0.0277
454.0675	0.0385
454.2697	0.0199
454.472	0.0213
454.6742	0.0265
454.8764	0.0295
455.0786	0.0273
455.2808	0.025
455.4829	0.0296
455.6851	0.0299
455.8872	0.0247
456.0893	0.0251
456.2915	0.0247
456.4935	0.031
456.6956	0.0177
456.8977	0.0257
457.0997	0.0315
457.3018	0.0204
457.5038	0.0255
457.7058	0.0266
457.9078	0.0302
458.1098	0.0264
458.3117	0.0279
458.5137	0.0063
458.7156	0.0247
458.9175	0.0224
459.1194	0.0214
459.3213	0.0192
459.5232	0.0206
459.725	0.023
459.9269	0.0229
460.1287	0.0099
460.3305	0.0279
460.5323	0.0227
460.7341	0.0183
460.9359	0.0124
461.1376	0.0157
461.3394	0.0189
461.5411	0.0184
461.7428	0.0158
461.9445	0.0179
462.1462	0.0144
462.3479	0.0148
462.5495	0.0189
462.7512	0.0226
462.9528	0.0185
463.1544	0.0163
463.356	0.0107
463.5576	0.0164
463.7592	0.0183
463.9607	0.0187
464.1623	0.0193
464.3638	0.0099
464.5653	0.0178
464.7668	0.0211
464.9683	0.0151
465.1697	0.0054
465.3712	0.0018
465.5726	0.0084
465.7741	0.02
465.9755	0.0091
466.1769	0.0164
466.3782	0.0253
466.5796	0.0124
466.7809	0.0112
466.9823	0.012
467.1836	0.01
467.3849	0.0153
467.5862	0.0038
467.7875	0.0036
467.9887	0.0227
468.19	0.0117
468.3912	0.0222
468.5924	0.0015
468.7936	0.008
468.9948	-0.0038
469.196	0.0081
469.3972	0.0034
469.5983	0.0129
469.7994	0.0158
470.0006	0.0073
470.2017	0.0069
470.4027	0.0184
470.6038	0.0194
470.8049	0.0166
471.0059	0.0073
471.2069	0.0072
471.408	0.0163
471.6089	0.0091
471.8099	0.004
472.0109	0.0155
472.2119	0.0235
472.4128	-0.0039
472.6137	-0.0003
472.8146	0.001
473.0155	0.0121
473.2164	0.0093
473.4173	0.0035
473.6181	0.0104
473.819	0.014
474.0198	-0.0016
474.2206	-0.0051
474.4214	0.0106
474.6222	-0.0036
474.8229	0.0051
475.0237	0.012
475.2244	0.0065
475.4251	0.0056
475.6258	0.0071
475.8265	0.0029
476.0272	0.006
476.2278	0.006
476.4285	0.0037
476.6291	0.0065
476.8297	0.0064
477.0303	-0.0024
477.2309	0.007
477.4315	0.0084
477.632	-0.0018
477.8326	0.0129
478.0331	0.011
478.2336	0.0061
478.4341	0.0023
478.6346	0.0066
478.8351	-0.0047
479.0355	0.0127
479.236	0.0119
479.4364	0.0096
479.6368	0.006
479.8372	0.0049
480.0376	0.0073
480.2379	0.0029
480.4383	0.009
480.6386	0.0019
480.8389	0.0101
481.0392	0.0044
481.2395	0.012
481.4398	0.0093
481.6401	0.0123
481.8403	0.0071
482.0405	-0.0028
482.2408	0.0119
482.441	0.0114
482.6411	0.0062
482.8413	0.0043
483.0415	0.0135
483.2416	0.004
483.4417	0.0066
483.6419	0.0026
483.8419	0.003
484.042	0.0044
484.2421	-0.0069
484.4422	0.0069
484.6422	0.0038
484.8422	0.0073
485.0422	0.0027
485.2422	0.0045
485.4422	0.0064
485.6422	0.0021
485.8421	0.0036
486.042	0.012
486.242	-0
486.4419	0.0077
486.6417	0.0042
486.8416	0.0086
487.0415	0.0049
487.2413	0.003
487.4411	0.0091
487.641	0.0035
487.8408	0.0069
488.0405	0.0146
488.2403	0.0037
488.4401	0.002
488.6398	0.0038
488.8395	0.0059
489.0392	0.0023
489.2389	0.0121
489.4386	-0.0049
489.6383	0.0056
489.8379	-0.0044
490.0376	0.0044
490.2372	0.0002
490.4368	-0
490.6364	-0.002
490.836	0.0084
491.0355	-0.0053
491.2351	0.0097
491.4346	0.0085
491.6341	0.0032
491.8336	0.0097
492.0331	-0.0003
492.2326	0.0119
492.432	0.0072
492.6315	0.0071
492.8309	0.0018
493.0303	0.0055
493.2297	0.01
493.4291	0.0024
493.6284	0.0119
493.8278	0.0061
494.0271	0.0076
494.2264	-0.0018
494.4257	0.0027
494.625	-0.0012
494.8243	-0.0004
495.0236	0.0112
495.2228	0.0098
495.422	0.0078
495.6213	0.007
495.8205	0.0126
496.0196	0.0031
496.2188	0.0061
496.418	0.0075
496.6171	-0.0017
496.8162	0.008
497.0153	0.0074
497.2144	0.0004
497.4135	0.0036
497.6126	0.0056
497.8116	0.0079
498.0107	0.0092
498.2097	0.0039
498.4087	0.0092
498.6077	-0.0036
498.8067	0.0101
499.0056	0.0042
499.2046	0.0048
499.4035	0.0138
499.6024	-0.0035
499.8013	0.0015
500.0002	0.0059
500.199	0.0135
500.3979	0.0069
500.5967	0.0017
500.7956	0.0037
500.9944	0.0022
501.1932	0.0148
501.3919	0.0116
501.5907	0.0098
501.7895	0.004
501.9882	0.0083
502.1869	0.0103
502.3856	0.0042
502.5843	0.0072
502.783	0.0072
502.9816	0.0073
503.1803	0.0128
503.3789	0.0074
503.5775	0.0042
503.7761	0.0011
503.9747	0.0129
504.1732	-0.0021
504.3718	0.0196
504.5703	0.0081
504.7689	-0.0049
504.9674	-0.0007
505.1658	0.0067
505.3643	0.0045
505.5628	0.0144
505.7612	0.0004
505.9597	-0.0049
506.1581	0.0013
506.3565	0.0002
506.5549	-0.0045
506.7532	0.0024
506.9516	0.0115
507.1499	0.0013
507.3482	0.0073
507.5465	0.0064
507.7448	0.0031
507.9431	0.0105
508.1414	-0.0004
508.3396	0.0024
508.5379	0.0052
508.7361	0.0128
508.9343	0.0057
509.1325	0.0121
509.3306	0.0039
509.5288	0.0008
509.7269	0.0082
509.9251	0.0071
510.1232	0.0036
510.3213	0.0056
510.5193	0.0038
510.7174	0.0021
510.9154	0.0062
511.1135	-0.0017
511.3115	0.0035
511.5095	0.0025
511.7075	0.0077
511.9055	0.0059
512.1034	-0.0017
512.3014	0.0095
512.4993	0.0114
512.6972	0.0059
512.8951	0.0014
513.093	-0.0008
513.2908	0.0172
513.4887	0.005
513.6865	0.0112
513.8844	0.0075
514.0822	0.0111
514.2799	0.0007
514.4777	0.0006
514.6755	-0.0007
514.8732	-0.0029
515.0709	0.009
515.2687	0.0022
515.4664	0.0103
515.664	0.0158
515.8617	0.0147
516.0594	0.005
516.257	0.0021
516.4546	0.0097
516.6522	0.0057
516.8498	0.0101
517.0474	0.0087
517.2449	0.0054
517.4425	0.0103
517.64	0.0096
517.8375	0.0092
518.035	-0.0019
518.2325	-0.0056
518.43	0.0091
518.6274	0.0091
518.8249	-0.0023
519.0223	0.0077
519.2197	0.0014
519.4171	-0.0007
519.6145	0.0119
519.8118	-0.0108
520.0092	-0.0029
520.2065	0.0139
520.4038	0.0042
520.6011	0.0098
520.7984	0.0103
520.9956	0.0149
521.1929	0.008
521.3901	0.0043
521.5874	0.0016
521.7846	0.0056
521.9818	0.0072
522.1789	-0.0008
522.3761	0.0208
522.5732	0.0084
522.7704	-0.0029
522.9675	-0.01
523.1646	0.0005
523.3617	0.0092
523.5587	0.0068
523.7558	0.009
523.9528	0.0077
524.1498	0.0045
524.3468	0.013
524.5438	0.0115
524.7408	0.0034
524.9378	0.0129
525.1347	0.0128
525.3316	-0.0012
525.5285	-0.0016
525.7254	0.005
525.9223	0.0103
526.1192	0.015
526.316	0.0072
526.5129	0.0033
526.7097	0.0018
526.9065	0.0199
527.1033	0.0088
527.3	-0.0016
527.4968	0.0123
527.6935	0.0022
527.8903	0.003
528.087	0.0022
528.2837	0.0159
528.4804	-0.0001
528.677	0.0036
528.8737	-0.0017
529.0703	0.006
529.2669	0.0094
529.4635	0.0005
529.6601	0.0005
529.8567	-0.0065
530.0532	-0.0026
530.2498	0.0049
530.4463	-0.0012
530.6428	0.0005
530.8393	0.0083
531.0358	0.0091
531.2322	-0.0032
531.4287	0.0057
531.6251	0.0003
531.8215	0.0042
532.0179	0.0054
532.2143	0.0134
532.4107	0.0014
532.607	0.0015
532.8034	0.0083
532.9997	0.003
533.196	-0.0005
533.3923	0.0181
533.5886	0.0022
533.7848	-0.0026
533.9811	0.0088
534.1773	-0.0011
534.3735	0.012
534.5697	0.0009
534.7659	0.0117
534.9621	0.0062
535.1582	0.0082
535.3544	0.001
535.5505	0.0165
535.7466	0.007
535.9427	-0.0004
536.1387	-0.0002
536.3348	0.0005
536.5308	0.0053
536.7269	-0.0001
536.9229	0.0021
537.1189	0.0208
537.3148	-0.0048
537.5108	0.0083
537.7068	0.0036
537.9027	-0.0132
538.0986	0.007
538.2945	-0.0037
538.4904	0.0049
538.6863	0.0046
538.8821	0.0101
539.078	0.0063
539.2738	0.0049
539.4696	0.0044
539.6654	0.0111
539.8611	0.0098
540.0569	0.0002
540.2526	0.0108
540.4484	0.0113
540.6441	0.0031
540.8398	0.0088
541.0355	0.0089
541.2311	0.0094
541.4268	0.013
541.6224	0.0106
541.818	0.0088
542.0136	0.0061
542.2092	0.0119
542.4048	0.0127
542.6003	0.0102
542.7959	-0.0001
542.9914	0.0107
543.1869	0.0018
543.3824	0.0131
543.5779	0.0165
543.7734	0.0161
543.9688	0.0097
544.1642	0.0027
544.3596	0.0075
544.555	-0.0054
544.7504	0.0136
544.9458	0.0122
545.1411	0.0026
545.3365	0.0071
545.5318	0.007
545.7271	0.0078
545.9224	0.004
546.1177	0.0045
546.3129	0.0073
546.5081	-0.0035
546.7034	0.0028
546.8986	0.0054
547.0938	0.009
547.289	0.0094
547.4841	0.0091
547.6793	0.0014
547.8744	0.0109
548.0695	-0.003
548.2646	0.0072
548.4597	0.007
548.6548	0.0129
548.8498	0.0138
549.0448	0.0103
549.2399	0.0143
549.4349	0.0103
549.6298	0.0144
549.8248	0.0038
550.0198	0.0044
550.2147	0.005
550.4096	0.0016
550.6045	0.0017
550.7994	0.0153
550.9943	0.0161
551.1892	-0.0053
551.384	0.0023
551.5788	0.0023
551.7737	0.007
551.9685	0.0112
552.1632	-0.0001
552.358	-0.0015
552.5528	0.0195
552.7475	0.0078
552.9422	0.003
553.1369	0.0137
553.3316	0.0069
553.5263	0.0085
553.7209	-0.0005
553.9156	0.0067
554.1102	0.008
554.3048	0.0069
554.4994	0.0041
554.694	0.0036
554.8885	0.0095
555.0831	0.0107
555.2776	0.0112
555.4721	0.0004
555.6666	0.0007
555.8611	0.0057
556.0555	0.0036
556.25	0.0069
556.4444	-0.0048
556.6388	0.0102
556.8332	0.0073
557.0276	0.0033
557.222	0
557.4163	0.002
557.6107	0.0043
557.805	0.0074
557.9993	0.0027
558.1936	-0.0081
558.3879	0.0076
558.5821	-0.0108
558.7764	0.0025
558.9706	0.0032
559.1648	0.0091
559.359	0.0023
559.5532	-0.0005
559.7473	-0.0013
559.9415	-0.0061
560.1356	0.0182
560.3297	-0.0062
560.5238	0.0093
560.7179	0.0015
560.9119	0.0026
561.106	-0.005
561.3	0.0103
561.494	-0.004
561.688	0.0018
561.882	-0.008
562.076	0.0026
562.2699	0.0093
562.4639	0.0174
562.6578	0.0039
562.8517	0.0118
563.0456	0.0113
563.2395	-0.0003
563.4333	0.0002
563.6272	0.0106
563.821	0.0028
564.0148	0.0018
564.2086	0.0038
564.4024	0.0177
564.5961	0.0092
564.7899	0.0155
564.9836	0.0055
565.1773	0.0156
565.371	0.0053
565.5647	0.0011
565.7584	0.0192
565.952	0.0075
566.1456	0.0031
566.3393	0.0013
566.5329	0.0084
566.7264	-0.0028
566.92	0.0005
567.1136	0.0006
567.3071	-0.0041
567.5006	0.0065
567.6941	-0.0006
567.8876	-0.0006
568.0811	0.0214
568.2745	0.0005
568.468	0.0065
568.6614	0.008
568.8548	0.0072
569.0482	0.0058
569.2416	0.0036
569.4349	0.008
569.6283	0.0063
569.8216	0.0063
570.0149	-0.0001
570.2082	0.0102
570.4015	0.0057
570.5947	0.0033
570.788	0.0039
570.9812	0.008
571.1744	0.0072
571.3676	0.0011
571.5608	0.0078
571.754	0.0097
571.9471	0.0077
572.1402	0.0022
572.3333	0.0056
572.5264	0.007
572.7195	0.0032
572.9126	0.0026
573.1057	0.0033
573.2987	0.0092
573.4917	0.0037
573.6847	0.0043
573.8777	0.0064
574.0707	0.0038
574.2636	0.0052
574.4566	0.0011
574.6495	0.0058
574.8424	0.0036
575.0353	0.0056
575.2281	0.0068
575.421	0.0075
575.6138	-0.0005
575.8067	0.0071
575.9995	0.0021
576.1923	0.0067
576.385	0.0081
576.5778	0.0102
576.7706	0.0076
576.9633	0.0056
577.156	-0.0023
577.3487	0.0017
577.5414	0.0024
577.734	0.0042
577.9267	0.0094
578.1193	0.0054
578.3119	0.0032
578.5045	0.0079
578.6971	0.002
578.8897	0.0018
579.0822	0.0079
579.2747	0.0026
579.4673	0.0078
579.6598	0.0118
579.8522	0.0036
580.0447	0.0104
580.2372	0.0106
580.4296	0.0082
580.622	0.0044
580.8144	0.0037
581.0068	0.0033
581.1992	0.0058
581.3915	0
581.5839	0.0038
581.7762	0.0027
581.9685	0.0037
582.1608	0.0022
582.353	0.0034
582.5453	0.0035
582.7375	0.0052
582.9298	0.0013
583.122	0.0011
583.3142	0.0072
583.5063	0.0024
583.6985	0.0046
583.8906	0.0031
584.0827	0.0101
584.2749	0.0036
584.4669	0.0056
584.659	0.0078
584.8511	0.0094
585.0431	0.0086
585.2352	0.0058
585.4272	0.0045
585.6192	0.0056
585.8111	0.0034
586.0031	0.0017
586.195	0.0045
586.387	0.0021
586.5789	0.0083
586.7708	0.0038
586.9627	0.0052
587.1545	0.0023
587.3464	0.0036
587.5382	0.0044
587.73	0.0076
587.9218	0.0054
588.1136	0.0011
588.3053	0.0034
588.4971	0.0053
588.6888	0.0037
588.8805	-0.001
589.0722	0.0103
589.2639	0.0047
589.4556	0.0082
589.6472	0.0102
589.8389	0.0095
590.0305	0.0079
590.2221	0.0071
590.4137	-0
590.6052	0.0043
590.7968	0.0067
590.9883	0.0057
591.1798	0.009
591.3713	0.0015
591.5628	0.0149
591.7543	0.0009
591.9458	0.0057
592.1372	0.005
592.3286	0.0019
592.52	0.0048
592.7114	0.0036
592.9028	0.0086
593.0941	0.0049
593.2855	0.0033
593.4768	0.0151
593.6681	0.0098
593.8594	0.0096
594.0506	0.003
594.2419	0.0014
594.4331	0.0011
594.6244	-0.0021
594.8156	0.0025
595.0067	0.0001
595.1979	-0.0011
595.3891	0.0009
595.5802	0.0063
595.7713	0.0091
595.9624	0.0053
596.1535	0.0026
596.3446	-0.0042
596.5357	0.0086
596.7267	0.0055
596.9177	0.0033
597.1087	0.0003
597.2997	0.0079
597.4907	0.0074
597.6817	0.0074
597.8726	0.0064
598.0635	-0.0033
598.2544	0.0091
598.4453	0.0054
598.6362	0.0007
598.827	0.0001
599.0179	0.0032
599.2087	0.0025
599.3995	0.0034
599.5903	0.0099
599.7811	0.0099
599.9718	-0.003
600.1626	0.0027
600.3533	0.003
600.544	0.0038
600.7347	0.0106
600.9254	0.005
601.116	0.0032
601.3067	0.0026
601.4973	0.0099
601.6879	0.0034
601.8785	0.0063
602.0691	0.001
602.2596	0.0061
602.4502	0.0079
602.6407	0.0049
602.8312	0.0067
603.0217	0.0048
603.2122	0.0058
603.4027	0.0011
603.5931	0.0011
603.7835	0.0042
603.9739	0.0024
604.1643	0.0144
604.3547	0.0062
604.5451	0.0047
604.7354	-0.0017
604.9257	0.0036
605.116	-0.0005
605.3063	0.0047
605.4966	0.0097
605.6869	0.0081
605.8771	0.0034
606.0673	0.0094
606.2575	0.007
606.4477	0.0078
606.6379	0.0018
606.8281	0.0034
607.0182	0.0028
607.2083	0.0051
607.3985	0.0104
607.5885	0.0029
607.7786	0.0025
607.9687	0.0122
608.1587	0.0102
608.3488	0.0079
608.5388	-0.0046
608.7288	-0.0014
608.9187	0.0046
609.1087	0.0061
609.2986	0.0054
609.4886	0.0034
609.6785	0.0033
609.8684	0.0005
610.0582	-0.001
610.2481	-0.0004
610.4379	0.0024
610.6278	0.0053
610.8176	0.0057
611.0074	0.0051
611.1971	0.0126
611.3869	0.0052
611.5766	0.0005
611.7664	0.0064
611.9561	0.0122
612.1458	0.0052
612.3354	0.0044
612.5251	-0.0003
612.7147	0.0067
612.9044	0.0014
613.094	0.0076
613.2836	0.0027
613.4731	0.0003
613.6627	0.0064
613.8522	0.0071
614.0417	0.0123
614.2313	0.0024
614.4207	0.0125
614.6102	0.0095
614.7997	0.0113
614.9891	0.0025
615.1785	-0.0036
615.3679	0.011
615.5573	0.007
615.7467	-0.0001
615.9361	0.0033
616.1254	0.0109
616.3147	0.0147
616.504	0.0051
616.6933	0.0045
616.8826	-0.0005
617.0718	0.0109
617.2611	0.0047
617.4503	0.0066
617.6395	0.0048
617.8287	0.0072
618.0179	0.0064
618.207	0.01
618.3961	-0.0049
618.5853	0.0008
618.7744	0.0062
618.9634	0.0065
619.1525	0.0104
619.3416	0.0103
619.5306	0.0158
619.7196	0.0038
619.9086	-0.0023
620.0976	-0.0012
620.2866	0.008
620.4755	-0.0007
620.6645	0.0139
620.8534	0.0051
621.0423	0.0022
621.2312	-0.0026
621.42	0.0058
621.6089	0.0024
621.7977	0.0001
621.9865	0.0016
622.1753	-0.0098
622.3641	-0.0019
622.5529	-0.003
622.7416	0.0021
622.9303	0.0055
623.1191	0.0081
623.3078	0.005
623.4964	-0.0018
623.6851	0.0066
623.8737	0.0006
624.0624	-0.0123
624.251	-0.0023
624.4396	0.007
624.6282	0.0124
624.8167	0.0087
625.0053	0.0095
625.1938	0.0045
625.3823	0.0069
625.5708	-0.0039
625.7593	-0.0023
625.9477	0.0078
626.1362	-0.0034
626.3246	-0.003
626.513	0.0074
626.7014	0.0098
626.8898	0.0065
627.0781	0.004
627.2665	0.0032
627.4548	-0.0067
627.6431	0.009
627.8314	0.0183
628.0197	0.0139
628.2079	0.0069
628.3962	-0.0007
628.5844	0.0138
628.7726	0.0049
628.9608	0.0054
629.1489	0.0084
629.3371	-0.0004
629.5252	-0.0026
629.7134	-0.0041
629.9015	0.0031
630.0895	-0.0085
630.2776	0.011
630.4657	0.0129
630.6537	0.0081
630.8417	0.004
631.0297	0.0056
631.2177	-0.0051
631.4057	0.0045
631.5936	-0.0024
631.7815	0.0074
631.9695	0.0114
632.1574	0.0159
632.3452	0.0144
632.5331	0.0049
632.7209	0.0192
632.9088	0.0094
633.0966	0.031
633.2844	-0.0036
633.4722	0.0174
633.6599	0.0142
633.8477	0.01
634.0354	0.0138
634.2231	-0.017
634.4108	-0.0074
634.5985	0.0155
634.7861	0.0013
634.9738	0.0009
635.1614	0.0066
635.349	-0.0078
635.5366	0.0008
635.7242	0.0045
635.9117	0.0058
636.0993	0.0047
636.2868	0.0054
636.4743	-0.0035
636.6618	-0.0031
636.8492	0.0043
637.0367	0.0096
637.2241	0.0011
637.4115	0.0358
637.5989	0.0027
637.7863	0.0241
637.9737	0.0043
638.161	0.0004
638.3484	0.009
638.5357	-0.0068
638.723	0.0182
638.9103	-0.0024
639.0975	-0.006
639.2848	0.0209
639.472	0.0127
639.6592	-0.0114
639.8464	0.0077
640.0336	0.0016
640.2208	0.0127
640.4079	0.0012
640.595	-0.019
640.7821	0.0117
640.9692	-0.0022
641.1563	0.0051
641.3434	0.0133
641.5304	0.0124
641.7174	-0.0064
641.9044	0.0128
642.0914	0.016
642.2784	-0.0105
642.4653	0.0165
642.6523	0.0158
642.8392	-0.0126
643.0261	0.0145
643.213	0.0222
643.3999	0.0075
643.5867	0.0147
643.7735	-0.0038
643.9604	0.0028
644.1472	0.0186
644.3339	0.0005
644.5207	-0.0037
644.7075	0.0065
644.8942	0.0113
645.0809	0.0055
645.2676	-0.0024
645.4543	-0.0059
645.6409	0.0396
645.8276	0.0176
646.0142	0.0066
646.2008	0.0106
646.3874	-0.0128
646.574	0.0021
646.7605	0.0026
646.9471	0.0082
647.1336	-0.0095
647.3201	0.0102
647.5066	0.0167
647.6931	-0.0006
647.8795	0.0076
648.0659	0.0111
648.2524	0.019
648.4388	0.009
648.6252	0.0211
648.8115	0.0036
648.9979	0.0115
649.1842	0.0065
649.3705	0.0186
649.5568	-0.0052
649.7431	-0.0051
649.9294	-0.0038
650.1156	-0.0098
650.3018	0.0116
650.488	-0.0024
650.6742	0.0323
650.8604	0.018
651.0466	-0.0077
651.2327	-0.0154
651.4188	0.0028
651.6049	0.0298
651.791	-0.0026
651.9771	0.0305
652.1632	0.0138
652.3492	0.003
652.5352	0.0207
652.7212	0.0056
652.9072	0.0031
653.0932	0.0061
653.2791	0.0064
653.465	0.0232
653.651	-0.0067
653.8369	0.0099
654.0227	0.0065
654.2086	-0.0033
654.3944	0.0152
654.5803	0.004
654.7661	0.0028
654.9519	-0.002
655.1377	0
655.3234	0
655.5092	0
655.6949	0
655.8806	0
656.0663	0
656.2519	0
656.4376	0
656.6232	0
656.8088	0
656.9945	0
657.18	0
657.3656	0
657.5511	0
657.7367	0
657.9222	0
658.1077	0
658.2932	0
658.4786	0
658.6641	0
658.8495	0
659.0349	0
659.2203	0
659.4057	0
659.591	0.1542
659.7764	0.0149
659.9617	0.0046
660.147	0.0026
660.3323	-0.0019
660.5176	-0.0017
660.7028	-0.0053
660.888	0.0198
661.0733	0.0149
661.2585	-0.0077
661.4436	0.0192
661.6288	0.0179
661.8139	-0.0057
661.9991	0.0102
662.1842	0.003
662.3693	0.0265
662.5544	0.0064
662.7394	0.0169
662.9245	0.0258
663.1095	-0.0103
663.2945	-0.0187
663.4795	0.0092
663.6644	-0.0047
663.8494	0.0132
664.0343	0.0011
664.2193	0.0009
664.4042	0.0118
664.589	-0.0014
664.7739	0.003
664.9587	-0.0041
665.1436	-0.0082
665.3284	0.0169
665.5132	-0.0262
665.698	0.0147
665.8827	0.0258
666.0675	-0.0196
666.2522	-0.0061
666.4369	0.0057
666.6216	0.0045
666.8063	0.0001
666.9909	0.0024
667.1756	0.0098
667.3602	0.0044
667.5448	0.0106
667.7294	0.0004
667.9139	-0.0459
668.0985	0.0025
668.283	0.0018
668.4675	0.0235
668.652	0.0027
668.8365	0.0017
669.0209	-0.0025
669.2054	0.0084
669.3898	0.0001
669.5742	0.0433
669.7586	0.0245
669.943	0.0071
670.1273	0.0241
670.3117	0.021
670.496	-0.0025
670.6803	-0.0107
670.8646	-0.0271
671.0488	0.0228
671.2331	-0.017
671.4173	0.0071
671.6015	0.017
671.7857	0.0183
671.9699	0.0098
672.1541	0.0078
672.3382	0.0103
672.5223	0.0091
672.7064	0.0025
672.8905	0.0143
673.0746	-0.0082
673.2587	0.0233
673.4427	0.0014
673.6267	0.0123
673.8107	0.0144
673.9947	0.0393
674.1787	-0.0032
674.3626	-0.0123
674.5465	0.01
674.7304	-0.0086
674.9143	-0.0047
675.0982	0.0132
675.2821	0.0009
675.4659	-0.0027
675.6497	0.0045
675.8335	-0.0076
676.0173	-0.0042
676.2011	0.0103
676.3849	0.0103
676.5686	-0.0064
676.7523	0.0087
676.936	0.0013
677.1197	0.0129
677.3034	0.0257
677.487	0.0135
677.6706	0.0086
677.8542	0.0071
678.0378	0.0115
678.2214	-0.0118
678.405	0.0063
678.5885	0.0224
678.772	0.0204
678.9555	-0.0161
679.139	0.012
679.3225	0.0201
679.5059	0.0027
679.6894	0.0223
679.8728	0.0007
680.0562	0.0054
680.2395	-0.003
680.4229	-0.0078
680.6062	0.0029
680.7896	-0.0043
680.9729	0.0209
681.1562	-0.0064
681.3394	0.0085
681.5227	0.0069
681.7059	0.024
681.8891	0.0081
682.0723	0.024
682.2555	0.0089
682.4387	0.0112
682.6218	0.0103
682.805	0.0315
682.9881	0.012
683.1712	0.0138
683.3542	0.0104
683.5373	-0.0066
683.7203	-0.0096
683.9034	-0.0033
684.0864	-0.0059
684.2694	0.0036
684.4523	0.006
684.6353	-0.0089
684.8182	-0.0019
685.0011	0.0194
685.184	0.0104
685.3669	0.0244
685.5498	-0.0083
685.7326	-0.0022
685.9154	-0.0037
686.0982	0.0183
686.281	-0.006
686.4638	0.0081
686.6465	0.0036
686.8293	0.0059
687.012	0.0209
687.1947	-0.0002
687.3774	0.018
687.56	0.0092
687.7427	0.0067
687.9253	-0.0174
688.1079	-0.0115
688.2905	0.0186
688.4731	0.0266
688.6556	0.0012
688.8382	-0.0225
689.0207	0.0183
689.2032	0.0154
689.3857	0.007
689.5681	-0.0073
689.7506	0.0343
689.933	0.0007
690.1154	0.0183
690.2978	0.0051
690.4802	0.0279
690.6626	0.0007
690.8449	0.0335
691.0272	0.0034
691.2095	-0.0204
691.3918	0.0044
691.5741	-0.0117
691.7563	0.0088
691.9386	0.0048
692.1208	-0.0007
692.303	-0.0101
692.4852	0.0012
692.6673	0.0015
692.8495	-0.0074
693.0316	0.011
693.2137	0.0013
693.3958	-0.0007
693.5778	0.012
693.7599	-0.0022
693.9419	0.0022
694.1239	0.0211
694.3059	0.046
694.4879	-0.0052
694.6699	0.0001
694.8518	0.017
695.0337	0.0164
695.2157	0.0261
695.3975	0.0039
695.5794	-0.004
695.7613	0.0033
695.9431	-0.0058
696.1249	0.0057
696.3067	0.0067
696.4885	0.0185
696.6703	0.0035
696.852	0.0012
697.0337	0.0112
697.2154	0.011
697.3971	0.0079
697.5788	0.008
697.7605	-0.0052
697.9421	0.0214
698.1237	0.0177
698.3053	-0.0117
698.4869	0.0073
698.6685	0.0116
698.85	0.0012
699.0315	0.0076
699.213	0.0004
699.3945	-0.0159
699.576	0.0238
699.7575	0.0259
699.9389	0.006
700.1203	0.011
700.3017	-0.0088
700.4831	0.0333
700.6645	0.0357
700.8458	0.0029
701.0271	0.0253
701.2084	-0.0046
701.3897	-0.0014
701.571	-0.0365
701.7523	-0.0064
701.9335	0.0475
702.1147	0.0339
702.2959	-0.0002
702.4771	0.0043
702.6583	0.0007
702.8394	-0.0296
703.0205	0.0145
703.2016	0.0055
703.3827	-0.0022
703.5638	-0.0111
703.7449	0.0275
703.9259	0.0137
704.1069	-0.0044
704.2879	0.0226
704.4689	0.0126
704.6499	0.0112
704.8308	0.0114
705.0117	-0.0114
705.1927	0.0056
705.3735	0.0223
705.5544	0.0294
705.7353	-0.0028
705.9161	-0.0207
706.0969	0.0311
706.2777	0.0118
706.4585	0.0036
706.6393	0.0302
706.82	0.0042
707.0007	0.0003
707.1815	-0.0219
707.3621	0.0264
707.5428	0.0187
707.7235	0.0038
707.9041	0.0076
708.0847	0.0071
708.2653	0.0279
708.4459	0.0034
708.6265	-0.0282
708.807	-0.0034
708.9875	-0.0032
709.168	0.0026
709.3485	0.0039
709.529	0.0008
709.7095	-0.0135
709.8899	-0.0006
710.0703	0.0149
710.2507	-0.0172
710.4311	-0.0268
710.6115	0.0029
710.7918	0.0264
710.9721	0.005
711.1524	0.0113
711.3327	-0.0188
711.513	0.0009
711.6932	0.0095
711.8735	0.0025
712.0537	-0.0088
712.2339	0.0062
712.4141	0.0376
712.5942	-0.0143
712.7744	0.0245
712.9545	0.0277
713.1346	0.0265
713.3147	0.0176
713.4947	-0.0127
713.6748	0.011
713.8548	0.0089
714.0348	-0.0039
714.2148	0.0082
714.3948	0.0047
714.5748	0.0233
714.7547	0.0112
714.9346	0.0296
715.1145	0.0085
715.2944	-0.0163
715.4743	0.0439
715.6541	-0.0175
715.834	0.0453
716.0138	0.0226
716.1936	0.0028
716.3733	0.0042
716.5531	-0.0063
716.7328	0.0241
716.9126	0.0134
717.0923	-0.0009
717.2719	-0.0164
717.4516	0.0133
717.6312	-0.0066
717.8109	0.0319
717.9905	0.0223
718.1701	0.0181
718.3496	0.019
718.5292	-0.0077
718.7087	-0.0029
718.8882	0.0173
719.0677	0.0222
719.2472	-0.0127
719.4267	-0.0029
719.6061	-0.0138
719.7856	0.0057
719.965	-0.0107
720.1443	-0.0246
720.3237	0.0005
720.5031	0.0032
720.6824	-0.0014
720.8617	0.0001
721.041	0.0292
721.2203	-0.0356
721.3995	-0.0182
721.5788	0.0173
721.758	0.0132
721.9372	0.0136
722.1164	0.0066
722.2956	-0.0003
722.4747	0.0139
722.6538	-0.0129
722.8329	0.028
723.012	0.0273
723.1911	-0.0041
723.3702	0.0297
723.5492	-0.0126
723.7282	0.0053
723.9072	0.0392
724.0862	0.0364
724.2652	0.011
724.4441	-0.0064
724.623	-0.0033
724.8019	-0.0038
724.9808	0.0218
725.1597	0.009
725.3385	-0.0056
725.5174	0.0066
725.6962	0.0045
725.875	0.0352
726.0538	0.0071
726.2325	0.0282
726.4112	-0.016
726.59	0.0067
726.7687	0.011
726.9474	0.0079
727.126	0.0227
727.3047	-0.0065
727.4833	-0.0022
727.6619	-0.0056
727.8405	0.0021
728.0191	0.0235
728.1976	0.0134
728.3762	0.0022
728.5547	-0.016
728.7332	0.0184
728.9116	0.0167
729.0901	-0.0046
729.2686	0.0115
729.447	-0.0009
729.6254	0.0099
729.8038	0.0106
729.9821	0.0099
730.1605	0.0309
730.3388	-0.0051
730.5171	-0.0036
730.6954	-0.0226
730.8737	-0.0073
731.0519	-0.0017
731.2302	0.0029
731.4084	0.0009
731.5866	-0.0011
731.7648	-0.0002
731.9429	0.0382
732.1211	-0.0107
732.2992	-0.0108
732.4773	-0.0058
732.6554	-0.025
732.8335	0.014
733.0115	0.0189
733.1896	-0.0172
733.3676	0.0205
733.5456	-0.0013
733.7235	0.0007
733.9015	0.0079
734.0794	-0.0041
734.2574	-0.0056
734.4353	0.0056
734.6131	0.0094
734.791	0.0004
734.9689	-0.0112
735.1467	-0.01
735.3245	0.0187
735.5023	-0.0034
735.68	0.0128
735.8578	0.0162
736.0355	0.0089
736.2132	0.0067
736.3909	0.0084
736.5686	-0.0101
736.7463	-0.0044
736.9239	0.007
737.1015	0.0215
737.2791	-0.0078
737.4567	0.0412
737.6343	0.0004
737.8118	0.0111
737.9894	-0.013
738.1669	-0.0059
738.3444	0.0422
738.5218	-0.0048
738.6993	0.003
738.8767	0.0174
739.0541	0.0127
739.2315	0.0009
739.4089	0.0371
739.5863	0.0205
739.7636	0.041
739.9409	-0.0149
740.1182	0.013
740.2955	0.0111
740.4728	-0.014
740.65	-0.0283
740.8272	0.0031
741.0044	-0.026
741.1816	0.0101
741.3588	-0.0246
741.5359	0.0062
741.7131	0.0099
741.8902	0.0059
742.0673	-0.0197
742.2444	0.0402
742.4214	0.0104
742.5985	0.0119
742.7755	0.0241
742.9525	-0.0274
743.1295	-0.0333
743.3064	-0.0033
743.4834	0.0066
743.6603	0.0468
743.8372	-0.0295
744.0141	0.0289
744.191	0.0101
744.3678	-0.0241
744.5446	0.0092
744.7215	-0.0173
744.8982	0.0189
745.075	0.056
745.2518	-0.0111
745.4285	0.0136
745.6052	-0.0343
745.7819	0.0119
745.9586	0.0006
746.1353	-0.0164
746.3119	-0.0059
746.4885	0.0321
746.6651	0.0092
746.8417	0.006
747.0183	0.0264
747.1948	0.0014
747.3714	0.0242
747.5479	0.0342
747.7244	0.0024
747.9008	0.0086
748.0773	0.0418
748.2537	0.0205
748.4301	0.0559
748.6065	-0.018
748.7829	-0.0417
748.9593	-0.0037
749.1356	0.0046
749.3119	0.0029
749.4882	0.0159
749.6645	0.0019
749.8408	0.0209
750.017	0.0232
750.1933	-0.0243
750.3695	0.0113
750.5457	0.0062
750.7218	-0.0047
750.898	-0.0118
751.0741	0.0243
751.2502	0.0119
751.4263	0.0013
751.6024	-0.0015
751.7784	0.0082
751.9545	-0.005
752.1305	0.021
752.3065	0.0228
752.4825	0.0264
752.6584	0.014
752.8344	0.006
753.0103	0.0015
753.1862	0.0215
753.3621	-0.0054
753.5379	-0.0016
753.7138	0.0038
753.8896	0.0265
754.0654	-0.0079
754.2412	-0.0013
754.417	0.0328
754.5927	0.0235
754.7685	0.0129
754.9442	0.0068
755.1199	0.0056
755.2956	-0.0052
755.4712	-0.002
755.6469	0.0015
755.8225	0.0171
755.9981	-0.0063
756.1736	-0.0029
756.3492	-0.0096
756.5248	0.024
756.7003	-0.0041
756.8758	-0.0029
757.0513	0.0043
757.2267	0.014
757.4022	-0.0068
757.5776	-0.0013
757.753	0.0297
757.9284	0.0037
758.1038	0.0024
758.2791	0.0155
758.4545	-0.0093
758.6298	0.0038
758.8051	0.0169
758.9803	0.0082
759.1556	-0.0045
759.3308	-0.0024
759.506	-0.0065
759.6812	-0.0017
759.8564	0.0005
760.0316	0.0023
760.2067	0.0201
760.3819	0.0057
760.557	-0.0085
760.732	-0.0124
760.9071	0.0052
761.0821	-0.0036
761.2572	0.0031
761.4322	0.0225
761.6072	-0.0116
761.7821	-0.0225
761.9571	-0.0098
762.132	0.0192
762.3069	0.0102
762.4818	0.0248
762.6567	-0.0025
762.8316	0.0152
763.0064	0.0054
763.1812	0.0068
763.356	-0.0076
763.5308	0.028
763.7055	0.0023
763.8803	-0.0041
764.055	-0.002
764.2297	0.0038
764.4044	-0.0021
764.579	-0.0214
764.7537	0.0076
764.9283	0.0265
765.1029	-0.0012
765.2775	0.0016
765.4521	0.01
765.6266	0.0131
765.8011	0.0125
765.9756	-0.0237
766.1501	-0.0041
766.3246	0.0163
766.4991	-0.0122
766.6735	0.0491
766.8479	0.0181
767.0223	0.0191
767.1967	0.0122
767.371	0.0084
767.5454	0.0105
767.7197	0.0064
767.894	0.0233
768.0683	0.0302
768.2425	0.0104
768.4168	0.0021
768.591	0.0122
768.7652	-0.0301
768.9394	-0.0439
769.1135	-0.0316
769.2877	0.0189
769.4618	0.0401
769.6359	0.0001
769.81	0.0063
769.984	-0.0121
770.1581	0.0057
770.3321	0.0241
770.5061	-0.0123
770.6801	0.0021
770.8541	-0.0101
771.028	0.0393
771.202	0.0176
771.3759	0.0103
771.5498	0.012
771.7236	0.0046
771.8975	0.0447
772.0713	-0.0008
772.2451	-0.0133
772.4189	0.0205
772.5927	-0.0476
772.7665	-0.0093
772.9402	0.015
773.1139	-0.0026
773.2876	-0.025
773.4613	0.0081
773.635	0.0007
773.8086	0.0433
773.9822	0.0306
774.1558	0.0355
774.3294	-0.0119
774.503	-0.0155
774.6765	0.0056
774.8501	-0.0005
775.0236	0.0315
775.1971	-0.0279
775.3705	-0.0196
775.544	-0.0627
775.7174	0.0477
775.8908	0.0002
776.0642	0.0563
776.2376	0.0477
776.4109	0.0124
776.5843	-0.0311
776.7576	-0.0221
776.9309	-0.0105
777.1041	-0.0671
777.2774	-0.0096
777.4506	-0.0049
777.6238	-0.0431
777.797	-0.0005
777.9702	-0.0063
778.1434	0.0172
778.3165	-0.0308
778.4896	-0.0274
778.6627	0.0244
778.8358	-0.0146
779.0089	0.0123
779.1819	0.0377
779.3549	0.0252
779.5279	-0.0306
779.7009	0.0345
779.8739	0.0785
780.0468	-0.0117
780.2197	-0.0025
780.3926	-0.032
780.5655	0.0292
780.7384	-0.0155
780.9112	0.0208
781.0841	-0.0003
781.2569	0.0115
781.4297	0.0302
781.6024	0.0042
781.7752	0.075
781.9479	0.0256
782.1206	-0.0046
782.2933	-0.0027
782.466	0.022
782.6386	-0.0243
782.8113	0.0066
782.9839	-0.0305
783.1565	-0.0118
783.329	0.0077
783.5016	-0.0139
783.6741	-0.0137
783.8466	0.0482
784.0191	-0.0276
784.1916	-0.0199
784.3641	-0.0376
784.5365	0.0086
784.7089	-0.0129
784.8813	0.0879
785.0537	-0.0039
785.2261	0.0024
785.3984	0.0114
785.5707	-0.0277
785.743	0.0212
785.9153	-0.0129
786.0876	-0.0412
786.2598	-0.0252
786.432	0.013
786.6042	0.0551
786.7764	-0.0155
786.9486	-0.0135
787.1207	0.0526
787.2928	0.052
787.4649	-0.0145
787.637	0.03
787.8091	0.0126
787.9811	0.013
788.1532	-0.0134
788.3252	-0.0108
788.4972	-0.0064
788.6691	0.0406
788.8411	-0.0028
789.013	0.0161
789.1849	-0.0206
789.3568	-0.0022
789.5287	0.034
789.7005	-0.0429
789.8723	-0.0145
790.0442	0.0185
790.2159	-0.0287
790.3877	0.0249
790.5595	0.0013
790.7312	0.0281
790.9029	-0.0256
791.0746	-0.0335
791.2463	-0.0101
791.4179	0.0297
791.5896	0.048
791.7612	0.0862
791.9328	-0.0059
792.1044	0.0561
792.2759	-0.0433
792.4474	-0.0043
792.619	-0.002
792.7905	0.006
792.9619	0.0554
793.1334	0.0461
793.3048	0.0859
793.4762	-0.0098
793.6476	-0.0221
793.819	-0.0104
793.9904	-0.0286
794.1617	0.0008
794.333	-0.005
794.5043	0.0335
794.6756	0.0054
794.8469	0.0616
795.0181	-0.0183
795.1893	0.0652
795.3605	0.0082
795.5317	-0.0238
795.7029	-0.0147
795.874	0.0135
796.0452	0.0054
796.2163	0.0329
796.3873	0.0553
796.5584	0.0069
796.7294	-0.034
796.9005	0.106
797.0715	0.0298
797.2425	0.0003
797.4134	0.0496
797.5844	-0.0058
797.7553	-0.0207
797.9262	0.0828
798.0971	-0.0069
798.2679	-0.0105
798.4388	0.0048
798.6096	0.0213
798.7804	-0.0188
798.9512	0.047
799.122	-0.0378
799.2927	0.0592
799.4635	-0.0988
799.6342	-0.0447
799.8049	-0.0071
799.9755	-0.0171
800.1462	-0.0235
800.3168	0.0261
800.4874	-0.0603
800.658	0.0545
800.8286	-0.0118
800.9991	0.0035
801.1696	-0.0154
801.3402	-0.0816
801.5106	-0.0711
801.6811	-0.0354
801.8516	0.0659
802.022	-0.0391
802.1924	0.0537
802.3628	0.0871
802.5332	0.0587
802.7035	0.0917
802.8739	-0.0185
803.0442	0.0023
803.2145	0.0434
803.3847	0.0359
803.555	0.0513
803.7252	-0.0337
803.8954	-0.0507
804.0656	0.0049
804.2358	0.0802
804.4059	0.0672
804.5761	0.0592
804.7462	0.0163
804.9163	0.0051
805.0864	0.0092
805.2564	0.0592
805.4264	-0.0189
805.5965	0.0623
805.7665	0.0175
805.9364	-0.0104
806.1064	0.0194
806.2763	0.0265
806.4462	0.0329
806.6161	0.0368
806.786	0.0166
806.9559	0.0171
807.1257	0.0064
807.2955	0.0282
807.4653	-0.0172
807.6351	0.0508
807.8048	-0.0104
807.9746	-0.0215
808.1443	-0.0117
808.314	0.0939
808.4837	0.0931
808.6533	-0.0195
808.8229	-0.0106
808.9926	0.0114
809.1622	0.0158
809.3317	-0.0809
809.5013	-0.0032
809.6708	0.0629
809.8403	0.002
810.0098	0.0186
810.1793	0.1344
810.3488	-0.0606
810.5182	0.0792
810.6876	0.0063
810.857	-0.0168
811.0264	-0.0239
811.1958	0.1084
811.3651	-0.042
811.5344	0.0301
811.7037	0.0473
811.873	0.0426
812.0422	-0.0276
812.2115	0.032
812.3807	-0.156
812.5499	-0.053
812.7191	-0.1183
812.8882	0.0334
813.0574	-0.0247
813.2265	-0.0966
813.3956	0.0352
813.5646	-0.0322
813.7337	-0.0102
813.9027	-0.1144
814.0718	0.0823
814.2407	0.0425
814.4097	0.0756
814.5787	0.1009
814.7476	0.0289
814.9165	0.064
815.0854	0.0218
815.2543	0.045
815.4232	0.0289
815.592	0.1459
815.7608	-0.0522
815.9296	0.0417
816.0984	-0.013
816.2671	-0.3171
816.4359	0.1295
816.6046	0.0595
816.7733	-0.0193
816.942	-0.0278
817.1106	0.0701
817.2793	-0.1085
817.4479	0.0101
817.6165	0.0437
817.785	0.1018
817.9536	-0.0019
818.1221	0.0089
818.2906	-0.0645
818.4591	0.0945
818.6276	0.0181
818.7961	0.0586
818.9645	0.1409
819.1329	-0.0687
819.3013	-0.1158
819.4697	-0.1972
819.638	-0.0122
819.8064	0.0457
819.9747	0.1478
820.143	-0.072
820.3113	0.1859
820.4795	0.0062
820.6477	0.0267
820.816	0.0689
820.9842	0.0455
821.1523	0.0029
821.3205	0.0804
821.4886	-0.0867
821.6567	-0.1259
821.8248	0.1737
821.9929	-0.0887
822.1609	0.0322
822.329	-0.0022
822.497	-0.0634
822.665	-0.0088
822.833	0.0791
823.0009	-0.0908
823.1688	0.0053
823.3367	-0.2424
823.5046	0.1084
823.6725	0.0074
823.8404	0.0917
824.0082	0.0263
824.176	0.0781
824.3438	0.0248
824.5116	-0.1166
824.6793	0.0317
824.847	0.038
825.0147	0.1131
825.1824	0.029
825.3501	0.0435
825.5177	-0.0196
825.6854	-0.081
825.853	0.1117
826.0206	0.1207
826.1881	0.035
826.3557	0.1423
826.5232	0.0797
826.6907	-0.0749
826.8582	0.0656
827.0257	-0.0771
827.1931	-0.0363
827.3605	0.0126
827.528	-0.169
827.6953	-0.0559
827.8627	-0.0631
828.03	-0.0093
828.1974	0.0698
828.3647	-0.0431
828.532	0.0307
828.6992	0.1556
828.8665	-0.3189
829.0337	-0.0282
829.2009	-0.0509
829.3681	0.0271
829.5352	-0.2385
829.7024	0.127
829.8695	0.062
830.0366	0.1719
830.2037	0.1001
830.3707	0.0748
830.5378	0.1446
830.7048	-0.0171
830.8718	0.1255
831.0388	-0.004
831.2057	0.0435
831.3727	-0.3166
831.5396	0.2015
831.7065	-0.8785
831.8734	-0.0287
832.0402	0.136
832.2071	-0
832.3739	0.0393
832.5407	-2.0934
832.7075	-0.5795
832.8742	0.0903
833.041	0.2722
833.2077	0.2104
833.3744	0.5048
833.541	0.035
833.7077	-0.1275
833.8743	0.3049
834.0409	-0.0159
834.2075	0.1051
834.3741	-0.0323
834.5407	0.0948
834.7072	0.0132
834.8737	0.1108
835.0402	0.7477
835.2067	-0.0365
835.3731	-0.1741
835.5395	-0.0447
835.706	0.0026
835.8723	0.0862
836.0387	0.7176
836.2051	0.1455
836.3714	-0.0118
836.5377	0.0267
836.704	0.0544
836.8703	-0.3201
837.0365	-0.5406
837.2027	-0.0577
837.3689	0.1308
837.5351	0.0695
837.7013	0.0911
837.8674	-0.2008
838.0335	-0.024
838.1997	-0.3662
838.3657	-0
838.5318	-0.3039
838.6978	1.1175
838.8639	-0.5962
839.0299	0.1282
839.1958	-0.0973
839.3618	-0
839.5277	-0.105
839.6937	-0.147
839.8596	0.2047
840.0254	-0.068
840.1913	-0.3971
840.3571	-0.2918
840.523	-0
840.6888	0.1645
840.8545	-0.2398
841.0203	0.0404
841.186	-0.0794
841.3517	0.0215
841.5174	0.012
841.6831	-0.036
841.8488	0.0373
842.0144	0.0544
842.18	0.5803
842.3456	-0.5845
842.5112	-0
842.6767	0.0239
842.8422	-0.1191
843.0077	0.351
843.1732	0.0272
843.3387	-0.0818
843.5042	-0
843.6696	0.8193
843.835	-0.2119
844.0004	0.1925
844.1657	-0
844.3311	-0.3431
844.4964	-0.8396
844.6617	0.2522
844.827	0.5087
844.9923	0.3255
845.1575	-0.424
845.3227	0.6071
845.4879	-0.2936
845.6531	-0
845.8183	-0.1995
845.9834	-0
846.1485	-0.0525
846.3136	0.4186
846.4787	-0.2362
846.6438	0.1093
846.8088	-0.0171
846.9738	0.5362
847.1388	0.4417
847.3038	0.7752
847.4687	-0
847.6337	-0.1317
847.7986	0.0332
847.9635	0.1123
848.1284	-0
848.2932	-0.1083
848.458	-0
848.6228	-0
848.7876	-0
848.9524	-0.235
849.1172	-1.7014
849.2819	-0
849.4466	0.6159
849.6113	-0.1593
849.7759	-0
849.9406	-0.1554
850.1052	-0.9254
850.2698	-0.1332
850.4344	-0.6021
850.599	0.1912
850.7635	-0.1111
850.928	0.1768
851.0925	0.3967
851.257	0.0311
851.4215	0.5154
851.5859	-0.1191
851.7503	-0
851.9147	-0
852.0791	-0.1672
852.2434	0.1766
852.4078	-0
852.5721	0.4644
852.7364	0.1666
852.9007	-0.1264
853.0649	-0
853.2291	-0.0069
853.3934	-0
853.5575	0.1227
853.7217	0.6035
853.8859	-0.1317
854.05	-0.3712
854.2141	0.684
854.3782	-0.2187
854.5423	0.1907
854.7063	0.0519
854.8703	-0.2235
855.0343	-0.1787
855.1983	-0.0274
855.3623	-0.0305
855.5262	-0.2267
855.6901	0.2385
855.854	0.2505
856.0179	-0.2061
856.1818	-0
856.3456	0.6715
856.5094	1.4108
856.6732	0.1799
856.837	-0.7442
857.0008	0.2067
857.1645	-0.1286
857.3282	-0.7356
857.4919	0.1728
857.6556	-0.4391
857.8192	0.0879
857.9828	0.0904
858.1465	-0.046
858.31	0.0932
858.4736	-0
858.6372	-0.0391
858.8007	0.0429
858.9642	0.1766
859.1277	0.5394
859.2911	-0.4825
859.4546	-0
859.618	0.4901
859.7814	0.8622
859.9448	-0.1483
860.1081	-0
860.2715	-1.6203
860.4348	-0.0575
860.5981	0.7609
860.7614	-0.2225
860.9246	-0.0342
861.0879	-0
861.2511	-0
861.4143	-0.8207
861.5774	-0.3364
861.7406	-0
861.9037	-0
862.0668	-0.9336
862.2299	0.365
862.393	-0
862.556	-0
862.7191	-0.413
862.8821	0.055
863.0451	0.4839
863.208	-0
863.371	-0.6384
863.5339	0.3809
863.6968	0.1123
863.8597	-0.0706
864.0225	-0
864.1854	-0.0062
864.3482	-1.0401
864.511	0.848
864.6737	-0
864.8365	-0.2041
864.9992	-0
865.1619	-0.211
865.3246	-1.1335
865.4873	-0
865.65	-0.0589
865.8126	-0
865.9752	0.2343
866.1378	-0
866.3004	-0.3023
866.4629	-1.7698
866.6254	-0.6632
866.7879	-0.2468
866.9504	-0
867.1129	-0.4628
867.2753	-0.1295
867.4377	-0.3656
867.6001	-0.6271
867.7625	0.177
867.9249	0.1149
868.0872	-0
868.2495	-0
868.4118	-0
868.5741	-0.47
868.7363	-0
868.8986	-0.2698
869.0608	-0.2836
869.223	0.0786
869.3851	-0
869.5473	0.0476
869.7094	-0
869.8715	-0.9131
870.0336	-0.0303
870.1957	-0.2197
870.3577	0.2926
870.5197	0.1045
870.6817	-0.8474
870.8437	-0.1697
871.0057	0.5722
871.1676	0.1064
871.3295	-0
871.4914	-1.2648
871.6533	-0
871.8151	0.4971
871.977	-0.3676
872.1388	-0.4887
872.3006	-0.5845
872.4623	-0
872.6241	-0
872.7858	-0.1412
872.9475	-0
873.1092	-0.0999
873.2709	0.2111
873.4325	-1.8608
873.5941	0.9098
873.7557	0.6057
873.9173	-0.1757
874.0789	0.7535
874.2404	-0
874.4019	-0.0489
874.5634	-0
874.7249	1.9482
874.8863	-0
875.0478	-0.2603
875.2092	-0
875.3706	0.4807
875.5319	-0
875.6933	0.2724
875.8546	-0.3321
876.0159	-0.042
876.1772	-0.1434
876.3385	-0
876.4997	0.1704
876.6609	0.3182
876.8221	0.212
876.9833	-0
877.1445	0.1844
877.3056	0.8893
877.4667	-0.8924
877.6278	0.0442
877.7889	0.4498
877.9499	-0
878.111	-0.3719
878.272	-0
878.433	-0.2838
878.5939	-0
878.7549	-0.0571
878.9158	-0.0246
879.0767	0.7005
879.2376	-0.0566
879.3984	-0
879.5593	0.2095
879.7201	-1.4472
879.8809	-0
880.0417	-0.1576
880.2024	0.0612
880.3632	-0.573
880.5239	-0
880.6846	-0.2794
880.8452	0.1146
881.0059	-0
881.1665	-0.3021
881.3271	0.3998
881.4877	0.0687
881.6483	-1.413
881.8088	-0
881.9693	-0
882.1298	-0
882.2903	-0
