Data from D4ACN5uM440nmA_Absorbance_13-50-25-912.txt Node
Date: Fri Feb 21 13:50:25 GMT 2025
User: LASERRRRR
Spectrometer: FLMT03099
Trigger mode: 0
Integration Time (sec): 1.500000E-2
Scans to average: 1
Electric dark correction enabled: true
Nonlinearity correction enabled: false
Boxcar width: 0
XAxis mode: Wavelengths
Number of Pixels in Spectrum: 3648
>>>>>Begin Spectral Data<<<<<
179.3399	-0
179.5586	-0
179.7771	-0
179.9957	-0.1193
180.2143	-1.2002
180.4329	-0.0206
180.6514	-0
180.8699	1.2569
181.0885	0.3968
181.307	0.7643
181.5255	0.3017
181.744	-0
181.9625	0.9143
182.181	-0
182.3994	-0.5225
182.6179	0.1446
182.8363	-0
183.0547	-0
183.2732	0.3513
183.4916	0.18
183.71	0.3767
183.9284	0.3054
184.1467	1.0181
184.3651	0.1602
184.5835	0.1403
184.8018	0.4691
185.0201	0.2496
185.2385	0.32
185.4568	0.2609
185.6751	0.1383
185.8934	0.3716
186.1117	-0.16
186.3299	0.0977
186.5482	0.2349
186.7664	0.0186
186.9847	0.1371
187.2029	0.3652
187.4211	0.1521
187.6393	0.2256
187.8575	0.3655
188.0757	1.2818
188.2939	0.1259
188.512	0.3379
188.7302	0.1979
188.9483	0.472
189.1665	0.5781
189.3846	0.7475
189.6027	0.4143
189.8208	0.2378
190.0389	0.1809
190.257	0.2066
190.475	0.0334
190.6931	0.1483
190.9111	0.3502
191.1292	0.2012
191.3472	0.1383
191.5652	0.1668
191.7832	0.345
192.0012	0.1983
192.2192	0.2406
192.4371	0.1116
192.6551	0.3709
192.873	0.2134
193.091	0.1941
193.3089	0.2424
193.5268	0.3311
193.7447	0.1238
193.9626	0.2106
194.1805	0.2432
194.3984	0.3507
194.6162	0.3197
194.8341	0.3011
195.0519	0.2872
195.2697	0.3392
195.4875	0.3331
195.7054	0.2883
195.9231	0.2779
196.1409	0.3488
196.3587	0.3035
196.5765	0.3525
196.7942	0.4058
197.012	0.346
197.2297	0.4002
197.4474	0.4268
197.6651	0.3582
197.8828	0.3223
198.1005	0.4588
198.3182	0.3716
198.5358	0.4095
198.7535	0.4006
198.9711	0.4726
199.1888	0.3974
199.4064	0.4429
199.624	0.3939
199.8416	0.3699
200.0592	0.4214
200.2767	0.4305
200.4943	0.4015
200.7119	0.4109
200.9294	0.4794
201.1469	0.4102
201.3645	0.4484
201.582	0.3862
201.7995	0.4072
202.017	0.3937
202.2344	0.4215
202.4519	0.4005
202.6694	0.395
202.8868	0.4203
203.1042	0.4093
203.3217	0.413
203.5391	0.4381
203.7565	0.3898
203.9739	0.3657
204.1913	0.3639
204.4086	0.3613
204.626	0.3962
204.8433	0.3888
205.0607	0.4017
205.278	0.3758
205.4953	0.3375
205.7126	0.3516
205.9299	0.333
206.1472	0.3302
206.3644	0.347
206.5817	0.3153
206.7989	0.357
207.0162	0.3482
207.2334	0.3272
207.4506	0.3201
207.6678	0.3102
207.885	0.3179
208.1022	0.3116
208.3194	0.2855
208.5365	0.333
208.7537	0.3096
208.9708	0.3147
209.1879	0.3064
209.405	0.28
209.6222	0.2941
209.8392	0.3012
210.0563	0.3085
210.2734	0.284
210.4905	0.2819
210.7075	0.2738
210.9245	0.2574
211.1416	0.2896
211.3586	0.2663
211.5756	0.2459
211.7926	0.2665
212.0096	0.275
212.2265	0.2765
212.4435	0.2712
212.6604	0.2607
212.8774	0.2469
213.0943	0.2753
213.3112	0.2616
213.5281	0.2586
213.745	0.2387
213.9619	0.2442
214.1788	0.2526
214.3956	0.2454
214.6125	0.2471
214.8293	0.2638
215.0461	0.2612
215.2629	0.2562
215.4798	0.2593
215.6965	0.2533
215.9133	0.242
216.1301	0.2667
216.3469	0.2454
216.5636	0.2517
216.7803	0.2463
216.9971	0.2562
217.2138	0.2638
217.4305	0.2577
217.6472	0.2612
217.8639	0.2461
218.0805	0.249
218.2972	0.2383
218.5138	0.2679
218.7305	0.2528
218.9471	0.2426
219.1637	0.2707
219.3803	0.2557
219.5969	0.2492
219.8135	0.2621
220.0301	0.2579
220.2466	0.2643
220.4632	0.2665
220.6797	0.2547
220.8962	0.267
221.1127	0.2708
221.3292	0.2659
221.5457	0.2826
221.7622	0.2614
221.9787	0.2849
222.1951	0.2766
222.4116	0.2812
222.628	0.279
222.8444	0.267
223.0608	0.278
223.2772	0.2867
223.4936	0.281
223.71	0.2858
223.9264	0.2918
224.1427	0.2791
224.3591	0.2897
224.5754	0.2904
224.7917	0.2897
225.008	0.3074
225.2243	0.3069
225.4406	0.2877
225.6569	0.2976
225.8732	0.3146
226.0894	0.2997
226.3057	0.3174
226.5219	0.3186
226.7381	0.314
226.9543	0.3119
227.1705	0.3137
227.3867	0.3196
227.6029	0.3368
227.8191	0.3337
228.0352	0.3359
228.2513	0.3464
228.4675	0.3495
228.6836	0.3406
228.8997	0.3483
229.1158	0.3574
229.3319	0.3512
229.548	0.3527
229.764	0.3419
229.9801	0.372
230.1961	0.3596
230.4121	0.3769
230.6282	0.3773
230.8442	0.3804
231.0602	0.3802
231.2761	0.3939
231.4921	0.3879
231.7081	0.3998
231.924	0.3971
232.14	0.3997
232.3559	0.4095
232.5718	0.4176
232.7877	0.4191
233.0036	0.4105
233.2195	0.4051
233.4353	0.4209
233.6512	0.42
233.867	0.4245
234.0829	0.4263
234.2987	0.4243
234.5145	0.429
234.7303	0.442
234.9461	0.4394
235.1619	0.4334
235.3776	0.4416
235.5934	0.4336
235.8091	0.4345
236.0249	0.4414
236.2406	0.4399
236.4563	0.4441
236.672	0.4446
236.8877	0.4463
237.1034	0.453
237.319	0.447
237.5347	0.4561
237.7503	0.4502
237.966	0.4553
238.1816	0.4523
238.3972	0.4604
238.6128	0.4676
238.8284	0.469
239.0439	0.4646
239.2595	0.4677
239.475	0.4596
239.6906	0.4664
239.9061	0.4702
240.1216	0.4611
240.3371	0.4629
240.5526	0.469
240.7681	0.4536
240.9836	0.4633
241.199	0.457
241.4145	0.4484
241.6299	0.4544
241.8453	0.4472
242.0607	0.4435
242.2761	0.4354
242.4915	0.4338
242.7069	0.4162
242.9223	0.4295
243.1376	0.4259
243.353	0.4072
243.5683	0.405
243.7836	0.3971
243.9989	0.3822
244.2142	0.3803
244.4295	0.3649
244.6448	0.3703
244.86	0.3661
245.0753	0.3576
245.2905	0.3385
245.5057	0.3432
245.721	0.342
245.9362	0.3283
246.1514	0.3163
246.3665	0.3103
246.5817	0.302
246.7969	0.2979
247.012	0.2895
247.2271	0.2927
247.4423	0.2803
247.6574	0.2832
247.8725	0.2707
248.0876	0.2676
248.3026	0.2704
248.5177	0.2625
248.7328	0.2541
248.9478	0.2584
249.1628	0.2478
249.3779	0.2448
249.5929	0.2392
249.8079	0.2412
250.0228	0.2298
250.2378	0.232
250.4528	0.2355
250.6677	0.2259
250.8827	0.2211
251.0976	0.2182
251.3125	0.2167
251.5274	0.2092
251.7423	0.2086
251.9572	0.2104
252.172	0.2061
252.3869	0.2102
252.6017	0.2054
252.8166	0.2047
253.0314	0.1965
253.2462	0.1965
253.461	0.197
253.6758	0.1983
253.8906	0.1914
254.1053	0.1907
254.3201	0.1963
254.5348	0.1878
254.7496	0.1887
254.9643	0.1926
255.179	0.1848
255.3937	0.1857
255.6083	0.1898
255.823	0.1876
256.0377	0.1864
256.2523	0.1822
256.467	0.1858
256.6816	0.1811
256.8962	0.1829
257.1108	0.181
257.3254	0.1809
257.54	0.1849
257.7545	0.1883
257.9691	0.1798
258.1836	0.1781
258.3981	0.1808
258.6127	0.1769
258.8272	0.1835
259.0417	0.1779
259.2561	0.1788
259.4706	0.1747
259.6851	0.1795
259.8995	0.1746
260.114	0.1787
260.3284	0.1731
260.5428	0.1765
260.7572	0.1766
260.9716	0.182
261.186	0.1815
261.4003	0.1783
261.6147	0.1759
261.829	0.1814
262.0433	0.177
262.2577	0.1767
262.472	0.1774
262.6863	0.1809
262.9005	0.1765
263.1148	0.178
263.3291	0.1772
263.5433	0.1831
263.7576	0.1786
263.9718	0.1853
264.186	0.1827
264.4002	0.1778
264.6144	0.1866
264.8286	0.1864
265.0427	0.185
265.2569	0.1824
265.471	0.1839
265.6851	0.1883
265.8993	0.1819
266.1134	0.1854
266.3275	0.1863
266.5415	0.1833
266.7556	0.1865
266.9697	0.1871
267.1837	0.1801
267.3978	0.1886
267.6118	0.1824
267.8258	0.1836
268.0398	0.1865
268.2538	0.1867
268.4677	0.1796
268.6817	0.18
268.8957	0.1785
269.1096	0.1789
269.3235	0.1816
269.5374	0.1838
269.7514	0.1851
269.9652	0.1786
270.1791	0.1761
270.393	0.1826
270.6068	0.1869
270.8207	0.1776
271.0345	0.1736
271.2483	0.1701
271.4622	0.1793
271.676	0.1758
271.8897	0.1702
272.1035	0.1826
272.3173	0.18
272.531	0.1781
272.7448	0.1707
272.9585	0.1731
273.1722	0.1782
273.3859	0.1806
273.5996	0.1802
273.8133	0.1779
274.0269	0.1779
274.2406	0.181
274.4542	0.1806
274.6679	0.1754
274.8815	0.1874
275.0951	0.1899
275.3087	0.1871
275.5223	0.1843
275.7358	0.1821
275.9494	0.1853
276.1629	0.19
276.3765	0.1841
276.59	0.1838
276.8035	0.183
277.017	0.1893
277.2305	0.1848
277.444	0.1917
277.6574	0.1881
277.8709	0.1969
278.0843	0.1881
278.2978	0.1899
278.5112	0.19
278.7246	0.1847
278.938	0.1874
279.1513	0.1944
279.3647	0.1881
279.5781	0.1914
279.7914	0.1878
280.0047	0.1892
280.2181	0.1879
280.4314	0.1894
280.6447	0.1893
280.8579	0.1814
281.0712	0.1938
281.2845	0.1878
281.4977	0.1839
281.711	0.1835
281.9242	0.184
282.1374	0.1853
282.3506	0.1847
282.5638	0.1825
282.7769	0.1795
282.9901	0.1881
283.2033	0.1811
283.4164	0.1856
283.6295	0.1864
283.8426	0.1854
284.0557	0.1883
284.2688	0.182
284.4819	0.1781
284.695	0.1866
284.908	0.1883
285.1211	0.1868
285.3341	0.1855
285.5471	0.1894
285.7601	0.1884
285.9731	0.1855
286.1861	0.1905
286.3991	0.1905
286.612	0.1908
286.825	0.188
287.0379	0.185
287.2508	0.1909
287.4637	0.1866
287.6766	0.1834
287.8895	0.1882
288.1024	0.1846
288.3152	0.1861
288.5281	0.1871
288.7409	0.1908
288.9538	0.1943
289.1666	0.1909
289.3794	0.1885
289.5922	0.1888
289.8049	0.1857
290.0177	0.1914
290.2304	0.1899
290.4432	0.1915
290.6559	0.1868
290.8686	0.1912
291.0813	0.1888
291.294	0.1865
291.5067	0.1865
291.7194	0.1871
291.932	0.1864
292.1447	0.1904
292.3573	0.184
292.5699	0.1893
292.7825	0.1848
292.9951	0.1894
293.2077	0.1874
293.4203	0.1958
293.6328	0.1897
293.8454	0.1874
294.0579	0.1931
294.2704	0.1946
294.4829	0.1904
294.6954	0.1917
294.9079	0.19
295.1204	0.1845
295.3328	0.1946
295.5453	0.1885
295.7577	0.1904
295.9701	0.1914
296.1825	0.1904
296.3949	0.1855
296.6073	0.1874
296.8197	0.1892
297.0321	0.1945
297.2444	0.1898
297.4567	0.188
297.6691	0.1881
297.8814	0.1861
298.0937	0.1942
298.306	0.1836
298.5182	0.1938
298.7305	0.1888
298.9428	0.1913
299.155	0.1822
299.3672	0.1859
299.5794	0.1937
299.7916	0.1892
300.0038	0.1925
300.216	0.1896
300.4282	0.1861
300.6403	0.1963
300.8525	0.1831
301.0646	0.192
301.2767	0.1908
301.4888	0.1876
301.7009	0.1892
301.913	0.1924
302.125	0.1864
302.3371	0.1899
302.5491	0.1885
302.7612	0.1967
302.9732	0.1948
303.1852	0.1939
303.3972	0.1893
303.6092	0.194
303.8211	0.187
304.0331	0.1843
304.245	0.1913
304.457	0.1855
304.6689	0.1859
304.8808	0.19
305.0927	0.1828
305.3046	0.1836
305.5164	0.1824
305.7283	0.1881
305.9401	0.1781
306.152	0.1788
306.3638	0.1811
306.5756	0.1846
306.7874	0.1762
306.9992	0.1731
307.2109	0.1707
307.4227	0.1705
307.6344	0.1768
307.8462	0.1666
308.0579	0.1721
308.2696	0.1675
308.4813	0.1656
308.693	0.1638
308.9046	0.1617
309.1163	0.1613
309.328	0.1574
309.5396	0.157
309.7512	0.1564
309.9628	0.1531
310.1744	0.1557
310.386	0.1493
310.5976	0.1463
310.8091	0.1502
311.0207	0.1529
311.2322	0.145
311.4437	0.1499
311.6552	0.1492
311.8667	0.1472
312.0782	0.142
312.2897	0.1466
312.5012	0.141
312.7126	0.1415
312.924	0.1423
313.1355	0.1409
313.3469	0.1394
313.5583	0.1349
313.7696	0.1359
313.981	0.1446
314.1924	0.1347
314.4037	0.1356
314.6151	0.1351
314.8264	0.1403
315.0377	0.1361
315.249	0.1314
315.4603	0.1307
315.6716	0.1343
315.8828	0.1296
316.0941	0.1297
316.3053	0.1266
316.5165	0.1326
316.7277	0.1256
316.9389	0.1328
317.1501	0.1327
317.3613	0.1226
317.5724	0.1339
317.7836	0.1264
317.9947	0.1239
318.2058	0.1233
318.417	0.1282
318.6281	0.1267
318.8391	0.1304
319.0502	0.1296
319.2613	0.1253
319.4723	0.123
319.6834	0.1322
319.8944	0.1227
320.1054	0.1281
320.3164	0.1226
320.5274	0.1264
320.7383	0.1318
320.9493	0.1318
321.1602	0.1255
321.3712	0.1306
321.5821	0.1222
321.793	0.1375
322.0039	0.1263
322.2148	0.1242
322.4257	0.1288
322.6365	0.1233
322.8474	0.13
323.0582	0.1314
323.269	0.1245
323.4798	0.1324
323.6906	0.1269
323.9014	0.126
324.1122	0.1253
324.3229	0.1282
324.5337	0.1332
324.7444	0.1383
324.9551	0.1342
325.1658	0.1264
325.3765	0.1344
325.5872	0.1362
325.7979	0.1305
326.0085	0.1244
326.2192	0.1286
326.4298	0.1321
326.6404	0.1342
326.851	0.1338
327.0616	0.1342
327.2722	0.1339
327.4828	0.1365
327.6933	0.1399
327.9039	0.1366
328.1144	0.1401
328.3249	0.1391
328.5354	0.1359
328.7459	0.1401
328.9564	0.1385
329.1669	0.1417
329.3773	0.1385
329.5878	0.1385
329.7982	0.1435
330.0086	0.1376
330.219	0.137
330.4294	0.1408
330.6398	0.1414
330.8502	0.1474
331.0605	0.1388
331.2708	0.1407
331.4812	0.1448
331.6915	0.1396
331.9018	0.1433
332.1121	0.1482
332.3224	0.1355
332.5326	0.1323
332.7429	0.1375
332.9531	0.1489
333.1633	0.1373
333.3735	0.1352
333.5837	0.1402
333.7939	0.1408
334.0041	0.1496
334.2143	0.1401
334.4244	0.1464
334.6346	0.1375
334.8447	0.1396
335.0548	0.1477
335.2649	0.1435
335.475	0.1457
335.685	0.1414
335.8951	0.1399
336.1051	0.1479
336.3152	0.1444
336.5252	0.1404
336.7352	0.1405
336.9452	0.1431
337.1552	0.1495
337.3652	0.1377
337.5751	0.1413
337.7851	0.1407
337.995	0.1456
338.2049	0.1391
338.4148	0.1434
338.6247	0.1491
338.8346	0.1456
339.0445	0.1472
339.2543	0.1438
339.4642	0.1473
339.674	0.1456
339.8838	0.1471
340.0936	0.147
340.3034	0.1408
340.5132	0.1407
340.7229	0.1465
340.9327	0.1524
341.1424	0.1493
341.3522	0.144
341.5619	0.1477
341.7716	0.1508
341.9813	0.1527
342.1909	0.1524
342.4006	0.1565
342.6102	0.1516
342.8199	0.1431
343.0295	0.1472
343.2391	0.1535
343.4487	0.1581
343.6583	0.1659
343.8679	0.1566
344.0774	0.152
344.287	0.1548
344.4965	0.1631
344.706	0.1629
344.9155	0.1576
345.125	0.1615
345.3345	0.1677
345.544	0.1605
345.7534	0.1678
345.9629	0.1694
346.1723	0.1694
346.3817	0.1642
346.5911	0.1688
346.8005	0.1705
347.0099	0.1678
347.2193	0.1702
347.4286	0.1775
347.638	0.1727
347.8473	0.1736
348.0566	0.1742
348.2659	0.177
348.4752	0.179
348.6845	0.1723
348.8937	0.1683
349.103	0.1784
349.3122	0.1773
349.5214	0.1792
349.7306	0.1821
349.9398	0.1797
350.149	0.174
350.3582	0.1745
350.5674	0.1815
350.7765	0.18
350.9856	0.1732
351.1948	0.1825
351.4039	0.18
351.613	0.1813
351.822	0.1789
352.0311	0.1849
352.2402	0.1841
352.4492	0.1787
352.6582	0.1808
352.8672	0.1808
353.0762	0.1821
353.2852	0.1822
353.4942	0.1826
353.7032	0.1822
353.9121	0.1822
354.1211	0.1885
354.33	0.1898
354.5389	0.1845
354.7478	0.1818
354.9567	0.1883
355.1655	0.1866
355.3744	0.188
355.5833	0.1846
355.7921	0.1906
356.0009	0.1905
356.2097	0.1825
356.4185	0.1869
356.6273	0.1819
356.8361	0.1843
357.0448	0.1883
357.2536	0.1904
357.4623	0.1885
357.671	0.1924
357.8797	0.189
358.0884	0.1851
358.2971	0.1902
358.5057	0.1996
358.7144	0.195
358.923	0.1925
359.1316	0.1935
359.3402	0.1931
359.5488	0.1919
359.7574	0.2032
359.966	0.1967
360.1746	0.1979
360.3831	0.2054
360.5916	0.2052
360.8002	0.2077
361.0087	0.1983
361.2172	0.2023
361.4256	0.2042
361.6341	0.2111
361.8426	0.2045
362.051	0.2027
362.2594	0.193
362.4678	0.2122
362.6762	0.2034
362.8846	0.2117
363.093	0.2165
363.3014	0.2133
363.5097	0.2127
363.718	0.2101
363.9264	0.2147
364.1347	0.2197
364.343	0.2223
364.5513	0.2132
364.7595	0.228
364.9678	0.2142
365.176	0.2134
365.3842	0.2224
365.5925	0.2167
365.8007	0.2169
366.0089	0.2304
366.217	0.23
366.4252	0.2223
366.6333	0.2299
366.8415	0.2288
367.0496	0.2315
367.2577	0.2273
367.4658	0.2293
367.6739	0.2217
367.882	0.2318
368.09	0.2198
368.2981	0.2375
368.5061	0.2271
368.7141	0.2324
368.9221	0.2399
369.1301	0.2391
369.3381	0.2381
369.5461	0.2398
369.754	0.2433
369.962	0.2353
370.1699	0.2468
370.3778	0.2523
370.5857	0.2379
370.7936	0.2475
371.0015	0.2439
371.2093	0.2375
371.4172	0.236
371.625	0.2431
371.8328	0.2462
372.0406	0.2504
372.2484	0.2468
372.4562	0.2484
372.664	0.2451
372.8717	0.247
373.0795	0.2581
373.2872	0.2554
373.4949	0.2506
373.7026	0.2503
373.9103	0.2486
374.118	0.2511
374.3256	0.2585
374.5333	0.2507
374.7409	0.2591
374.9485	0.262
375.1561	0.2592
375.3637	0.2556
375.5713	0.2593
375.7789	0.2654
375.9864	0.252
376.194	0.264
376.4015	0.2643
376.609	0.2661
376.8165	0.2637
377.024	0.2613
377.2315	0.2693
377.4389	0.2537
377.6464	0.2689
377.8538	0.2644
378.0612	0.2675
378.2686	0.2721
378.476	0.2712
378.6834	0.2682
378.8908	0.2738
379.0981	0.2733
379.3055	0.2697
379.5128	0.2737
379.7201	0.2701
379.9274	0.2728
380.1347	0.2735
380.342	0.281
380.5492	0.2726
380.7565	0.2742
380.9637	0.2805
381.1709	0.2706
381.3781	0.2776
381.5853	0.2742
381.7925	0.27
381.9997	0.2836
382.2068	0.2749
382.4139	0.2728
382.6211	0.287
382.8282	0.2913
383.0353	0.285
383.2424	0.2796
383.4494	0.277
383.6565	0.2902
383.8635	0.2811
384.0706	0.2956
384.2776	0.2888
384.4846	0.2855
384.6916	0.2862
384.8986	0.285
385.1055	0.2997
385.3125	0.289
385.5194	0.2838
385.7263	0.2954
385.9333	0.2904
386.1402	0.2776
386.347	0.2755
386.5539	0.2842
386.7608	0.281
386.9676	0.2933
387.1744	0.2917
387.3813	0.2824
387.5881	0.2822
387.7948	0.2903
388.0016	0.2957
388.2084	0.2876
388.4151	0.2861
388.6219	0.2759
388.8286	0.2844
389.0353	0.2925
389.242	0.2819
389.4487	0.2783
389.6553	0.2649
389.862	0.2815
390.0686	0.2859
390.2753	0.2881
390.4819	0.2808
390.6885	0.2816
390.8951	0.2848
391.1016	0.2807
391.3082	0.2849
391.5147	0.2652
391.7213	0.2695
391.9278	0.2714
392.1343	0.2746
392.3408	0.2748
392.5473	0.2752
392.7537	0.2713
392.9602	0.2724
393.1666	0.2606
393.373	0.2663
393.5794	0.2696
393.7858	0.2668
393.9922	0.2593
394.1986	0.2543
394.4049	0.2629
394.6113	0.2542
394.8176	0.2614
395.0239	0.255
395.2302	0.2576
395.4365	0.2534
395.6428	0.2535
395.8491	0.2516
396.0553	0.2497
396.2615	0.2515
396.4678	0.2506
396.674	0.2471
396.8802	0.253
397.0863	0.2452
397.2925	0.2466
397.4987	0.2527
397.7048	0.2529
397.9109	0.242
398.117	0.244
398.3231	0.2412
398.5292	0.2392
398.7353	0.2464
398.9413	0.2444
399.1474	0.2344
399.3534	0.2435
399.5594	0.2498
399.7654	0.2488
399.9714	0.2448
400.1774	0.2409
400.3833	0.2435
400.5893	0.2459
400.7952	0.2535
401.0011	0.2408
401.207	0.2392
401.4129	0.2394
401.6188	0.2425
401.8247	0.2473
402.0305	0.2361
402.2364	0.2469
402.4422	0.2419
402.648	0.2471
402.8538	0.2407
403.0596	0.2405
403.2654	0.2413
403.4711	0.244
403.6768	0.238
403.8826	0.2442
404.0883	0.2479
404.294	0.2397
404.4997	0.2426
404.7054	0.2415
404.911	0.2391
405.1167	0.247
405.3223	0.2407
405.5279	0.2416
405.7335	0.239
405.9391	0.2334
406.1447	0.2465
406.3502	0.236
406.5558	0.2366
406.7613	0.2403
406.9668	0.2468
407.1724	0.2468
407.3778	0.2476
407.5833	0.2434
407.7888	0.249
407.9942	0.2368
408.1997	0.2487
408.4051	0.2383
408.6105	0.2427
408.8159	0.2354
409.0213	0.244
409.2267	0.2529
409.432	0.2397
409.6374	0.2547
409.8427	0.2461
410.048	0.2387
410.2533	0.2405
410.4586	0.2352
410.6639	0.2516
410.8691	0.2304
411.0744	0.2328
411.2796	0.2398
411.4848	0.24
411.69	0.2393
411.8952	0.2527
412.1004	0.2422
412.3056	0.2337
412.5107	0.2381
412.7158	0.2525
412.921	0.2411
413.1261	0.2429
413.3312	0.2481
413.5362	0.2428
413.7413	0.2381
413.9464	0.2361
414.1514	0.2309
414.3564	0.234
414.5614	0.2418
414.7664	0.2379
414.9714	0.2336
415.1764	0.2372
415.3813	0.2275
415.5863	0.2457
415.7912	0.2322
415.9961	0.2375
416.201	0.2481
416.4059	0.2354
416.6108	0.2329
416.8156	0.2336
417.0205	0.2256
417.2253	0.2209
417.4301	0.2318
417.6349	0.2299
417.8397	0.2298
418.0445	0.2374
418.2492	0.2388
418.454	0.2296
418.6587	0.2308
418.8634	0.2305
419.0681	0.2296
419.2728	0.2285
419.4775	0.2427
419.6822	0.2298
419.8868	0.2256
420.0915	0.2254
420.2961	0.222
420.5007	0.2243
420.7053	0.2142
420.9099	0.2267
421.1144	0.2198
421.319	0.2244
421.5235	0.2117
421.728	0.226
421.9325	0.2196
422.137	0.234
422.3415	0.2174
422.546	0.211
422.7504	0.216
422.9549	0.2254
423.1593	0.2096
423.3637	0.2193
423.5681	0.2202
423.7725	0.2139
423.9769	0.2073
424.1812	0.2017
424.3856	0.2054
424.5899	0.2023
424.7942	0.2075
424.9985	0.2102
425.2028	0.2105
425.4071	0.2078
425.6113	0.2063
425.8156	0.2045
426.0198	0.2009
426.224	0.2097
426.4282	0.1935
426.6324	0.1959
426.8366	0.1951
427.0407	0.1952
427.2449	0.1991
427.449	0.2008
427.6531	0.2049
427.8572	0.2031
428.0613	0.2021
428.2654	0.2034
428.4694	0.1837
428.6735	0.1879
428.8775	0.1844
429.0815	0.1813
429.2855	0.1944
429.4895	0.1808
429.6935	0.1865
429.8975	0.1744
430.1014	0.1816
430.3053	0.1864
430.5093	0.1759
430.7132	0.1773
430.9171	0.1709
431.1209	0.1775
431.3248	0.1648
431.5286	0.1614
431.7325	0.176
431.9363	0.1695
432.1401	0.1647
432.3439	0.166
432.5477	0.1652
432.7514	0.1655
432.9552	0.1546
433.1589	0.1553
433.3627	0.166
433.5664	0.1511
433.7701	0.1583
433.9737	0.1598
434.1774	0.1576
434.3811	0.1397
434.5847	0.1467
434.7883	0.1426
434.9919	0.1478
435.1955	0.1487
435.3991	0.1449
435.6027	0.1316
435.8062	0.1514
436.0098	0.134
436.2133	0.1316
436.4168	0.1288
436.6203	0.1301
436.8238	0.1289
437.0272	0.1327
437.2307	0.1244
437.4341	0.1324
437.6375	0.1208
437.841	0.1157
438.0443	0.1283
438.2477	0.1177
438.4511	0.1137
438.6545	0.1236
438.8578	0.1106
439.0611	0.1159
439.2644	0.1218
439.4677	0.1106
439.671	0.1002
439.8743	0.1091
440.0775	0.1071
440.2808	0.1072
440.484	0.1005
440.6872	0.1064
440.8904	0.0942
441.0936	0.0915
441.2967	0.0873
441.4999	0.0903
441.703	0.0911
441.9062	0.1005
442.1093	0.0964
442.3124	0.0973
442.5155	0.0911
442.7185	0.0859
442.9216	0.0864
443.1246	0.0927
443.3276	0.0838
443.5307	0.0839
443.7337	0.086
443.9366	0.0733
444.1396	0.0779
444.3426	0.0717
444.5455	0.0659
444.7484	0.0721
444.9513	0.0793
445.1542	0.0794
445.3571	0.0665
445.56	0.0702
445.7628	0.0678
445.9657	0.0758
446.1685	0.0761
446.3713	0.0693
446.5741	0.0718
446.7769	0.0649
446.9797	0.0589
447.1824	0.0608
447.3852	0.0449
447.5879	0.0572
447.7906	0.0606
447.9933	0.055
448.196	0.054
448.3986	0.057
448.6013	0.0492
448.8039	0.0611
449.0066	0.0655
449.2092	0.0536
449.4118	0.0546
449.6143	0.0521
449.8169	0.0487
450.0195	0.0459
450.222	0.0521
450.4245	0.0466
450.627	0.05
450.8295	0.0393
451.032	0.041
451.2345	0.033
451.4369	0.0442
451.6394	0.0408
451.8418	0.0396
452.0442	0.0356
452.2466	0.041
452.449	0.0391
452.6513	0.0266
452.8537	0.0286
453.056	0.0351
453.2583	0.0338
453.4607	0.0267
453.663	0.0421
453.8652	0.0256
454.0675	0.0411
454.2697	0.0384
454.472	0.0256
454.6742	0.036
454.8764	0.0399
455.0786	0.0297
455.2808	0.0223
455.4829	0.0209
455.6851	0.024
455.8872	0.0201
456.0893	0.031
456.2915	0.0219
456.4935	0.0416
456.6956	0.0225
456.8977	0.0293
457.0997	0.0272
457.3018	0.017
457.5038	0.0318
457.7058	0.0269
457.9078	0.0344
458.1098	0.0326
458.3117	0.0252
458.5137	0.0138
458.7156	0.0293
458.9175	0.0233
459.1194	0.0214
459.3213	0.022
459.5232	0.0306
459.725	0.0193
459.9269	0.0206
460.1287	0.015
460.3305	0.0253
460.5323	0.0234
460.7341	0.0208
460.9359	0.0127
461.1376	0.0194
461.3394	0.0138
461.5411	0.0245
461.7428	0.0143
461.9445	0.0119
462.1462	0.0061
462.3479	0.0121
462.5495	0.0208
462.7512	0.0225
462.9528	0.012
463.1544	0.0161
463.356	0.0059
463.5576	0.0228
463.7592	0.0099
463.9607	0.0161
464.1623	0.0168
464.3638	0.0064
464.5653	0.0142
464.7668	0.0203
464.9683	0.0186
465.1697	0.016
465.3712	0.0019
465.5726	0.0083
465.7741	0.0157
465.9755	0.0117
466.1769	0.0036
466.3782	0.0089
466.5796	0.018
466.7809	0.0138
466.9823	0.0111
467.1836	0.0118
467.3849	0.0113
467.5862	0.0027
467.7875	0.015
467.9887	0.0102
468.19	0.0024
468.3912	0.0164
468.5924	0.0054
468.7936	0.0055
468.9948	0.0013
469.196	0.0093
469.3972	0.0018
469.5983	0.006
469.7994	0.0193
470.0006	0.0135
470.2017	0.0074
470.4027	0.0202
470.6038	0.0129
470.8049	0.0172
471.0059	0.0065
471.2069	0.0048
471.408	0.0134
471.6089	0.0153
471.8099	0.0152
472.0109	0.0107
472.2119	0.0243
472.4128	-0.0002
472.6137	0.0101
472.8146	0.0095
473.0155	0.0143
473.2164	0.0006
473.4173	0.0144
473.6181	0.0016
473.819	-0.0013
474.0198	0.0069
474.2206	0.0011
474.4214	0.0135
474.6222	0
474.8229	0.0081
475.0237	0.0157
475.2244	0.0139
475.4251	0.0056
475.6258	0.0029
475.8265	0.0082
476.0272	-0.0023
476.2278	0.0072
476.4285	0.0079
476.6291	0.0022
476.8297	0.0123
477.0303	-0.0022
477.2309	0.0092
477.4315	0.0096
477.632	0.0034
477.8326	0.011
478.0331	0.0098
478.2336	-0.0073
478.4341	0.0111
478.6346	0.0005
478.8351	-0.0049
479.0355	0.0086
479.236	0.0131
479.4364	0.0107
479.6368	0.0025
479.8372	0.0041
480.0376	-0.0054
480.2379	0.0034
480.4383	0.0106
480.6386	-0.0035
480.8389	0.0045
481.0392	0.0064
481.2395	0.0043
481.4398	0.006
481.6401	0.0037
481.8403	0.0014
482.0405	0.0073
482.2408	0.0033
482.441	0.0019
482.6411	0.0089
482.8413	-0.001
483.0415	0.0127
483.2416	0.0003
483.4417	0.0036
483.6419	0.0022
483.8419	0.0052
484.042	0.0039
484.2421	0.0027
484.4422	0.0014
484.6422	0.0069
484.8422	0.0029
485.0422	0.0051
485.2422	0.0016
485.4422	0.0045
485.6422	0.0053
485.8421	0.0037
486.042	0.0092
486.242	0.0036
486.4419	0.0058
486.6417	0.001
486.8416	0.002
487.0415	0.0029
487.2413	0.0003
487.4411	0.0025
487.641	0.0047
487.8408	0.0105
488.0405	0.0093
488.2403	-0.0036
488.4401	0.0062
488.6398	0.0072
488.8395	-0.0007
489.0392	0.0007
489.2389	0.0098
489.4386	-0.0034
489.6383	-0.0013
489.8379	-0.0027
490.0376	0.0041
490.2372	0.0007
490.4368	0.0045
490.6364	-0.0041
490.836	-0.004
491.0355	-0.0087
491.2351	-0.0017
491.4346	-0.0002
491.6341	-0.0068
491.8336	0.0053
492.0331	0.0045
492.2326	0.0006
492.432	0.0061
492.6315	0.0047
492.8309	0.0065
493.0303	0.0016
493.2297	0.0071
493.4291	0.0031
493.6284	0.0069
493.8278	-0.0019
494.0271	0.0012
494.2264	-0.0014
494.4257	0.0028
494.625	0.0018
494.8243	-0.0004
495.0236	0.005
495.2228	0.0093
495.422	-0
495.6213	0.0054
495.8205	0.0081
496.0196	0.0029
496.2188	0.0063
496.418	0.0027
496.6171	0.0013
496.8162	0.0078
497.0153	0.0048
497.2144	0.0031
497.4135	0.0083
497.6126	0.0041
497.8116	0.0025
498.0107	0.0051
498.2097	0.0089
498.4087	0.0008
498.6077	0.001
498.8067	0.0123
499.0056	-0.0008
499.2046	0.005
499.4035	-0.0018
499.6024	-0.0059
499.8013	0.0094
500.0002	0.0009
500.199	0.0061
500.3979	-0.0013
500.5967	-0.0062
500.7956	0.0028
500.9944	0.0056
501.1932	0.005
501.3919	0.0112
501.5907	0.009
501.7895	-0.0042
501.9882	0.0001
502.1869	0.0081
502.3856	0.0059
502.5843	-0.0051
502.783	0.0023
502.9816	0.0057
503.1803	0.0033
503.3789	0.0024
503.5775	-0.0039
503.7761	-0.0013
503.9747	0.0071
504.1732	-0.0082
504.3718	0.0123
504.5703	-0.0048
504.7689	-0.0032
504.9674	-0.0065
505.1658	-0.0018
505.3643	0.009
505.5628	0.0049
505.7612	0.0094
505.9597	-0.0031
506.1581	0.0041
506.3565	-0.0009
506.5549	-0.0005
506.7532	-0.002
506.9516	0.002
507.1499	0.0017
507.3482	-0.0021
507.5465	0.0068
507.7448	-0.0003
507.9431	0.0003
508.1414	-0.0079
508.3396	0.0003
508.5379	-0.0062
508.7361	0.0043
508.9343	0.0022
509.1325	0.0059
509.3306	-0.0086
509.5288	-0.0082
509.7269	0.0103
509.9251	0.0017
510.1232	0.0026
510.3213	-0.0014
510.5193	-0.0006
510.7174	-0.0077
510.9154	0.003
511.1135	0.0007
511.3115	-0.0033
511.5095	-0.0048
511.7075	-0.0061
511.9055	-0.0027
512.1034	0.0004
512.3014	-0.001
512.4993	0.0057
512.6972	-0.0043
512.8951	-0.0022
513.093	-0.008
513.2908	0.0154
513.4887	0.0037
513.6865	-0.0003
513.8844	0.0019
514.0822	0.0009
514.2799	-0.0079
514.4777	-0.0103
514.6755	-0.0025
514.8732	-0.002
515.0709	-0.0066
515.2687	-0.0061
515.4664	0.0061
515.664	0.0082
515.8617	0.006
516.0594	0.0104
516.257	-0.0068
516.4546	0.017
516.6522	-0.0007
516.8498	0.002
517.0474	0.0027
517.2449	-0.0071
517.4425	0.001
517.64	0.001
517.8375	0.0058
518.035	-0.0072
518.2325	-0.0036
518.43	-0.0005
518.6274	-0.0023
518.8249	-0.0011
519.0223	0.0077
519.2197	-0.0054
519.4171	-0.003
519.6145	0.0131
519.8118	-0.0199
520.0092	0.0022
520.2065	0.0066
520.4038	0.0055
520.6011	0.0047
520.7984	-0.0023
520.9956	0.0122
521.1929	0.0044
521.3901	0.003
521.5874	0.0067
521.7846	-0.0105
521.9818	-0.0012
522.1789	-0.0087
522.3761	0.0067
522.5732	0.001
522.7704	-0.0146
522.9675	-0.0089
523.1646	-0.0078
523.3617	0.0125
523.5587	-0.0027
523.7558	0.0001
523.9528	0.0081
524.1498	-0.0096
524.3468	0.003
524.5438	-0.0009
524.7408	-0.0085
524.9378	0.0065
525.1347	0.0082
525.3316	0.0045
525.5285	-0.0126
525.7254	0.0103
525.9223	0.0076
526.1192	0.0008
526.316	0.0025
526.5129	-0.0063
526.7097	0.0019
526.9065	0.0012
527.1033	0.0114
527.3	-0.0055
527.4968	0.0122
527.6935	0.0007
527.8903	-0.0012
528.087	-0.007
528.2837	0.0154
528.4804	0.0063
528.677	0.0123
528.8737	-0.0036
529.0703	-0.0013
529.2669	0.0025
529.4635	-0.0064
529.6601	-0.011
529.8567	-0.0081
530.0532	0.0112
530.2498	0.0055
530.4463	-0.0025
530.6428	0.0046
530.8393	0.0036
531.0358	0.0045
531.2322	-0.0033
531.4287	-0.0002
531.6251	-0.0079
531.8215	0.0009
532.0179	-0.0005
532.2143	-0.0117
532.4107	0.0024
532.607	0.0027
532.8034	-0.0042
532.9997	0.0048
533.196	-0.0037
533.3923	0.001
533.5886	0.0046
533.7848	-0.0089
533.9811	0.0007
534.1773	0.0002
534.3735	0.0023
534.5697	-0.0027
534.7659	-0.0001
534.9621	-0.0011
535.1582	0.0074
535.3544	0.005
535.5505	-0.0002
535.7466	-0.0005
535.9427	0.0075
536.1387	-0.0004
536.3348	-0.0046
536.5308	0.0039
536.7269	-0.0044
536.9229	0.0058
537.1189	0.0028
537.3148	0.0012
537.5108	-0.0077
537.7068	0.0046
537.9027	-0.0123
538.0986	0.0067
538.2945	-0.0049
538.4904	-0.0096
538.6863	0
538.8821	0.0046
539.078	-0.0033
539.2738	-0.0019
539.4696	-0.0078
539.6654	-0.0022
539.8611	0.0112
540.0569	0.0065
540.2526	-0.0005
540.4484	0.0006
540.6441	-0.002
540.8398	0.0134
541.0355	-0.0034
541.2311	0.0006
541.4268	0.0136
541.6224	0.0181
541.818	0.0076
542.0136	0.0062
542.2092	-0.0003
542.4048	0.0055
542.6003	0.0013
542.7959	0.0034
542.9914	0.0064
543.1869	0.0021
543.3824	0.0071
543.5779	0.0146
543.7734	0.0139
543.9688	0.0053
544.1642	-0.0003
544.3596	-0.0027
544.555	-0.0054
544.7504	0.0058
544.9458	-0.0096
545.1411	0.003
545.3365	-0.002
545.5318	0.0063
545.7271	0.0125
545.9224	-0.0029
546.1177	0.0016
546.3129	-0.0018
546.5081	-0.007
546.7034	-0.0007
546.8986	-0.0035
547.0938	0.0052
547.289	0.0043
547.4841	0.004
547.6793	0.0043
547.8744	0.0051
548.0695	-0.0055
548.2646	0.0088
548.4597	0
548.6548	0.0096
548.8498	0.0024
549.0448	0.002
549.2399	0.0072
549.4349	0.0012
549.6298	0.0149
549.8248	-0.0075
550.0198	0.0011
550.2147	-0.0023
550.4096	-0.002
550.6045	0.0001
550.7994	-0.0009
550.9943	0.0082
551.1892	-0.017
551.384	0.0057
551.5788	-0.0049
551.7737	0.0018
551.9685	0.0016
552.1632	0.0073
552.358	0.0061
552.5528	0.0052
552.7475	-0.0008
552.9422	0.0084
553.1369	0.0076
553.3316	0.0009
553.5263	0.0096
553.7209	-0.0027
553.9156	0.0083
554.1102	0.0058
554.3048	0.0064
554.4994	-0.0029
554.694	0.0044
554.8885	0.0009
555.0831	0.0068
555.2776	0.0062
555.4721	0.0059
555.6666	0.0008
555.8611	0.0009
556.0555	0.0024
556.25	0.0119
556.4444	-0.0053
556.6388	0.0025
556.8332	0.0037
557.0276	0.0053
557.222	-0.0003
557.4163	0.008
557.6107	0.0012
557.805	-0.0067
557.9993	0.0035
558.1936	-0.0085
558.3879	0.0101
558.5821	-0.0036
558.7764	-0.0046
558.9706	0.0074
559.1648	-0.0018
559.359	-0.0046
559.5532	-0.0044
559.7473	-0.0061
559.9415	0.0016
560.1356	0.0162
560.3297	-0.0028
560.5238	0.0081
560.7179	-0.0025
560.9119	-0.0024
561.106	-0.0023
561.3	0.0046
561.494	-0.0069
561.688	0.0089
561.882	-0.0023
562.076	0.0077
562.2699	0.0069
562.4639	0.0161
562.6578	0.0158
562.8517	0.0012
563.0456	0.0106
563.2395	0.0121
563.4333	0.0076
563.6272	0.0035
563.821	-0.0017
564.0148	0.0053
564.2086	-0.0009
564.4024	0.0092
564.5961	0.0075
564.7899	0.0099
564.9836	0.0027
565.1773	0.0042
565.371	0.0115
565.5647	0.0062
565.7584	0.0147
565.952	0.0068
566.1456	0.0036
566.3393	0.0102
566.5329	0.0128
566.7264	0.0082
566.92	0.0034
567.1136	-0.0037
567.3071	-0.0034
567.5006	0.0075
567.6941	0.0041
567.8876	-0.0007
568.0811	0.0178
568.2745	-0.005
568.468	0.0069
568.6614	0.0085
568.8548	0.014
569.0482	0.0046
569.2416	0.0048
569.4349	0.0049
569.6283	0.0017
569.8216	0.0062
570.0149	0.0037
570.2082	0.0081
570.4015	0.0039
570.5947	0.0038
570.788	0.0042
570.9812	0.0026
571.1744	0.0062
571.3676	0.0105
571.5608	0.0015
571.754	0.0086
571.9471	0.006
572.1402	0.006
572.3333	0.0033
572.5264	0.0061
572.7195	0.0027
572.9126	0.0037
573.1057	0.0073
573.2987	0.0011
573.4917	0.0022
573.6847	0.0067
573.8777	0.0081
574.0707	0.008
574.2636	0.0032
574.4566	0.002
574.6495	0.0003
574.8424	0.0031
575.0353	0.0066
575.2281	0.0112
575.421	0.0023
575.6138	0.001
575.8067	0.0059
575.9995	0.0033
576.1923	0.0071
576.385	0.0044
576.5778	0.0072
576.7706	0.0032
576.9633	0.006
577.156	-0.0017
577.3487	0.0042
577.5414	0.005
577.734	0.0001
577.9267	0.0044
578.1193	0.0062
578.3119	-0.0009
578.5045	0.0026
578.6971	0.0058
578.8897	0.004
579.0822	0.0075
579.2747	0.0009
579.4673	0.0051
579.6598	0.0085
579.8522	0.0071
580.0447	0.0059
580.2372	0.0038
580.4296	0.0084
580.622	0.0044
580.8144	0.0062
581.0068	0.0029
581.1992	0.0058
581.3915	0.0002
581.5839	0.0043
581.7762	0.001
581.9685	0.0039
582.1608	0.0033
582.353	0.0019
582.5453	0.0058
582.7375	0.0063
582.9298	0.0031
583.122	-0.0005
583.3142	0.0079
583.5063	0.0025
583.6985	0.0009
583.8906	0.002
584.0827	0.0046
584.2749	0.0074
584.4669	0.0067
584.659	0.0085
584.8511	0.006
585.0431	0.0069
585.2352	-0.002
585.4272	0.0031
585.6192	0.0067
585.8111	0.006
586.0031	0.0052
586.195	-0.0005
586.387	0.0052
586.5789	0.0064
586.7708	0.0076
586.9627	0.0067
587.1545	0.0085
587.3464	0.0047
587.5382	0.0075
587.73	0.0083
587.9218	0.0046
588.1136	-0.003
588.3053	0.0067
588.4971	0.0032
588.6888	0.0009
588.8805	0.0076
589.0722	0.0077
589.2639	0.0067
589.4556	0.0078
589.6472	0.0096
589.8389	0.0073
590.0305	0.0046
590.2221	0.0063
590.4137	0.0019
590.6052	-0.0028
590.7968	0.0031
590.9883	0.004
591.1798	0.0095
591.3713	-0.0024
591.5628	0.007
591.7543	-0.0008
591.9458	0.0016
592.1372	0.0037
592.3286	0.0066
592.52	0.0038
592.7114	0.0003
592.9028	0.0071
593.0941	0.0062
593.2855	0.0011
593.4768	0.0109
593.6681	0.0062
593.8594	0.0071
594.0506	0
594.2419	0.0012
594.4331	0.0016
594.6244	0.0021
594.8156	0.0039
595.0067	0.0027
595.1979	-0.0013
595.3891	0.0072
595.5802	0.0125
595.7713	0.0036
595.9624	0.0108
596.1535	0.0003
596.3446	-0.0027
596.5357	0.0057
596.7267	0.0042
596.9177	0.0018
597.1087	0.0013
597.2997	0.008
597.4907	-0.0021
597.6817	0.0122
597.8726	0.0077
598.0635	0.0026
598.2544	0.0084
598.4453	0.0037
598.6362	0.0031
598.827	0.0044
599.0179	0.006
599.2087	0.0117
599.3995	0.0059
599.5903	0.0104
599.7811	0.0122
599.9718	0.001
600.1626	0.0019
600.3533	-0.0021
600.544	0.0062
600.7347	0.0049
600.9254	0.0099
601.116	0.0053
601.3067	0.0032
601.4973	0.0042
601.6879	0.0065
601.8785	0.0072
602.0691	0.004
602.2596	0.0072
602.4502	0.0082
602.6407	0.006
602.8312	0.0084
603.0217	0.0028
603.2122	0.0064
603.4027	0.0042
603.5931	0.003
603.7835	0.004
603.9739	-0.0013
604.1643	0.0099
604.3547	0.0104
604.5451	0.0098
604.7354	-0.0029
604.9257	-0.0002
605.116	0.0008
605.3063	0.0043
605.4966	-0.0032
605.6869	0.0077
605.8771	0.0079
606.0673	0.0068
606.2575	0.0062
606.4477	0.0067
606.6379	0.0047
606.8281	0.0038
607.0182	0.0028
607.2083	0.0038
607.3985	0.007
607.5885	0.0081
607.7786	0.0073
607.9687	0.0139
608.1587	0.0024
608.3488	0.0032
608.5388	-0.0035
608.7288	0.0042
608.9187	-0.0004
609.1087	0.0083
609.2986	0.0047
609.4886	0.0052
609.6785	0.0076
609.8684	-0.0017
610.0582	0.0032
610.2481	0.005
610.4379	0.005
610.6278	0.0072
610.8176	0.0104
611.0074	0.0107
611.1971	0.0075
611.3869	0.0018
611.5766	-0.0031
611.7664	0.003
611.9561	0.013
612.1458	0.0074
612.3354	0.0105
612.5251	0.0038
612.7147	0.0082
612.9044	0.0001
613.094	0.0013
613.2836	0.0002
613.4731	0.0027
613.6627	0.015
613.8522	0.0044
614.0417	0.0055
614.2313	0.0039
614.4207	0.0057
614.6102	0.0116
614.7997	0.009
614.9891	0.0043
615.1785	-0.0023
615.3679	0.0057
615.5573	0.0052
615.7467	-0.0017
615.9361	0.0047
616.1254	0.0083
616.3147	0.0042
616.504	0.0043
616.6933	0.0036
616.8826	0.0055
617.0718	0.0117
617.2611	-0.0029
617.4503	0.0078
617.6395	0.0096
617.8287	0.0117
618.0179	0.0058
618.207	0.0111
618.3961	-0.0023
618.5853	0.0006
618.7744	0.0063
618.9634	0.0135
619.1525	0.0107
619.3416	0.0044
619.5306	0.0111
619.7196	0.0131
619.9086	0.0023
620.0976	-0.0119
620.2866	0.0077
620.4755	0.0015
620.6645	0.0175
620.8534	0.0127
621.0423	0.0044
621.2312	-0.0006
621.42	0.0046
621.6089	0.0042
621.7977	0.0051
621.9865	0.0028
622.1753	-0.0035
622.3641	-0.0029
622.5529	-0.0012
622.7416	0.0023
622.9303	0.0023
623.1191	0.0117
623.3078	0.0031
623.4964	0.0099
623.6851	0.008
623.8737	-0.001
624.0624	-0.0021
624.251	-0.0046
624.4396	0.0075
624.6282	0.0192
624.8167	0.002
625.0053	0.0105
625.1938	0.0037
625.3823	0.0039
625.5708	-0.0043
625.7593	0.0056
625.9477	0.0106
626.1362	0.0045
626.3246	-0.0088
626.513	0.0111
626.7014	0.0074
626.8898	0.0161
627.0781	0.0033
627.2665	0.0011
627.4548	-0.0041
627.6431	0.0014
627.8314	0.0107
628.0197	0.0134
628.2079	0.0031
628.3962	0.0042
628.5844	-0.0023
628.7726	0
628.9608	0.016
629.1489	0.0047
629.3371	-0.0051
629.5252	0.0076
629.7134	-0.0048
629.9015	0.0087
630.0895	0.007
630.2776	0.0027
630.4657	0.0099
630.6537	0.0089
630.8417	0.0023
631.0297	-0.0006
631.2177	0.0097
631.4057	0.0023
631.5936	0.013
631.7815	-0.0009
631.9695	0.0199
632.1574	0.0073
632.3452	0.0072
632.5331	-0.0046
632.7209	0.0133
632.9088	-0.0043
633.0966	0.0207
633.2844	0.0159
633.4722	-0.0012
633.6599	0.0104
633.8477	0.0056
634.0354	0.0062
634.2231	-0.0015
634.4108	-0.0037
634.5985	0.0069
634.7861	0.0011
634.9738	0.0056
635.1614	-0.0022
635.349	0.0015
635.5366	0.0058
635.7242	0.0204
635.9117	0.0071
636.0993	0.006
636.2868	0.0062
636.4743	0.0061
636.6618	0.0025
636.8492	0.0102
637.0367	0.0002
637.2241	0.0001
637.4115	0.0206
637.5989	0.0022
637.7863	0.0213
637.9737	-0.0154
638.161	0.011
638.3484	-0.0126
638.5357	0.001
638.723	0.0349
638.9103	-0.0062
639.0975	0.0001
639.2848	0.0029
639.472	0.0187
639.6592	0.003
639.8464	0.0108
640.0336	0.005
640.2208	-0.0153
640.4079	-0.006
640.595	-0.0113
640.7821	0.0142
640.9692	0.0011
641.1563	0.0003
641.3434	0.0106
641.5304	0.0478
641.7174	0.0159
641.9044	0.0025
642.0914	0.0194
642.2784	-0.0079
642.4653	0.0126
642.6523	0.0193
642.8392	-0.003
643.0261	0.0216
643.213	-0.0101
643.3999	0.0095
643.5867	0.0227
643.7735	-0.0038
643.9604	0.0063
644.1472	-0.0024
644.3339	-0.0027
644.5207	0.011
644.7075	0.007
644.8942	0.0159
645.0809	0.0118
645.2676	-0.012
645.4543	0.0003
645.6409	0.0287
645.8276	0.0225
646.0142	0.0213
646.2008	0.0059
646.3874	-0.0057
646.574	0.0105
646.7605	0.015
646.9471	0.026
647.1336	-0.0098
647.3201	0.0232
647.5066	-0.0012
647.6931	0.0188
647.8795	0.0148
648.0659	0.0053
648.2524	0.0054
648.4388	0.0187
648.6252	0.0116
648.8115	0.0043
648.9979	0.0111
649.1842	0.0067
649.3705	0.0052
649.5568	0.0082
649.7431	-0.0087
649.9294	0.0166
650.1156	0.0003
650.3018	0.0247
650.488	0.0163
650.6742	0.0145
650.8604	0.0086
651.0466	-0.0055
651.2327	0.0034
651.4188	0.0164
651.6049	0.0171
651.791	0.0034
651.9771	0.0171
652.1632	0.0069
652.3492	-0.0015
652.5352	0.0247
652.7212	0.014
652.9072	-0.0098
653.0932	0.003
653.2791	0.0105
653.465	0.0098
653.651	-0.0003
653.8369	0.0248
654.0227	0.0043
654.2086	0.0181
654.3944	0.0073
654.5803	0.0082
654.7661	0.0109
654.9519	0.0008
655.1377	0.0002
655.3234	0.0002
655.5092	0.0002
655.6949	0.0002
655.8806	0.0002
656.0663	0.0002
656.2519	0.0002
656.4376	0.0002
656.6232	0.0002
656.8088	0.0002
656.9945	0.0002
657.18	0.0002
657.3656	0.0002
657.5511	0.0002
657.7367	0.0002
657.9222	0.0002
658.1077	0.0002
658.2932	0.0002
658.4786	0.0002
658.6641	0.0002
658.8495	0.0002
659.0349	0.0002
659.2203	0.0002
659.4057	0.0002
659.591	0.1692
659.7764	0.0256
659.9617	0.0067
660.147	-0.0028
660.3323	0.0185
660.5176	0.0158
660.7028	-0.0093
660.888	-0.0006
661.0733	0.0178
661.2585	-0.006
661.4436	0.0164
661.6288	0.01
661.8139	-0.0027
661.9991	-0.0128
662.1842	-0.0062
662.3693	0.0036
662.5544	0.019
662.7394	0.0269
662.9245	0.0183
663.1095	-0.0002
663.2945	-0.0146
663.4795	-0.0117
663.6644	-0.0052
663.8494	0.0173
664.0343	0.0021
664.2193	-0.0103
664.4042	-0.0015
664.589	0.0058
664.7739	0.0077
664.9587	0.0051
665.1436	-0.0053
665.3284	-0.0044
665.5132	-0.0154
665.698	0.0162
665.8827	0.0032
666.0675	-0.0062
666.2522	0.0329
666.4369	-0.0044
666.6216	-0.0002
666.8063	0.0021
666.9909	-0.0046
667.1756	0.0098
667.3602	0.0004
667.5448	0.0067
667.7294	0.0137
667.9139	0.0039
668.0985	0.0227
668.283	-0.0043
668.4675	0.0395
668.652	0.0226
668.8365	0.0282
669.0209	0.0142
669.2054	0.0137
669.3898	0.0116
669.5742	0.0229
669.7586	0.0095
669.943	0.0143
670.1273	-0.0096
670.3117	0.0191
670.496	0.0085
670.6803	0.0001
670.8646	-0.0089
671.0488	0.0306
671.2331	-0.0164
671.4173	0.0065
671.6015	0.0138
671.7857	-0.0101
671.9699	0.0145
672.1541	-0.0013
672.3382	-0.0044
672.5223	0.0227
672.7064	0.0108
672.8905	-0.0044
673.0746	0.0208
673.2587	0.0225
673.4427	0.0079
673.6267	0.0058
673.8107	0.0341
673.9947	0.012
674.1787	0.0133
674.3626	0.023
674.5465	0.0382
674.7304	-0.0005
674.9143	-0.0066
675.0982	0.012
675.2821	0.0118
675.4659	0.002
675.6497	-0.0048
675.8335	0.008
676.0173	-0.0011
676.2011	0.024
676.3849	0.0062
676.5686	0.0248
676.7523	0.0159
676.936	0.0082
677.1197	-0.004
677.3034	0.0345
677.487	0.0029
677.6706	0.0136
677.8542	-0.0008
678.0378	0.0118
678.2214	0.0064
678.405	-0.0004
678.5885	0.0079
678.772	0.0146
678.9555	-0.008
679.139	0.0146
679.3225	-0.0016
679.5059	-0.019
679.6894	0.0181
679.8728	0.0106
680.0562	0.0089
680.2395	-0.0009
680.4229	-0.0063
680.6062	0.0055
680.7896	-0.0024
680.9729	0.0169
681.1562	0.0118
681.3394	0.0152
681.5227	0.002
681.7059	0.0194
681.8891	0.0161
682.0723	-0.0046
682.2555	0.0102
682.4387	0.0195
682.6218	0.0074
682.805	0.0007
682.9881	0.0159
683.1712	0.0125
683.3542	0.0282
683.5373	0.0128
683.7203	0.0147
683.9034	0.0056
684.0864	0.0034
684.2694	0.0086
684.4523	0.014
684.6353	0.0096
684.8182	-0.0062
685.0011	0.0143
685.184	0.0128
685.3669	0.0247
685.5498	-0.0007
685.7326	0.0082
685.9154	0.0065
686.0982	0.0389
686.281	-0.0019
686.4638	0.007
686.6465	-0.0109
686.8293	0.0041
687.012	0.0116
687.1947	0.0116
687.3774	0.0214
687.56	-0.0164
687.7427	-0.0046
687.9253	-0.0148
688.1079	0.016
688.2905	0.0096
688.4731	0.014
688.6556	0.0243
688.8382	-0.017
689.0207	0.0183
689.2032	0.0213
689.3857	-0.0111
689.5681	0.0167
689.7506	0.0325
689.933	-0.025
690.1154	0.043
690.2978	-0.0007
690.4802	0.0136
690.6626	0.0228
690.8449	0.0104
691.0272	0.0179
691.2095	-0.016
691.3918	0.0131
691.5741	0.0375
691.7563	0.0282
691.9386	0.0115
692.1208	0.0028
692.303	0.0165
692.4852	0.0148
692.6673	0.0024
692.8495	-0.0122
693.0316	0.0054
693.2137	0.0174
693.3958	0.0308
693.5778	0.0196
693.7599	0.0044
693.9419	0.0064
694.1239	0.0161
694.3059	0.0225
694.4879	0.0017
694.6699	-0.013
694.8518	0.0167
695.0337	0.0255
695.2157	0.0276
695.3975	0.0088
695.5794	0.0133
695.7613	0.0175
695.9431	-0.0161
696.1249	0.0199
696.3067	0.0001
696.4885	0.0149
696.6703	0.0181
696.852	-0.0007
697.0337	0.0355
697.2154	-0.0003
697.3971	0.0284
697.5788	0.017
697.7605	0.0047
697.9421	0.028
698.1237	0.025
698.3053	-0.0181
698.4869	0.0082
698.6685	0.0049
698.85	0.0263
699.0315	-0.0125
699.213	0.01
699.3945	-0.0069
699.576	0.0373
699.7575	0.0187
699.9389	-0.0061
700.1203	0.0156
700.3017	0.0145
700.4831	0.0229
700.6645	0.0284
700.8458	0.0077
701.0271	0.0431
701.2084	0.0084
701.3897	0.0326
701.571	0.0384
701.7523	0.0286
701.9335	0.0289
702.1147	0.0215
702.2959	0.01
702.4771	0.007
702.6583	0.003
702.8394	-0.0155
703.0205	0.0322
703.2016	-0.006
703.3827	0.004
703.5638	0.0089
703.7449	0.0311
703.9259	0.0037
704.1069	0.0092
704.2879	0.0263
704.4689	0.0108
704.6499	0.0188
704.8308	0.023
705.0117	0.011
705.1927	0.0167
705.3735	0.0383
705.5544	0.0088
705.7353	0.0146
705.9161	-0.0192
706.0969	0.0115
706.2777	0.0046
706.4585	-0.0013
706.6393	0.0163
706.82	0.0193
707.0007	0.0138
707.1815	-0.0001
707.3621	0.0182
707.5428	0.0285
707.7235	0.0093
707.9041	-0.0002
708.0847	0.0187
708.2653	0.0288
708.4459	0.0137
708.6265	-0.0036
708.807	0.0134
708.9875	0.0105
709.168	0.0174
709.3485	0.028
709.529	0.0245
709.7095	-0.0141
709.8899	-0.0044
710.0703	0.022
710.2507	0.0303
710.4311	-0.0193
710.6115	0.013
710.7918	0.0392
710.9721	-0.0057
711.1524	-0.0126
711.3327	0.0149
711.513	0.0185
711.6932	-0.002
711.8735	0.035
712.0537	-0.0256
712.2339	0.028
712.4141	0.0103
712.5942	-0.0071
712.7744	0.0211
712.9545	0.0085
713.1346	0.0246
713.3147	0.0063
713.4947	0.0034
713.6748	0.0132
713.8548	0.0224
714.0348	0.0084
714.2148	0.0328
714.3948	0.0114
714.5748	0.028
714.7547	0.0264
714.9346	0.0241
715.1145	0.0098
715.2944	-0.0173
715.4743	0.0183
715.6541	-0.0003
715.834	0.0261
716.0138	0.0211
716.1936	0.0093
716.3733	0.0032
716.5531	0.0089
716.7328	0.0236
716.9126	0.0042
717.0923	-0.0152
717.2719	0.0268
717.4516	0.0045
717.6312	0.0081
717.8109	0.0224
717.9905	0.029
718.1701	0.0247
718.3496	0.0001
718.5292	0.0089
718.7087	0.008
718.8882	0.0301
719.0677	0.0094
719.2472	-0.007
719.4267	0.0031
719.6061	-0.0071
719.7856	0.0343
719.965	-0.0094
720.1443	-0.0065
720.3237	0.0013
720.5031	0.0017
720.6824	-0.0021
720.8617	0.0157
721.041	0.021
721.2203	-0.028
721.3995	-0.0082
721.5788	0.0186
721.758	0.028
721.9372	0.0124
722.1164	-0.0208
722.2956	0.0108
722.4747	0.0153
722.6538	0.0298
722.8329	0.043
723.012	0.0242
723.1911	0.0245
723.3702	0.0069
723.5492	0.0136
723.7282	0.008
723.9072	0.0564
724.0862	0.0115
724.2652	-0.0096
724.4441	0.0202
724.623	0.0493
724.8019	0.0277
724.9808	0.0229
725.1597	-0.0023
725.3385	0.0069
725.5174	0.0073
725.6962	0.0028
725.875	0.0118
726.0538	-0.0002
726.2325	0.0261
726.4112	-0.0142
726.59	-0.0045
726.7687	-0.0023
726.9474	0.0337
727.126	0.0423
727.3047	-0.0111
727.4833	0.0253
727.6619	-0.0115
727.8405	0.0119
728.0191	0.0403
728.1976	0.0324
728.3762	0.0188
728.5547	-0.0071
728.7332	0.0095
728.9116	0.0008
729.0901	0.0122
729.2686	0.0058
729.447	-0.0008
729.6254	0.02
729.8038	0.0129
729.9821	-0.0065
730.1605	0.0078
730.3388	0.0093
730.5171	0.0436
730.6954	-0.0129
730.8737	0.0127
731.0519	0.0117
731.2302	0.0175
731.4084	-0.0108
731.5866	0.0083
731.7648	0.0116
731.9429	0.0127
732.1211	-0.0052
732.2992	0.0018
732.4773	0.0075
732.6554	-0.0187
732.8335	0.0369
733.0115	0.0287
733.1896	0.0093
733.3676	0.0262
733.5456	0.0128
733.7235	-0.0076
733.9015	0.0184
734.0794	0.0183
734.2574	-0.0029
734.4353	0.0215
734.6131	-0.0013
734.791	-0.0175
734.9689	0.0029
735.1467	-0.0076
735.3245	0.0235
735.5023	0.0039
735.68	0.0048
735.8578	0.0104
736.0355	0.0318
736.2132	0.0111
736.3909	0.0174
736.5686	0.0159
736.7463	-0.0057
736.9239	0.0383
737.1015	-0.0141
737.2791	0.0314
737.4567	0.0078
737.6343	-0.0027
737.8118	0.0285
737.9894	-0.0116
738.1669	0.0061
738.3444	0.0291
738.5218	-0.0091
738.6993	0.0354
738.8767	0.0151
739.0541	-0.0073
739.2315	-0.002
739.4089	0.0341
739.5863	0.0027
739.7636	0.0078
739.9409	0.0271
740.1182	0.0005
740.2955	0.0099
740.4728	-0.0003
740.65	0.0187
740.8272	0.0218
741.0044	-0.0128
741.1816	0.0177
741.3588	-0.0178
741.5359	-0.0068
741.7131	0.0275
741.8902	0.0275
742.0673	0.0055
742.2444	0.0164
742.4214	0.0385
742.5985	-0.0024
742.7755	0.0214
742.9525	-0.0459
743.1295	-0.0253
743.3064	0.0095
743.4834	0.02
743.6603	0.0504
743.8372	-0.0357
744.0141	0.0476
744.191	0.0174
744.3678	-0.0227
744.5446	0.0219
744.7215	0.0178
744.8982	0.0137
745.075	0.048
745.2518	0.0215
745.4285	0.0221
745.6052	-0.0237
745.7819	-0.015
745.9586	0.0339
746.1353	-0.0236
746.3119	-0.0064
746.4885	0.028
746.6651	0.0177
746.8417	-0.007
747.0183	0.055
747.1948	0.0027
747.3714	0.0025
747.5479	0.0305
747.7244	0.0198
747.9008	-0.0075
748.0773	0.0507
748.2537	0.0153
748.4301	0.0345
748.6065	0.0011
748.7829	-0.0146
748.9593	0.0051
749.1356	0.0084
749.3119	0.0297
749.4882	0.028
749.6645	-0.0291
749.8408	0.0232
750.017	0.001
750.1933	-0.0145
750.3695	0.026
750.5457	-0.0002
750.7218	0.0085
750.898	-0.0072
751.0741	0.0363
751.2502	0.0098
751.4263	0.0077
751.6024	0.0043
751.7784	-0.0089
751.9545	0.0012
752.1305	0.0101
752.3065	0.0262
752.4825	0.0127
752.6584	0.0177
752.8344	0.0023
753.0103	0.0026
753.1862	0.0172
753.3621	0.0087
753.5379	0.0018
753.7138	0.0097
753.8896	0.0079
754.0654	-0.0125
754.2412	0.0328
754.417	0.0267
754.5927	0.0129
754.7685	0.0202
754.9442	0.0261
755.1199	0.0434
755.2956	0.001
755.4712	0.0064
755.6469	0.0007
755.8225	0.0001
755.9981	0.0195
756.1736	-0.0009
756.3492	0.0112
756.5248	0.0207
756.7003	0.0098
756.8758	0.0089
757.0513	-0.0051
757.2267	0.018
757.4022	0.0055
757.5776	0.0061
757.753	0.0227
757.9284	0.0023
758.1038	0.0248
758.2791	0.0079
758.4545	-0.0188
758.6298	0.0231
758.8051	0.0203
758.9803	0.0068
759.1556	0.0056
759.3308	-0.0082
759.506	-0.0028
759.6812	0.0031
759.8564	0.0068
760.0316	-0.0026
760.2067	0.0262
760.3819	0.0033
760.557	-0.0122
760.732	0.0206
760.9071	0.0242
761.0821	0.0054
761.2572	0.0133
761.4322	0.0088
761.6072	0.0032
761.7821	-0.0255
761.9571	0.0188
762.132	0.0017
762.3069	0.0254
762.4818	0.0152
762.6567	0.0273
762.8316	-0.0006
763.0064	0.0266
763.1812	0.0148
763.356	-0.0137
763.5308	0.0201
763.7055	0.0127
763.8803	0.0094
764.055	-0.0032
764.2297	-0.0072
764.4044	0.0124
764.579	-0.0031
764.7537	-0.0016
764.9283	0.0293
765.1029	0.0122
765.2775	0.0032
765.4521	-0.0033
765.6266	0.0042
765.8011	0.0011
765.9756	0.0299
766.1501	0.0099
766.3246	0.021
766.4991	-0.0013
766.6735	0.0607
766.8479	0.0148
767.0223	-0.0106
767.1967	0.0228
767.371	-0.0014
767.5454	0.0212
767.7197	0.0409
767.894	0.0315
768.0683	0.0376
768.2425	0.0213
768.4168	0.015
768.591	-0.0133
768.7652	-0.0154
768.9394	-0.0175
769.1135	0.0107
769.2877	0.0124
769.4618	0.0197
769.6359	-0.0065
769.81	-0.0027
769.984	0.0028
770.1581	-0.0002
770.3321	0.027
770.5061	-0.0027
770.6801	0.0272
770.8541	0.0127
771.028	0.0619
771.202	0.0318
771.3759	0.0187
771.5498	0.0242
771.7236	0.0106
771.8975	0.0212
772.0713	0.0237
772.2451	-0.0095
772.4189	-0.0037
772.5927	-0.0009
772.7665	0.0067
772.9402	0.0442
773.1139	-0.0161
773.2876	0.0068
773.4613	0.0204
773.635	0.0765
773.8086	0.0239
773.9822	0.0524
774.1558	0.0514
774.3294	0.0211
774.503	0.0237
774.6765	0.0291
774.8501	0.0205
775.0236	0.0361
775.1971	0.0222
775.3705	0.0317
775.544	-0.0247
775.7174	0.0229
775.8908	-0.0325
776.0642	0.0582
776.2376	0.0534
776.4109	0.0277
776.5843	-0.027
776.7576	-0.0106
776.9309	-0.0006
777.1041	-0.0272
777.2774	0.0137
777.4506	-0.0082
777.6238	0.0164
777.797	0.0189
777.9702	0.0028
778.1434	0.0002
778.3165	-0.0071
778.4896	-0.0046
778.6627	0.0151
778.8358	-0.0038
779.0089	-0.0186
779.1819	0.0331
779.3549	0.0031
779.5279	-0.0075
779.7009	0.0593
779.8739	0.0424
780.0468	-0.0026
780.2197	0.0103
780.3926	0.0022
780.5655	-0.0089
780.7384	-0.0075
780.9112	0.0238
781.0841	0.0191
781.2569	0.0083
781.4297	0.023
781.6024	0.0288
781.7752	0.0249
781.9479	0.0267
782.1206	0.0103
782.2933	0.0362
782.466	0.0226
782.6386	-0.0055
782.8113	0.0309
782.9839	0.0268
783.1565	0.0007
783.329	-0.0185
783.5016	0.0266
783.6741	-0.0083
783.8466	0.0273
784.0191	-0.0018
784.1916	-0.0137
784.3641	-0.0181
784.5365	0.0087
784.7089	-0.0358
784.8813	0.0791
785.0537	0.0099
785.2261	-0.0049
785.3984	0.0214
785.5707	0.0092
785.743	0.0794
785.9153	0.0055
786.0876	-0.0299
786.2598	0.032
786.432	0.0279
786.6042	0.04
786.7764	-0.0394
786.9486	0.0016
787.1207	0.0396
787.2928	0.064
787.4649	-0.0036
787.637	0.0164
787.8091	0.0426
787.9811	0.0364
788.1532	0.0268
788.3252	0.0488
788.4972	0.0136
788.6691	0.0151
788.8411	0.0026
789.013	0.0046
789.1849	0.0311
789.3568	0.053
789.5287	0.0381
789.7005	-0.0342
789.8723	-0.0234
790.0442	-0.0477
790.2159	0.0484
790.3877	0.0384
790.5595	0.0372
790.7312	0.0115
790.9029	-0.0398
791.0746	0.0598
791.2463	-0.0299
791.4179	0.039
791.5896	0.0526
791.7612	0.0271
791.9328	0.0577
792.1044	0.0899
792.2759	0.0004
792.4474	-0.0031
792.619	0.0484
792.7905	0.0435
792.9619	0.0797
793.1334	0.1255
793.3048	0.0565
793.4762	0.0308
793.6476	-0.0029
793.819	0.0009
793.9904	-0.0147
794.1617	0.0027
794.333	0.0049
794.5043	0.05
794.6756	0.0209
794.8469	0.0113
795.0181	0.0021
795.1893	0.0538
795.3605	0.0398
795.5317	-0.0045
795.7029	0.0045
795.874	0.0603
796.0452	0.0222
796.2163	0.0307
796.3873	0.071
796.5584	0.0953
796.7294	0.0219
796.9005	-0.032
797.0715	-0.0088
797.2425	0.1111
797.4134	0.0567
797.5844	0.0573
797.7553	0.012
797.9262	0.019
798.0971	0.026
798.2679	-0.0323
798.4388	0.0766
798.6096	0.0604
798.7804	0.0521
798.9512	0.0485
799.122	0.0283
799.2927	0.0398
799.4635	-0.0486
799.6342	-0.0305
799.8049	0.088
799.9755	0.0188
800.1462	0.0667
800.3168	0.1157
800.4874	-0.0678
800.658	0.0979
800.8286	0.0036
800.9991	0.0383
801.1696	-0.0236
801.3402	0.0088
801.5106	0.0358
801.6811	0.0804
801.8516	0.0812
802.022	-0.0178
802.1924	-0.0035
802.3628	0.0921
802.5332	0.0826
802.7035	0.1876
802.8739	0.0105
803.0442	-0.0123
803.2145	0.127
803.3847	0.0377
803.555	0.0848
803.7252	0.0132
803.8954	0.019
804.0656	0.0035
804.2358	0.0761
804.4059	0.0567
804.5761	0.1124
804.7462	-0.0606
804.9163	0.0005
805.0864	0.0202
805.2564	0.0659
805.4264	0.026
805.5965	0.0311
805.7665	-0.0683
805.9364	0.0677
806.1064	0.0087
806.2763	0.0216
806.4462	0.04
806.6161	0.0604
806.786	0.0569
806.9559	0.0476
807.1257	0.0116
807.2955	-0.0052
807.4653	0.0577
807.6351	0.0942
807.8048	-0.0485
807.9746	0.0734
808.1443	0.043
808.314	0.0486
808.4837	0.0548
808.6533	-0.001
808.8229	0.0894
808.9926	0.054
809.1622	0.0527
809.3317	0.0058
809.5013	0.0429
809.6708	-0.0406
809.8403	0.0688
810.0098	0.1423
810.1793	0.0311
810.3488	0.0855
810.5182	0.1661
810.6876	0.0328
810.857	-0.008
811.0264	0.0189
811.1958	0.226
811.3651	-0.0108
811.5344	0.1393
811.7037	0.0297
811.873	0.1062
812.0422	-0.0642
812.2115	-0.0393
812.3807	-0.1028
812.5499	-0.0482
812.7191	0.1667
812.8882	-0.1093
813.0574	0.1273
813.2265	0.0719
813.3956	0.1064
813.5646	0.1173
813.7337	0.0097
813.9027	-0.0965
814.0718	0.0449
814.2407	0.0608
814.4097	0.1412
814.5787	0.084
814.7476	0.0338
814.9165	0.0969
815.0854	0.0044
815.2543	0.1247
815.4232	0.1404
815.592	0.1091
815.7608	-0.1334
815.9296	0.0513
816.0984	0.0739
816.2671	-0.1334
816.4359	0.0434
816.6046	0.0924
816.7733	0.064
816.942	-0.0905
817.1106	0.2238
817.2793	0.0499
817.4479	0.0894
817.6165	0.0805
817.785	0.1021
817.9536	0.0297
818.1221	0.1268
818.2906	0.0218
818.4591	0.2149
818.6276	0.0612
818.7961	0.0206
818.9645	0.1273
819.1329	0.25
819.3013	-0.1132
819.4697	0.0998
819.638	0.0441
819.8064	0.0497
819.9747	0.0388
820.143	-0.051
820.3113	-0.0437
820.4795	0.0949
820.6477	0.1317
820.816	0.0908
820.9842	0.1557
821.1523	0.1201
821.3205	0.0257
821.4886	0.0111
821.6567	-0.1417
821.8248	0.1517
821.9929	-0.1808
822.1609	-0.025
822.329	0.0753
822.497	0.0789
822.665	0.2583
822.833	0.1585
823.0009	-0.082
823.1688	0.3853
823.3367	-0.1101
823.5046	-0.0152
823.6725	0.0352
823.8404	0.0419
824.0082	0.1041
824.176	-0.101
824.3438	0.5333
824.5116	0.1018
824.6793	0.1726
824.847	0.0855
825.0147	0.0073
825.1824	0.196
825.3501	0.2539
825.5177	0.1212
825.6854	0.0067
825.853	0.0118
826.0206	-0.0625
826.1881	0.068
826.3557	0.1005
826.5232	0.2301
826.6907	0.165
826.8582	-0.0875
827.0257	0.2821
827.1931	0.1964
827.3605	0.0209
827.528	0.0123
827.6953	-0.1688
827.8627	0.2826
828.03	0.1452
828.1974	0.1571
828.3647	0.0843
828.532	0.1443
828.6992	0.0242
828.8665	0.2548
829.0337	0.1639
829.2009	-0.0217
829.3681	0.0273
829.5352	-0.4056
829.7024	0.0574
829.8695	0.1085
830.0366	0.2233
830.2037	0.2434
830.3707	0.0825
830.5378	0.2029
830.7048	-0.1436
830.8718	0.8487
831.0388	0.0528
831.2057	-0
831.3727	-0.3501
831.5396	0.0215
831.7065	-0.9606
831.8734	0.2377
832.0402	0.2769
832.2071	-0.5516
832.3739	0.3917
832.5407	-0
832.7075	-0.3756
832.8742	0.4526
833.041	0.0539
833.2077	0.1015
833.3744	0.2406
833.541	0.1064
833.7077	0.1002
833.8743	0.3056
834.0409	0.0293
834.2075	0.1884
834.3741	0.2068
834.5407	0.204
834.7072	0.1154
834.8737	0.1209
835.0402	0.6618
835.2067	-0.1036
835.3731	0.2138
835.5395	0.0961
835.706	0.1782
835.8723	0.6559
836.0387	0.4402
836.2051	0.0366
836.3714	0.0307
836.5377	-0.1987
836.704	0.1463
836.8703	-0.2231
837.0365	-0.331
837.2027	0.1432
837.3689	0.497
837.5351	0.2879
837.7013	0.4285
837.8674	0.3032
838.0335	0.0817
838.1997	0.2906
838.3657	0.9873
838.5318	-0.054
838.6978	0.4748
838.8639	-0.0782
839.0299	0.5189
839.1958	0.1292
839.3618	0.3297
839.5277	-0.1517
839.6937	0.7586
839.8596	0.0372
840.0254	0.3461
840.1913	0.4245
840.3571	-0.0704
840.523	-0.8195
840.6888	-0.0664
840.8545	-0.0729
841.0203	0.0018
841.186	0.3168
841.3517	0.1464
841.5174	0.5146
841.6831	0.2295
841.8488	-0.1021
842.0144	0.3427
842.18	-0
842.3456	-0.5926
842.5112	-0
842.6767	1.2705
842.8422	0.4285
843.0077	0.061
843.1732	-0
843.3387	-0
843.5042	-0
843.6696	0.0714
843.835	0.328
844.0004	-0.2296
844.1657	-0
844.3311	0.1415
844.4964	0.1378
844.6617	-0
844.827	-0
844.9923	0.5012
845.1575	-0.1156
845.3227	-0.3019
845.4879	-0
845.6531	0.0218
845.8183	-0
845.9834	-0.0067
846.1485	0.7683
846.3136	-0.3401
846.4787	-0.1665
846.6438	0.5469
846.8088	-0
846.9738	-0
847.1388	0.7562
847.3038	0.106
847.4687	-0
847.6337	-0
847.7986	0.1791
847.9635	-0.1494
848.1284	-0
848.2932	0.0269
848.458	-0
848.6228	-0
848.7876	-0
848.9524	-0
849.1172	-1.8388
849.2819	-0
849.4466	0.3887
849.6113	-0
849.7759	-0
849.9406	0.1883
850.1052	-0
850.2698	0.299
850.4344	-0.615
850.599	2.1015
850.7635	-0.0461
850.928	0.9924
851.0925	1.0406
851.257	-0
851.4215	-0
851.5859	0.49
851.7503	-0
851.9147	-0
852.0791	-0.1172
852.2434	0.3148
852.4078	-0
852.5721	0.2927
852.7364	0.1382
852.9007	0.1242
853.0649	-0
853.2291	0.0856
853.3934	-0.6393
853.5575	0.0039
853.7217	-0
853.8859	-0
854.05	0.1939
854.2141	1.6782
854.3782	-0.0869
854.5423	-0.1022
854.7063	0.0635
854.8703	0.358
855.0343	-0.0831
855.1983	1.1319
855.3623	-0
855.5262	-0.0803
855.6901	0.2722
855.854	0.5604
856.0179	-0.1187
856.1818	0.1145
856.3456	1.0006
856.5094	-0
856.6732	-0
856.837	-1.3379
857.0008	-0
857.1645	-0.1104
857.3282	-0.1206
857.4919	0.2103
857.6556	0.0342
857.8192	-0.2237
857.9828	0.0915
858.1465	0.4039
858.31	0.0642
858.4736	-0.5816
858.6372	-0
858.8007	0.4507
858.9642	0.2737
859.1277	0.826
859.2911	-0.5085
859.4546	-0
859.618	2.3311
859.7814	0.0909
859.9448	0.2089
860.1081	-0.3876
860.2715	-0
860.4348	-0
860.5981	0.356
860.7614	-0
860.9246	0.0043
861.0879	0.4642
861.2511	-0.2969
861.4143	-0
861.5774	-0
861.7406	-0
861.9037	-0.6232
862.0668	-0.6662
862.2299	-0
862.393	-0
862.556	-0
862.7191	0.0388
862.8821	0.2105
863.0451	0.3917
863.208	-0
863.371	-0.649
863.5339	0.9518
863.6968	-0
863.8597	-0
864.0225	0.6851
864.1854	-0.2177
864.3482	-0
864.511	-0
864.6737	-0.2293
864.8365	0.0906
864.9992	-0
865.1619	-0.4908
865.3246	-2.1981
865.4873	-0.6794
865.65	0.4437
865.8126	-0
865.9752	0.3799
866.1378	-0.1557
866.3004	-0
866.4629	-1.2852
866.6254	-0.2635
866.7879	-0
866.9504	-0
867.1129	-0
867.2753	-0.0283
867.4377	-0.1898
867.6001	-0.6631
867.7625	0.0629
867.9249	1.2569
868.0872	-0
868.2495	-0
868.4118	-0
868.5741	-0
868.7363	-1.2354
868.8986	-0.4123
869.0608	-0
869.223	-0.6323
869.3851	-0
869.5473	1.3518
869.7094	-0
869.8715	-0.3061
870.0336	-0.0594
870.1957	-0
870.3577	-0
870.5197	0.0646
870.6817	0.3066
870.8437	-0.265
871.0057	0.2017
871.1676	1.087
871.3295	-0.0778
871.4914	-0
871.6533	-0
871.8151	0.413
871.977	0.1819
872.1388	0.496
872.3006	-0.494
872.4623	-0.3038
872.6241	-0
872.7858	-0
872.9475	0.1516
873.1092	-0.189
873.2709	1.035
873.4325	-1.4953
873.5941	-0.5833
873.7557	-0
873.9173	0.8427
874.0789	1.4156
874.2404	-0
874.4019	0.272
874.5634	0.6425
874.7249	-0
874.8863	-0.2742
875.0478	-0.123
875.2092	-0
875.3706	0.1743
875.5319	-0
875.6933	-0
875.8546	-0.3833
876.0159	0.1588
876.1772	-0
876.3385	-0
876.4997	-0
876.6609	0.8607
876.8221	-0
876.9833	-0.2377
877.1445	0.4965
877.3056	-0
877.4667	-0.9399
877.6278	0.4039
877.7889	0.1904
877.9499	-0
878.111	0.4437
878.272	-0
878.433	0.2504
878.5939	-0
878.7549	-0
878.9158	-0
879.0767	-0.4211
879.2376	-0
879.3984	0.8016
879.5593	0.9198
879.7201	-0.331
879.8809	-0
880.0417	-0.1494
880.2024	0.6667
880.3632	0.1474
880.5239	0.9876
880.6846	-0.1545
880.8452	-0.2805
881.0059	-0
881.1665	-0.1623
881.3271	0.3004
881.4877	2.2974
881.6483	-1.4897
881.8088	-0.0561
881.9693	-1.1658
882.1298	-1.1658
882.2903	-1.1658
