Data from D4ACN5uM440nmA_Absorbance_13-50-25-183.txt Node
Date: Fri Feb 21 13:50:25 GMT 2025
User: LASERRRRR
Spectrometer: FLMT03099
Trigger mode: 0
Integration Time (sec): 1.500000E-2
Scans to average: 1
Electric dark correction enabled: true
Nonlinearity correction enabled: false
Boxcar width: 0
XAxis mode: Wavelengths
Number of Pixels in Spectrum: 3648
>>>>>Begin Spectral Data<<<<<
179.3399	-0.5973
179.5586	-0.5973
179.7771	-0.5973
179.9957	0.4063
180.2143	-1.2755
180.4329	0.0763
180.6514	-0.7639
180.8699	-0.226
181.0885	0.1513
181.307	0.7458
181.5255	0.4253
181.744	-0
181.9625	0.1002
182.181	-0
182.3994	-0
182.6179	-0
182.8363	-0
183.0547	0.0462
183.2732	0.0799
183.4916	0.2603
183.71	0.1171
183.9284	0.1075
184.1467	0.6743
184.3651	0.1435
184.5835	0.1539
184.8018	-0.0375
185.0201	0.0752
185.2385	0.1673
185.4568	0.2997
185.6751	0.1357
185.8934	0.3331
186.1117	0.1076
186.3299	0.1503
186.5482	0.1031
186.7664	0.2993
186.9847	-0.1527
187.2029	0.4313
187.4211	-0.0051
187.6393	0.0316
187.8575	0.3424
188.0757	0.2026
188.2939	0.1707
188.512	0.1988
188.7302	0.1112
188.9483	0.5959
189.1665	0.7248
189.3846	0.1637
189.6027	0.175
189.8208	0.1421
190.0389	0.2216
190.257	0.1279
190.475	0.0877
190.6931	0.2239
190.9111	0.091
191.1292	0.1129
191.3472	0.1109
191.5652	0.2041
191.7832	0.3802
192.0012	0.2679
192.2192	0.2262
192.4371	0.2217
192.6551	0.1492
192.873	0.2027
193.091	0.1726
193.3089	0.2343
193.5268	0.2201
193.7447	0.1998
193.9626	0.2918
194.1805	0.2326
194.3984	0.2801
194.6162	0.3079
194.8341	0.3526
195.0519	0.2494
195.2697	0.2606
195.4875	0.3541
195.7054	0.2837
195.9231	0.208
196.1409	0.3403
196.3587	0.2804
196.5765	0.3253
196.7942	0.3878
197.012	0.357
197.2297	0.3287
197.4474	0.3636
197.6651	0.3615
197.8828	0.3419
198.1005	0.3905
198.3182	0.4547
198.5358	0.374
198.7535	0.363
198.9711	0.4448
199.1888	0.3407
199.4064	0.3982
199.624	0.3815
199.8416	0.408
200.0592	0.3733
200.2767	0.3758
200.4943	0.4637
200.7119	0.4172
200.9294	0.4233
201.1469	0.42
201.3645	0.4327
201.582	0.4226
201.7995	0.4709
202.017	0.4138
202.2344	0.4319
202.4519	0.4031
202.6694	0.4277
202.8868	0.3767
203.1042	0.4148
203.3217	0.4231
203.5391	0.3818
203.7565	0.3622
203.9739	0.3888
204.1913	0.3513
204.4086	0.3111
204.626	0.3802
204.8433	0.3702
205.0607	0.3907
205.278	0.3413
205.4953	0.3145
205.7126	0.3523
205.9299	0.324
206.1472	0.345
206.3644	0.3451
206.5817	0.3293
206.7989	0.3322
207.0162	0.313
207.2334	0.3313
207.4506	0.2873
207.6678	0.3239
207.885	0.2987
208.1022	0.2928
208.3194	0.3152
208.5365	0.3206
208.7537	0.3187
208.9708	0.293
209.1879	0.2862
209.405	0.2697
209.6222	0.279
209.8392	0.2995
210.0563	0.281
210.2734	0.2834
210.4905	0.2763
210.7075	0.2803
210.9245	0.2973
211.1416	0.288
211.3586	0.2664
211.5756	0.2655
211.7926	0.2695
212.0096	0.2521
212.2265	0.2437
212.4435	0.2657
212.6604	0.2381
212.8774	0.242
213.0943	0.2771
213.3112	0.2308
213.5281	0.2752
213.745	0.2253
213.9619	0.2433
214.1788	0.2693
214.3956	0.2422
214.6125	0.2483
214.8293	0.2558
215.0461	0.239
215.2629	0.2548
215.4798	0.2544
215.6965	0.245
215.9133	0.234
216.1301	0.2567
216.3469	0.2486
216.5636	0.2387
216.7803	0.2475
216.9971	0.2477
217.2138	0.2546
217.4305	0.2435
217.6472	0.248
217.8639	0.263
218.0805	0.2695
218.2972	0.2399
218.5138	0.2518
218.7305	0.2655
218.9471	0.2519
219.1637	0.2658
219.3803	0.2599
219.5969	0.2553
219.8135	0.2654
220.0301	0.2479
220.2466	0.2525
220.4632	0.2475
220.6797	0.2633
220.8962	0.2555
221.1127	0.2602
221.3292	0.2678
221.5457	0.2652
221.7622	0.2691
221.9787	0.2808
222.1951	0.274
222.4116	0.275
222.628	0.2886
222.8444	0.2819
223.0608	0.278
223.2772	0.2855
223.4936	0.2767
223.71	0.2938
223.9264	0.287
224.1427	0.2782
224.3591	0.2862
224.5754	0.2953
224.7917	0.3002
225.008	0.2896
225.2243	0.3023
225.4406	0.2905
225.6569	0.3019
225.8732	0.3025
226.0894	0.3064
226.3057	0.3183
226.5219	0.303
226.7381	0.3171
226.9543	0.3159
227.1705	0.317
227.3867	0.3341
227.6029	0.3228
227.8191	0.3327
228.0352	0.3403
228.2513	0.3436
228.4675	0.3363
228.6836	0.3463
228.8997	0.3395
229.1158	0.352
229.3319	0.3641
229.548	0.3601
229.764	0.355
229.9801	0.3681
230.1961	0.3791
230.4121	0.3701
230.6282	0.381
230.8442	0.3793
231.0602	0.3739
231.2761	0.3843
231.4921	0.3879
231.7081	0.3985
231.924	0.4029
232.14	0.4046
232.3559	0.4067
232.5718	0.4027
232.7877	0.4044
233.0036	0.4081
233.2195	0.4131
233.4353	0.4168
233.6512	0.4187
233.867	0.4232
234.0829	0.4157
234.2987	0.4308
234.5145	0.4276
234.7303	0.4358
234.9461	0.435
235.1619	0.4383
235.3776	0.4362
235.5934	0.4368
235.8091	0.4417
236.0249	0.4471
236.2406	0.4379
236.4563	0.4496
236.672	0.4233
236.8877	0.4515
237.1034	0.4496
237.319	0.4534
237.5347	0.4569
237.7503	0.4472
237.966	0.4577
238.1816	0.4486
238.3972	0.4524
238.6128	0.4616
238.8284	0.4649
239.0439	0.461
239.2595	0.4577
239.475	0.4567
239.6906	0.4638
239.9061	0.4598
240.1216	0.4537
240.3371	0.4532
240.5526	0.4548
240.7681	0.4538
240.9836	0.4522
241.199	0.4591
241.4145	0.4539
241.6299	0.4491
241.8453	0.4345
242.0607	0.4351
242.2761	0.4304
242.4915	0.4228
242.7069	0.4165
242.9223	0.4163
243.1376	0.4132
243.353	0.3993
243.5683	0.3916
243.7836	0.3918
243.9989	0.3771
244.2142	0.3805
244.4295	0.361
244.6448	0.366
244.86	0.3517
245.0753	0.3361
245.2905	0.3456
245.5057	0.3306
245.721	0.3367
245.9362	0.3198
246.1514	0.3173
246.3665	0.3073
246.5817	0.2975
246.7969	0.2976
247.012	0.2905
247.2271	0.2948
247.4423	0.285
247.6574	0.2827
247.8725	0.2795
248.0876	0.2664
248.3026	0.2624
248.5177	0.2558
248.7328	0.254
248.9478	0.2466
249.1628	0.2502
249.3779	0.2366
249.5929	0.2381
249.8079	0.2396
250.0228	0.2279
250.2378	0.2276
250.4528	0.2261
250.6677	0.2215
250.8827	0.217
251.0976	0.2193
251.3125	0.2162
251.5274	0.2107
251.7423	0.205
251.9572	0.212
252.172	0.2137
252.3869	0.2083
252.6017	0.2042
252.8166	0.2016
253.0314	0.1967
253.2462	0.1984
253.461	0.1964
253.6758	0.196
253.8906	0.196
254.1053	0.1916
254.3201	0.191
254.5348	0.1834
254.7496	0.1825
254.9643	0.1943
255.179	0.1795
255.3937	0.1845
255.6083	0.1927
255.823	0.1862
256.0377	0.1869
256.2523	0.1819
256.467	0.1881
256.6816	0.1781
256.8962	0.1846
257.1108	0.1845
257.3254	0.1796
257.54	0.1785
257.7545	0.1849
257.9691	0.1749
258.1836	0.1775
258.3981	0.1795
258.6127	0.1765
258.8272	0.1791
259.0417	0.1773
259.2561	0.174
259.4706	0.1774
259.6851	0.1794
259.8995	0.1762
260.114	0.1808
260.3284	0.1715
260.5428	0.1768
260.7572	0.1769
260.9716	0.1816
261.186	0.1694
261.4003	0.1767
261.6147	0.1783
261.829	0.1818
262.0433	0.178
262.2577	0.1732
262.472	0.1806
262.6863	0.1831
262.9005	0.1777
263.1148	0.1717
263.3291	0.1836
263.5433	0.1814
263.7576	0.1799
263.9718	0.1773
264.186	0.1769
264.4002	0.1758
264.6144	0.1887
264.8286	0.1797
265.0427	0.1853
265.2569	0.1841
265.471	0.1784
265.6851	0.1832
265.8993	0.1791
266.1134	0.1786
266.3275	0.1869
266.5415	0.1858
266.7556	0.181
266.9697	0.1848
267.1837	0.1806
267.3978	0.1795
267.6118	0.1758
267.8258	0.182
268.0398	0.1762
268.2538	0.1836
268.4677	0.1747
268.6817	0.1772
268.8957	0.1738
269.1096	0.1732
269.3235	0.1722
269.5374	0.1784
269.7514	0.1764
269.9652	0.17
270.1791	0.1738
270.393	0.1763
270.6068	0.1738
270.8207	0.1675
271.0345	0.1715
271.2483	0.1694
271.4622	0.1774
271.676	0.1691
271.8897	0.1729
272.1035	0.1825
272.3173	0.1731
272.531	0.1719
272.7448	0.1696
272.9585	0.1658
273.1722	0.1685
273.3859	0.1723
273.5996	0.1743
273.8133	0.1767
274.0269	0.1706
274.2406	0.1726
274.4542	0.1746
274.6679	0.1751
274.8815	0.18
275.0951	0.1796
275.3087	0.1808
275.5223	0.1778
275.7358	0.1801
275.9494	0.1764
276.1629	0.1853
276.3765	0.1792
276.59	0.1795
276.8035	0.1769
277.017	0.1789
277.2305	0.1811
277.444	0.1836
277.6574	0.181
277.8709	0.1843
278.0843	0.1799
278.2978	0.1826
278.5112	0.1799
278.7246	0.1819
278.938	0.1831
279.1513	0.1785
279.3647	0.1773
279.5781	0.1765
279.7914	0.1811
280.0047	0.1796
280.2181	0.1846
280.4314	0.1786
280.6447	0.1864
280.8579	0.1753
281.0712	0.1808
281.2845	0.18
281.4977	0.1841
281.711	0.1779
281.9242	0.1813
282.1374	0.1835
282.3506	0.1884
282.5638	0.181
282.7769	0.1728
282.9901	0.1852
283.2033	0.1837
283.4164	0.1792
283.6295	0.1828
283.8426	0.1782
284.0557	0.1896
284.2688	0.1821
284.4819	0.1751
284.695	0.187
284.908	0.175
285.1211	0.1859
285.3341	0.1826
285.5471	0.1888
285.7601	0.1845
285.9731	0.1879
286.1861	0.1886
286.3991	0.1896
286.612	0.1864
286.825	0.1889
287.0379	0.185
287.2508	0.1859
287.4637	0.1924
287.6766	0.1855
287.8895	0.1839
288.1024	0.1907
288.3152	0.1912
288.5281	0.1838
288.7409	0.1857
288.9538	0.1912
289.1666	0.1807
289.3794	0.1901
289.5922	0.1862
289.8049	0.1927
290.0177	0.1919
290.2304	0.1878
290.4432	0.191
290.6559	0.1971
290.8686	0.1939
291.0813	0.1897
291.294	0.1895
291.5067	0.1841
291.7194	0.1888
291.932	0.1919
292.1447	0.1883
292.3573	0.1913
292.5699	0.197
292.7825	0.1899
292.9951	0.1938
293.2077	0.1895
293.4203	0.187
293.6328	0.1852
293.8454	0.1938
294.0579	0.1919
294.2704	0.1938
294.4829	0.1937
294.6954	0.1922
294.9079	0.1957
295.1204	0.1879
295.3328	0.1946
295.5453	0.2018
295.7577	0.1932
295.9701	0.1937
296.1825	0.193
296.3949	0.1855
296.6073	0.1845
296.8197	0.1895
297.0321	0.1946
297.2444	0.1882
297.4567	0.1961
297.6691	0.1967
297.8814	0.1947
298.0937	0.1928
298.306	0.194
298.5182	0.1975
298.7305	0.1913
298.9428	0.1948
299.155	0.1873
299.3672	0.1844
299.5794	0.1949
299.7916	0.1912
300.0038	0.189
300.216	0.1926
300.4282	0.1897
300.6403	0.1918
300.8525	0.1975
301.0646	0.1965
301.2767	0.193
301.4888	0.1914
301.7009	0.1912
301.913	0.1945
302.125	0.1873
302.3371	0.1907
302.5491	0.1902
302.7612	0.1956
302.9732	0.1933
303.1852	0.1951
303.3972	0.194
303.6092	0.1925
303.8211	0.1863
304.0331	0.1901
304.245	0.1862
304.457	0.187
304.6689	0.19
304.8808	0.1851
305.0927	0.1882
305.3046	0.1894
305.5164	0.1807
305.7283	0.1826
305.9401	0.1768
306.152	0.1839
306.3638	0.1791
306.5756	0.1754
306.7874	0.1742
306.9992	0.1738
307.2109	0.1702
307.4227	0.1683
307.6344	0.1763
307.8462	0.1658
308.0579	0.1767
308.2696	0.1679
308.4813	0.1717
308.693	0.1604
308.9046	0.1673
309.1163	0.1584
309.328	0.1576
309.5396	0.1576
309.7512	0.1526
309.9628	0.1544
310.1744	0.1549
310.386	0.1505
310.5976	0.1506
310.8091	0.1502
311.0207	0.1475
311.2322	0.1436
311.4437	0.1501
311.6552	0.1426
311.8667	0.1464
312.0782	0.1388
312.2897	0.1432
312.5012	0.1432
312.7126	0.138
312.924	0.142
313.1355	0.135
313.3469	0.1364
313.5583	0.1358
313.7696	0.134
313.981	0.1394
314.1924	0.128
314.4037	0.1334
314.6151	0.1298
314.8264	0.1356
315.0377	0.1242
315.249	0.1341
315.4603	0.1262
315.6716	0.1286
315.8828	0.1287
316.0941	0.1304
316.3053	0.1236
316.5165	0.1305
316.7277	0.1269
316.9389	0.129
317.1501	0.1271
317.3613	0.122
317.5724	0.123
317.7836	0.121
317.9947	0.1305
318.2058	0.1205
318.417	0.1281
318.6281	0.1203
318.8391	0.1281
319.0502	0.1252
319.2613	0.1192
319.4723	0.1181
319.6834	0.1256
319.8944	0.1249
320.1054	0.1229
320.3164	0.1198
320.5274	0.1198
320.7383	0.1303
320.9493	0.123
321.1602	0.1237
321.3712	0.1239
321.5821	0.1246
321.793	0.1292
322.0039	0.123
322.2148	0.1213
322.4257	0.1182
322.6365	0.1223
322.8474	0.1267
323.0582	0.1266
323.269	0.1268
323.4798	0.1244
323.6906	0.1244
323.9014	0.1201
324.1122	0.1221
324.3229	0.132
324.5337	0.1326
324.7444	0.1291
324.9551	0.1258
325.1658	0.1238
325.3765	0.1297
325.5872	0.1224
325.7979	0.1239
326.0085	0.1218
326.2192	0.1244
326.4298	0.1287
326.6404	0.1318
326.851	0.1204
327.0616	0.1302
327.2722	0.1325
327.4828	0.1281
327.6933	0.137
327.9039	0.1291
328.1144	0.1288
328.3249	0.1297
328.5354	0.1246
328.7459	0.1333
328.9564	0.1282
329.1669	0.135
329.3773	0.1297
329.5878	0.1347
329.7982	0.1369
330.0086	0.1279
330.219	0.1276
330.4294	0.1353
330.6398	0.1338
330.8502	0.129
331.0605	0.132
331.2708	0.1287
331.4812	0.1354
331.6915	0.1329
331.9018	0.1398
332.1121	0.1412
332.3224	0.1403
332.5326	0.1355
332.7429	0.1352
332.9531	0.136
333.1633	0.134
333.3735	0.1302
333.5837	0.1355
333.7939	0.1345
334.0041	0.1379
334.2143	0.1343
334.4244	0.1471
334.6346	0.1332
334.8447	0.1375
335.0548	0.1404
335.2649	0.1365
335.475	0.1399
335.685	0.1415
335.8951	0.1342
336.1051	0.1469
336.3152	0.1433
336.5252	0.1359
336.7352	0.1347
336.9452	0.1384
337.1552	0.1428
337.3652	0.1338
337.5751	0.137
337.7851	0.1384
337.995	0.1433
338.2049	0.1373
338.4148	0.1424
338.6247	0.1386
338.8346	0.1413
339.0445	0.1437
339.2543	0.1434
339.4642	0.14
339.674	0.1335
339.8838	0.146
340.0936	0.1388
340.3034	0.1412
340.5132	0.1368
340.7229	0.1389
340.9327	0.1544
341.1424	0.1413
341.3522	0.1391
341.5619	0.1471
341.7716	0.1431
341.9813	0.1459
342.1909	0.1493
342.4006	0.1518
342.6102	0.1498
342.8199	0.1512
343.0295	0.1427
343.2391	0.143
343.4487	0.1481
343.6583	0.1548
343.8679	0.1485
344.0774	0.154
344.287	0.1501
344.4965	0.1551
344.706	0.1561
344.9155	0.1546
345.125	0.1523
345.3345	0.1691
345.544	0.168
345.7534	0.1599
345.9629	0.1675
346.1723	0.1597
346.3817	0.1593
346.5911	0.1662
346.8005	0.1711
347.0099	0.1613
347.2193	0.1677
347.4286	0.1758
347.638	0.1647
347.8473	0.1733
348.0566	0.1662
348.2659	0.1667
348.4752	0.1647
348.6845	0.1653
348.8937	0.1645
349.103	0.1741
349.3122	0.1716
349.5214	0.1742
349.7306	0.1761
349.9398	0.1689
350.149	0.1678
350.3582	0.1715
350.5674	0.1743
350.7765	0.1791
350.9856	0.1694
351.1948	0.1735
351.4039	0.1783
351.613	0.1758
351.822	0.1789
352.0311	0.1761
352.2402	0.1769
352.4492	0.1759
352.6582	0.1786
352.8672	0.1781
353.0762	0.1812
353.2852	0.1824
353.4942	0.1811
353.7032	0.189
353.9121	0.1846
354.1211	0.1826
354.33	0.183
354.5389	0.186
354.7478	0.18
354.9567	0.1879
355.1655	0.1756
355.3744	0.1859
355.5833	0.186
355.7921	0.1944
356.0009	0.1915
356.2097	0.1782
356.4185	0.1814
356.6273	0.1883
356.8361	0.1854
357.0448	0.1892
357.2536	0.1868
357.4623	0.1901
357.671	0.1941
357.8797	0.1947
358.0884	0.1909
358.2971	0.1907
358.5057	0.1947
358.7144	0.1999
358.923	0.2004
359.1316	0.1972
359.3402	0.2032
359.5488	0.1904
359.7574	0.2006
359.966	0.1953
360.1746	0.2005
360.3831	0.2036
360.5916	0.2107
360.8002	0.2104
361.0087	0.2089
361.2172	0.2079
361.4256	0.2041
361.6341	0.203
361.8426	0.2132
362.051	0.2119
362.2594	0.2099
362.4678	0.209
362.6762	0.2139
362.8846	0.2138
363.093	0.2077
363.3014	0.2207
363.5097	0.2167
363.718	0.222
363.9264	0.2208
364.1347	0.2095
364.343	0.2225
364.5513	0.2219
364.7595	0.2298
364.9678	0.2175
365.176	0.2227
365.3842	0.2268
365.5925	0.225
365.8007	0.2272
366.0089	0.2394
366.217	0.2352
366.4252	0.2304
366.6333	0.2339
366.8415	0.239
367.0496	0.232
367.2577	0.2368
367.4658	0.2315
367.6739	0.2317
367.882	0.2443
368.09	0.2349
368.2981	0.2444
368.5061	0.2377
368.7141	0.2288
368.9221	0.2448
369.1301	0.2388
369.3381	0.2485
369.5461	0.2448
369.754	0.2447
369.962	0.2394
370.1699	0.2481
370.3778	0.2628
370.5857	0.2531
370.7936	0.2485
371.0015	0.2463
371.2093	0.2495
371.4172	0.2516
371.625	0.25
371.8328	0.2468
372.0406	0.2571
372.2484	0.2569
372.4562	0.2659
372.664	0.261
372.8717	0.2636
373.0795	0.2658
373.2872	0.2602
373.4949	0.2688
373.7026	0.2579
373.9103	0.2525
374.118	0.2625
374.3256	0.2732
374.5333	0.2628
374.7409	0.2548
374.9485	0.2667
375.1561	0.2702
375.3637	0.2645
375.5713	0.2668
375.7789	0.2677
375.9864	0.2671
376.194	0.2705
376.4015	0.2723
376.609	0.2676
376.8165	0.2687
377.024	0.2734
377.2315	0.2872
377.4389	0.266
377.6464	0.2806
377.8538	0.281
378.0612	0.2823
378.2686	0.2741
378.476	0.2934
378.6834	0.2783
378.8908	0.2876
379.0981	0.2825
379.3055	0.2859
379.5128	0.2775
379.7201	0.287
379.9274	0.2873
380.1347	0.2801
380.342	0.2929
380.5492	0.2781
380.7565	0.2859
380.9637	0.2889
381.1709	0.2859
381.3781	0.297
381.5853	0.2802
381.7925	0.2805
381.9997	0.2858
382.2068	0.2857
382.4139	0.2894
382.6211	0.2972
382.8282	0.3096
383.0353	0.304
383.2424	0.2975
383.4494	0.2976
383.6565	0.2975
383.8635	0.297
384.0706	0.3061
384.2776	0.2956
384.4846	0.3052
384.6916	0.2891
384.8986	0.3065
385.1055	0.3075
385.3125	0.3007
385.5194	0.3034
385.7263	0.2992
385.9333	0.3095
386.1402	0.2983
386.347	0.2904
386.5539	0.2996
386.7608	0.3015
386.9676	0.2995
387.1744	0.2967
387.3813	0.3011
387.5881	0.2849
387.7948	0.3003
388.0016	0.3001
388.2084	0.3045
388.4151	0.3046
388.6219	0.2906
388.8286	0.2998
389.0353	0.3129
389.242	0.2984
389.4487	0.3014
389.6553	0.2962
389.862	0.2845
390.0686	0.305
390.2753	0.2971
390.4819	0.3
390.6885	0.2898
390.8951	0.2861
391.1016	0.2933
391.3082	0.2965
391.5147	0.2852
391.7213	0.2845
391.9278	0.2855
392.1343	0.2837
392.3408	0.2843
392.5473	0.2781
392.7537	0.281
392.9602	0.2776
393.1666	0.2748
393.373	0.2835
393.5794	0.2725
393.7858	0.2802
393.9922	0.2677
394.1986	0.2674
394.4049	0.2734
394.6113	0.2653
394.8176	0.2771
395.0239	0.2636
395.2302	0.2659
395.4365	0.2639
395.6428	0.2667
395.8491	0.2733
396.0553	0.257
396.2615	0.2669
396.4678	0.2649
396.674	0.2594
396.8802	0.2562
397.0863	0.2517
397.2925	0.264
397.4987	0.2528
397.7048	0.2608
397.9109	0.2545
398.117	0.2581
398.3231	0.2579
398.5292	0.2454
398.7353	0.2591
398.9413	0.2553
399.1474	0.2566
399.3534	0.2516
399.5594	0.2529
399.7654	0.2499
399.9714	0.2641
400.1774	0.2537
400.3833	0.2527
400.5893	0.2524
400.7952	0.2578
401.0011	0.2635
401.207	0.253
401.4129	0.2529
401.6188	0.2534
401.8247	0.2667
402.0305	0.2594
402.2364	0.26
402.4422	0.2534
402.648	0.2564
402.8538	0.2582
403.0596	0.2538
403.2654	0.2569
403.4711	0.2494
403.6768	0.25
403.8826	0.2509
404.0883	0.2539
404.294	0.248
404.4997	0.2455
404.7054	0.2601
404.911	0.25
405.1167	0.2504
405.3223	0.264
405.5279	0.2545
405.7335	0.2481
405.9391	0.2525
406.1447	0.2659
406.3502	0.2483
406.5558	0.2553
406.7613	0.2529
406.9668	0.2572
407.1724	0.2476
407.3778	0.2524
407.5833	0.2439
407.7888	0.2501
407.9942	0.2495
408.1997	0.2543
408.4051	0.2529
408.6105	0.2533
408.8159	0.2529
409.0213	0.2503
409.2267	0.255
409.432	0.248
409.6374	0.2512
409.8427	0.2587
410.048	0.2452
410.2533	0.2511
410.4586	0.2521
410.6639	0.2602
410.8691	0.2416
411.0744	0.2533
411.2796	0.25
411.4848	0.2616
411.69	0.2443
411.8952	0.2522
412.1004	0.2485
412.3056	0.2472
412.5107	0.2643
412.7158	0.2598
412.921	0.2487
413.1261	0.2532
413.3312	0.2535
413.5362	0.2618
413.7413	0.2426
413.9464	0.244
414.1514	0.2499
414.3564	0.2557
414.5614	0.2457
414.7664	0.2364
414.9714	0.2303
415.1764	0.2515
415.3813	0.2462
415.5863	0.2515
415.7912	0.2439
415.9961	0.241
416.201	0.2393
416.4059	0.2445
416.6108	0.2444
416.8156	0.2453
417.0205	0.2447
417.2253	0.2397
417.4301	0.2468
417.6349	0.2415
417.8397	0.2488
418.0445	0.2313
418.2492	0.241
418.454	0.246
418.6587	0.2347
418.8634	0.2414
419.0681	0.2453
419.2728	0.2354
419.4775	0.2407
419.6822	0.2392
419.8868	0.2313
420.0915	0.2318
420.2961	0.2359
420.5007	0.246
420.7053	0.2328
420.9099	0.2363
421.1144	0.2359
421.319	0.2292
421.5235	0.2242
421.728	0.2346
421.9325	0.2361
422.137	0.2276
422.3415	0.2252
422.546	0.2241
422.7504	0.2318
422.9549	0.2294
423.1593	0.222
423.3637	0.2217
423.5681	0.2321
423.7725	0.2246
423.9769	0.239
424.1812	0.2251
424.3856	0.211
424.5899	0.2103
424.7942	0.2128
424.9985	0.2195
425.2028	0.2228
425.4071	0.2219
425.6113	0.2055
425.8156	0.2225
426.0198	0.2206
426.224	0.2119
426.4282	0.204
426.6324	0.207
426.8366	0.2011
427.0407	0.2138
427.2449	0.2049
427.449	0.2103
427.6531	0.2156
427.8572	0.2046
428.0613	0.2146
428.2654	0.2065
428.4694	0.1841
428.6735	0.1945
428.8775	0.1939
429.0815	0.195
429.2855	0.2033
429.4895	0.1952
429.6935	0.1902
429.8975	0.1919
430.1014	0.1919
430.3053	0.1868
430.5093	0.1915
430.7132	0.1831
430.9171	0.1818
431.1209	0.1813
431.3248	0.1733
431.5286	0.1741
431.7325	0.1928
431.9363	0.181
432.1401	0.1746
432.3439	0.1749
432.5477	0.1685
432.7514	0.1692
432.9552	0.172
433.1589	0.1627
433.3627	0.1636
433.5664	0.1642
433.7701	0.1591
433.9737	0.1708
434.1774	0.1685
434.3811	0.1525
434.5847	0.1524
434.7883	0.1623
434.9919	0.1484
435.1955	0.1505
435.3991	0.1445
435.6027	0.1391
435.8062	0.1607
436.0098	0.135
436.2133	0.1398
436.4168	0.1409
436.6203	0.1397
436.8238	0.1364
437.0272	0.1397
437.2307	0.1321
437.4341	0.1328
437.6375	0.1272
437.841	0.1235
438.0443	0.1311
438.2477	0.1158
438.4511	0.1151
438.6545	0.1196
438.8578	0.1211
439.0611	0.1272
439.2644	0.1137
439.4677	0.1196
439.671	0.1137
439.8743	0.1239
440.0775	0.1071
440.2808	0.1071
440.484	0.1061
440.6872	0.1043
440.8904	0.0976
441.0936	0.1032
441.2967	0.0928
441.4999	0.0905
441.703	0.103
441.9062	0.0969
442.1093	0.1052
442.3124	0.0924
442.5155	0.0941
442.7185	0.0877
442.9216	0.0932
443.1246	0.0911
443.3276	0.0866
443.5307	0.0844
443.7337	0.0864
443.9366	0.0837
444.1396	0.0831
444.3426	0.0779
444.5455	0.0844
444.7484	0.0744
444.9513	0.0741
445.1542	0.0862
445.3571	0.0716
445.56	0.0743
445.7628	0.0642
445.9657	0.0743
446.1685	0.0673
446.3713	0.0715
446.5741	0.0666
446.7769	0.0632
446.9797	0.0669
447.1824	0.0635
447.3852	0.0544
447.5879	0.0559
447.7906	0.0542
447.9933	0.0582
448.196	0.0562
448.3986	0.0492
448.6013	0.0557
448.8039	0.0585
449.0066	0.0695
449.2092	0.0525
449.4118	0.0532
449.6143	0.0474
449.8169	0.048
450.0195	0.0456
450.222	0.0524
450.4245	0.0454
450.627	0.0459
450.8295	0.0461
451.032	0.0425
451.2345	0.0442
451.4369	0.0485
451.6394	0.0406
451.8418	0.0413
452.0442	0.047
452.2466	0.0281
452.449	0.0377
452.6513	0.0343
452.8537	0.0373
453.056	0.0332
453.2583	0.0321
453.4607	0.032
453.663	0.0353
453.8652	0.0308
454.0675	0.0346
454.2697	0.0274
454.472	0.0283
454.6742	0.0409
454.8764	0.0301
455.0786	0.039
455.2808	0.0268
455.4829	0.0287
455.6851	0.0292
455.8872	0.021
456.0893	0.0241
456.2915	0.029
456.4935	0.0319
456.6956	0.0151
456.8977	0.0221
457.0997	0.0302
457.3018	0.014
457.5038	0.032
457.7058	0.0326
457.9078	0.024
458.1098	0.0301
458.3117	0.0282
458.5137	0.016
458.7156	0.0212
458.9175	0.027
459.1194	0.0174
459.3213	0.0158
459.5232	0.0207
459.725	0.0193
459.9269	0.0178
460.1287	0.0086
460.3305	0.0282
460.5323	0.0197
460.7341	0.0235
460.9359	0.0221
461.1376	0.0149
461.3394	0.0244
461.5411	0.0212
461.7428	0.0218
461.9445	0.0199
462.1462	0.0207
462.3479	0.0177
462.5495	0.0206
462.7512	0.0258
462.9528	0.0146
463.1544	0.0113
463.356	0.0103
463.5576	0.0235
463.7592	0.015
463.9607	0.0198
464.1623	0.0076
464.3638	0.012
464.5653	0.0158
464.7668	0.0119
464.9683	0.0143
465.1697	0.0167
465.3712	0.0108
465.5726	0.0114
465.7741	0.0164
465.9755	0.0202
466.1769	0.0089
466.3782	0.0086
466.5796	0.0199
466.7809	0.0173
466.9823	0.0135
467.1836	0.0136
467.3849	0.0137
467.5862	0.0038
467.7875	0.0066
467.9887	0.0102
468.19	0.0091
468.3912	0.0168
468.5924	0.0074
468.7936	0.0115
468.9948	-0.0024
469.196	0.0089
469.3972	0.0031
469.5983	0.0168
469.7994	0.0155
470.0006	0.0087
470.2017	0.007
470.4027	0.024
470.6038	0.0062
470.8049	0.0095
471.0059	0.0106
471.2069	0.0144
471.408	0.0174
471.6089	0.0259
471.8099	0.0122
472.0109	0.0112
472.2119	0.0092
472.4128	-0.0003
472.6137	0.0143
472.8146	0.0099
473.0155	0.0157
473.2164	0.006
473.4173	0.0016
473.6181	-0.0012
473.819	0.0071
474.0198	0.0031
474.2206	0.0015
474.4214	0.0089
474.6222	0.0024
474.8229	0.0021
475.0237	0.0079
475.2244	0.0098
475.4251	0.0044
475.6258	0.0027
475.8265	0.0128
476.0272	0.0101
476.2278	0.0146
476.4285	0.01
476.6291	0.0108
476.8297	0.0091
477.0303	-0.0047
477.2309	0.0022
477.4315	0.0054
477.632	-0.0003
477.8326	0.004
478.0331	0.0085
478.2336	0.0052
478.4341	0.0101
478.6346	0.0055
478.8351	0.0064
479.0355	0.0094
479.236	0.0031
479.4364	0.0073
479.6368	0.0067
479.8372	0.0106
480.0376	0.0009
480.2379	0.0057
480.4383	0.013
480.6386	-0.0034
480.8389	0.0017
481.0392	0.0069
481.2395	0.0128
481.4398	0.0106
481.6401	0.005
481.8403	0.0005
482.0405	0.0028
482.2408	0.0062
482.441	0.0023
482.6411	0.0064
482.8413	-0.008
483.0415	0.0115
483.2416	0.0087
483.4417	0.0095
483.6419	-0.0024
483.8419	0.0099
484.042	0.0023
484.2421	-0.0002
484.4422	0.0059
484.6422	0.0056
484.8422	0.003
485.0422	0.0075
485.2422	0.0026
485.4422	0.0025
485.6422	0.0019
485.8421	0.0052
486.042	0.0101
486.242	0.0013
486.4419	0.0029
486.6417	0.0039
486.8416	0.0021
487.0415	0.0016
487.2413	-0
487.4411	0.0036
487.641	0.004
487.8408	0.0125
488.0405	0.0086
488.2403	0.0014
488.4401	0.0092
488.6398	0.0093
488.8395	0.0074
489.0392	0.0042
489.2389	0.015
489.4386	-0.0064
489.6383	0.0134
489.8379	0.0055
490.0376	0.0073
490.2372	0.0118
490.4368	0.0076
490.6364	-0.0031
490.836	0.0048
491.0355	-0.0022
491.2351	0.0044
491.4346	0.006
491.6341	0.0063
491.8336	0.0068
492.0331	0.0053
492.2326	0
492.432	0.0029
492.6315	0.0083
492.8309	0.0131
493.0303	0.0091
493.2297	0.011
493.4291	-0.0009
493.6284	0.0151
493.8278	0.0019
494.0271	0.0096
494.2264	0.0042
494.4257	0.0069
494.625	0.0068
494.8243	-0.0022
495.0236	0.0138
495.2228	0.0116
495.422	0.0058
495.6213	0.0096
495.8205	0.0109
496.0196	0.0119
496.2188	0.0088
496.418	0.0007
496.6171	-0.0051
496.8162	0.0015
497.0153	0.0063
497.2144	0.0072
497.4135	-0.0015
497.6126	0.0036
497.8116	0.0027
498.0107	0.0008
498.2097	0.0081
498.4087	0.0008
498.6077	-0.002
498.8067	0.0014
499.0056	0.0073
499.2046	0.0066
499.4035	0.0073
499.6024	-0.0058
499.8013	0.0106
500.0002	0.0083
500.199	0.0114
500.3979	-0.0069
500.5967	0.0087
500.7956	0.0086
500.9944	0.0141
501.1932	0.0122
501.3919	0.0085
501.5907	0.0133
501.7895	0.0085
501.9882	0.0033
502.1869	0.0093
502.3856	0.0047
502.5843	0.0039
502.783	0.0023
502.9816	0.0124
503.1803	0.0088
503.3789	0.0036
503.5775	-0.0006
503.7761	0.0042
503.9747	0.0085
504.1732	-0.0036
504.3718	0.014
504.5703	0.0047
504.7689	0.0018
504.9674	-0.0032
505.1658	0.0047
505.3643	0.0066
505.5628	0.0139
505.7612	0.01
505.9597	-0.0037
506.1581	0.0044
506.3565	0.0001
506.5549	-0.001
506.7532	-0.0031
506.9516	0.0039
507.1499	0.0102
507.3482	0.0096
507.5465	0.0045
507.7448	0.0034
507.9431	0.0054
508.1414	0.0022
508.3396	0.0031
508.5379	0.0002
508.7361	0.0077
508.9343	0.0031
509.1325	0.0069
509.3306	0.0023
509.5288	0.0004
509.7269	0.007
509.9251	0.0112
510.1232	0.0071
510.3213	0.0033
510.5193	0.0054
510.7174	0.0058
510.9154	0.0093
511.1135	0.0088
511.3115	0.0025
511.5095	0.0053
511.7075	0.0047
511.9055	0.006
512.1034	0.0064
512.3014	0.0016
512.4993	0.0086
512.6972	0.002
512.8951	0.0034
513.093	0.0057
513.2908	0.0139
513.4887	0.0076
513.6865	0.0065
513.8844	0.0138
514.0822	0.0101
514.2799	-0.0013
514.4777	0.0022
514.6755	0.0073
514.8732	0.0044
515.0709	0.0105
515.2687	0.0081
515.4664	0.0101
515.664	0.0104
515.8617	0.0162
516.0594	0.0152
516.257	0.005
516.4546	0.0204
516.6522	0.0042
516.8498	0.0016
517.0474	0.011
517.2449	0.0169
517.4425	0.0066
517.64	0.0055
517.8375	0.0129
518.035	0.0056
518.2325	0.001
518.43	0.0065
518.6274	-0.0007
518.8249	0.0076
519.0223	0.0231
519.2197	0.0027
519.4171	-0.001
519.6145	0.0075
519.8118	-0.0003
520.0092	0.0008
520.2065	0.0092
520.4038	0.0041
520.6011	0.0042
520.7984	0.0036
520.9956	0.012
521.1929	0.0076
521.3901	0.0045
521.5874	0.0089
521.7846	-0.0014
521.9818	0.0043
522.1789	-0.0051
522.3761	0.0147
522.5732	0.0041
522.7704	-0.0023
522.9675	-0.0053
523.1646	-0.0041
523.3617	0.0077
523.5587	0.0039
523.7558	0.0111
523.9528	0.007
524.1498	0.0042
524.3468	-0.0009
524.5438	0.0044
524.7408	0.0024
524.9378	0.0102
525.1347	0.0089
525.3316	0.0063
525.5285	0.0091
525.7254	0.0066
525.9223	0.0221
526.1192	0.0038
526.316	0.0112
526.5129	0.0187
526.7097	0.001
526.9065	0.0038
527.1033	0.0066
527.3	0.0064
527.4968	0.0049
527.6935	-0.0048
527.8903	0.0006
528.087	-0.0015
528.2837	0.0175
528.4804	-0.0054
528.677	0.0018
528.8737	0.0105
529.0703	-0.0027
529.2669	0.0133
529.4635	0.0014
529.6601	0.0005
529.8567	0.007
530.0532	0.0031
530.2498	0.0028
530.4463	-0.0066
530.6428	0.0001
530.8393	0.0134
531.0358	0.0052
531.2322	0.0052
531.4287	0.0021
531.6251	-0.0019
531.8215	-0.0047
532.0179	0.0131
532.2143	0.0091
532.4107	0.0137
532.607	0.0023
532.8034	0.0033
532.9997	0.0022
533.196	0.0028
533.3923	0.0099
533.5886	0.0108
533.7848	-0.0042
533.9811	0.0103
534.1773	0.0026
534.3735	0.0058
534.5697	0.0032
534.7659	0.0042
534.9621	0.0154
535.1582	0.0043
535.3544	0.0089
535.5505	0.0004
535.7466	0.0122
535.9427	-0.0005
536.1387	-0.0069
536.3348	0.0094
536.5308	0.0029
536.7269	-0.0034
536.9229	0.0134
537.1189	0.0106
537.3148	0.0109
537.5108	0.0033
537.7068	0.0136
537.9027	-0.0054
538.0986	0.0086
538.2945	0.001
538.4904	0.0014
538.6863	0.0119
538.8821	0.006
539.078	0.0076
539.2738	0.0031
539.4696	0.0085
539.6654	0.0042
539.8611	0.0144
540.0569	0.0034
540.2526	0.0064
540.4484	-0.0067
540.6441	0.0085
540.8398	0.0102
541.0355	0.0054
541.2311	0.0094
541.4268	0.0128
541.6224	0.0124
541.818	0.0117
542.0136	0.0032
542.2092	0.0122
542.4048	-0.0012
542.6003	0.0086
542.7959	0.0086
542.9914	0.0048
543.1869	0.0151
543.3824	0.0062
543.5779	0.015
543.7734	0.0168
543.9688	0.0107
544.1642	0.0029
544.3596	0.0105
544.555	0.0002
544.7504	0.0097
544.9458	0.0074
545.1411	0.0069
545.3365	0.0042
545.5318	0.0007
545.7271	0.0069
545.9224	0.0048
546.1177	0.0126
546.3129	0.0006
546.5081	0.0009
546.7034	0.012
546.8986	0.0057
547.0938	0.0144
547.289	0.0128
547.4841	0.0103
547.6793	0.0133
547.8744	0.0111
548.0695	0.0031
548.2646	0.0088
548.4597	0.0041
548.6548	0.0191
548.8498	0.0115
549.0448	0.0112
549.2399	0.0189
549.4349	0.0044
549.6298	0.0094
549.8248	0.0075
550.0198	0.0092
550.2147	0.0019
550.4096	0.0051
550.6045	0.0087
550.7994	0.0124
550.9943	0.0087
551.1892	-0.0096
551.384	0.0055
551.5788	0.0051
551.7737	0.0035
551.9685	0.0135
552.1632	-0.0014
552.358	0.0112
552.5528	0.0016
552.7475	0.007
552.9422	0.0059
553.1369	0.0158
553.3316	0.0094
553.5263	0.016
553.7209	0.0049
553.9156	0.0067
554.1102	0.0058
554.3048	0.0014
554.4994	0.0008
554.694	0.006
554.8885	0.009
555.0831	0.0132
555.2776	-0.0004
555.4721	-0.0032
555.6666	0.0026
555.8611	0.0051
556.0555	0.0059
556.25	0.0162
556.4444	-0.0015
556.6388	0.0138
556.8332	0.0138
557.0276	0.0031
557.222	0.004
557.4163	0.0064
557.6107	0.0062
557.805	0.0014
557.9993	0.0096
558.1936	0.003
558.3879	0.0003
558.5821	0.0003
558.7764	0.0045
558.9706	-0.0016
559.1648	0.0018
559.359	0.0003
559.5532	-0.0021
559.7473	-0.0101
559.9415	0.0042
560.1356	0.0111
560.3297	-0.006
560.5238	0.0125
560.7179	0.002
560.9119	-0.0044
561.106	-0.005
561.3	0.0074
561.494	0.0003
561.688	0.0103
561.882	0.004
562.076	0.0111
562.2699	0.0126
562.4639	0.0094
562.6578	0.0019
562.8517	0.0077
563.0456	0.0073
563.2395	0.0159
563.4333	0.0023
563.6272	-0.0041
563.821	0.0022
564.0148	0.0017
564.2086	0.0041
564.4024	0.0065
564.5961	0.0063
564.7899	0.0167
564.9836	0.0058
565.1773	0.0218
565.371	0.0101
565.5647	0.0063
565.7584	0.0159
565.952	0.0025
566.1456	0.0025
566.3393	0.008
566.5329	0.0054
566.7264	0.0079
566.92	-0.0008
567.1136	0.0002
567.3071	0.0001
567.5006	0.0053
567.6941	0.009
567.8876	0.0071
568.0811	0.0178
568.2745	0.0028
568.468	-0.0014
568.6614	0.013
568.8548	0.003
569.0482	0.0105
569.2416	0.0065
569.4349	0.0065
569.6283	0.0035
569.8216	0.0076
570.0149	-0.0032
570.2082	0.0101
570.4015	0.0058
570.5947	0.0035
570.788	0.0045
570.9812	0.0067
571.1744	0.0052
571.3676	0.0036
571.5608	0.0064
571.754	0.0101
571.9471	0.0093
572.1402	0.0064
572.3333	0.0009
572.5264	0.0066
572.7195	0.0059
572.9126	0.0034
573.1057	0.0077
573.2987	0.0032
573.4917	0.0046
573.6847	0.0039
573.8777	0.0069
574.0707	0.0044
574.2636	0.0075
574.4566	-0.0012
574.6495	0.0018
574.8424	0.0062
575.0353	0.0057
575.2281	0.0073
575.421	0.003
575.6138	0.0045
575.8067	0.0077
575.9995	0.0039
576.1923	0.0073
576.385	0.0057
576.5778	0.0114
576.7706	0.0019
576.9633	0.0083
577.156	-0.0016
577.3487	0.002
577.5414	0.0025
577.734	0.0064
577.9267	0.0027
578.1193	0.0112
578.3119	0.0022
578.5045	0.0058
578.6971	-0.0006
578.8897	-0.0005
579.0822	0.0062
579.2747	0.0044
579.4673	0.0105
579.6598	0.0076
579.8522	0.0047
580.0447	0.0067
580.2372	0.0084
580.4296	0.0119
580.622	0.0033
580.8144	0.0084
581.0068	0.0055
581.1992	0.0035
581.3915	0.0001
581.5839	0.004
581.7762	0.0007
581.9685	0.0032
582.1608	0.0059
582.353	0.0034
582.5453	0.0039
582.7375	0.0071
582.9298	-0.0021
583.122	0.0027
583.3142	0.0087
583.5063	0.0045
583.6985	0.0055
583.8906	0.0021
584.0827	0.0072
584.2749	0.0054
584.4669	0.003
584.659	0.0068
584.8511	0.0038
585.0431	0.0125
585.2352	0.0061
585.4272	0.0052
585.6192	0.0077
585.8111	0.0026
586.0031	0.0046
586.195	0.0017
586.387	0.0059
586.5789	0.0052
586.7708	0.0078
586.9627	0.0082
587.1545	0.0069
587.3464	0.0035
587.5382	0.0034
587.73	0.0072
587.9218	0.0026
588.1136	0.0021
588.3053	0.0046
588.4971	0.0037
588.6888	0.0022
588.8805	0.0066
589.0722	0.0138
589.2639	0.0091
589.4556	0.0122
589.6472	0.0053
589.8389	0.0029
590.0305	0.0005
590.2221	0.0067
590.4137	0.0083
590.6052	0.0052
590.7968	0.002
590.9883	0.006
591.1798	0.0036
591.3713	0.0022
591.5628	0.008
591.7543	0.0112
591.9458	0.0014
592.1372	0.0072
592.3286	0.0047
592.52	0.0031
592.7114	0.0045
592.9028	0.0121
593.0941	0.002
593.2855	0.0033
593.4768	0.009
593.6681	0.0089
593.8594	0.0132
594.0506	-0.0003
594.2419	0.0056
594.4331	0.0027
594.6244	0.0029
594.8156	-0.0022
595.0067	0.002
595.1979	0.0048
595.3891	0.0049
595.5802	0.0108
595.7713	0.0011
595.9624	0.0082
596.1535	0.0033
596.3446	0.0016
596.5357	0.0082
596.7267	0.0011
596.9177	0.0038
597.1087	0.0057
597.2997	0.0001
597.4907	0.0012
597.6817	0.0082
597.8726	0.0045
598.0635	-0.002
598.2544	0.0047
598.4453	0.0081
598.6362	0.005
598.827	0.004
599.0179	0.0048
599.2087	0.011
599.3995	0.0075
599.5903	0.0064
599.7811	0.0109
599.9718	0.0016
600.1626	-0.0004
600.3533	0.0014
600.544	0.0043
600.7347	0.0045
600.9254	0.0075
601.116	0.0031
601.3067	0.0069
601.4973	0.0065
601.6879	0.0012
601.8785	0.0067
602.0691	0.0096
602.2596	0.0012
602.4502	0.0064
602.6407	0.0088
602.8312	0.0029
603.0217	0.0054
603.2122	0.0039
603.4027	0.0033
603.5931	0.0037
603.7835	0.0011
603.9739	0.0073
604.1643	0.0055
604.3547	0.0087
604.5451	0.004
604.7354	-0.0064
604.9257	0.0007
605.116	0.0041
605.3063	0.0024
605.4966	0.0001
605.6869	0.0054
605.8771	0.0056
606.0673	0.0071
606.2575	0.0041
606.4477	0.0135
606.6379	0.0047
606.8281	0.0035
607.0182	0.0013
607.2083	0.0033
607.3985	0.0036
607.5885	0.0027
607.7786	0.0101
607.9687	-0.0029
608.1587	0.0084
608.3488	-0.0006
608.5388	-0.0007
608.7288	-0.0021
608.9187	0.0085
609.1087	0.0081
609.2986	0.0108
609.4886	0.0025
609.6785	0.0031
609.8684	0.0005
610.0582	-0.002
610.2481	0.0034
610.4379	0.0062
610.6278	0.0014
610.8176	0.0065
611.0074	0.0051
611.1971	0.0081
611.3869	0.0077
611.5766	0.0031
611.7664	0.0092
611.9561	0.0034
612.1458	0.0097
612.3354	0.0025
612.5251	0.0021
612.7147	0.0105
612.9044	0.0012
613.094	0.0051
613.2836	0.0023
613.4731	0.0056
613.6627	0.0111
613.8522	-0.0013
614.0417	0.004
614.2313	0.005
614.4207	0.0091
614.6102	0.0034
614.7997	0.0091
614.9891	-0.0009
615.1785	0.002
615.3679	0.0111
615.5573	0.0087
615.7467	-0.0058
615.9361	0.0092
616.1254	0.0092
616.3147	0.0034
616.504	0.0042
616.6933	0.0045
616.8826	0.0117
617.0718	0.0106
617.2611	-0
617.4503	0.0025
617.6395	0.0011
617.8287	0.012
618.0179	0.005
618.207	0.0019
618.3961	-0.0086
618.5853	0.0094
618.7744	0.0115
618.9634	0.014
619.1525	0.0025
619.3416	0.0018
619.5306	0.009
619.7196	0.0101
619.9086	0.0022
620.0976	-0.0006
620.2866	0.006
620.4755	0.0046
620.6645	0.0079
620.8534	0.0081
621.0423	0.0044
621.2312	0.0032
621.42	0.0035
621.6089	0.0076
621.7977	0.0007
621.9865	0.0019
622.1753	-0.0051
622.3641	-0.0025
622.5529	0.0012
622.7416	-0.0021
622.9303	0.0062
623.1191	0.01
623.3078	0.008
623.4964	0.0069
623.6851	0.0085
623.8737	0.0057
624.0624	-0.0059
624.251	0.0037
624.4396	0.0036
624.6282	0.0149
624.8167	0.0023
625.0053	0.0099
625.1938	0.0021
625.3823	0.008
625.5708	0.0027
625.7593	-0.0089
625.9477	0.0051
626.1362	0.0039
626.3246	0.0067
626.513	0.0206
626.7014	0.012
626.8898	0.0128
627.0781	0.0001
627.2665	0.0167
627.4548	-0.0062
627.6431	0.0092
627.8314	0.0145
628.0197	0.0076
628.2079	-0.0052
628.3962	0.0175
628.5844	-0.0006
628.7726	0.0019
628.9608	0.002
629.1489	0.0023
629.3371	-0.0046
629.5252	0.0179
629.7134	0.0022
629.9015	0.0109
630.0895	-0.0181
630.2776	0.0076
630.4657	0.009
630.6537	0.016
630.8417	-0.0011
631.0297	0.001
631.2177	0.0082
631.4057	0.0033
631.5936	0.0113
631.7815	0.0079
631.9695	0.0165
632.1574	0.0028
632.3452	0.0061
632.5331	0.0165
632.7209	0.0103
632.9088	0.0073
633.0966	0.0222
633.2844	0.0088
633.4722	0.0102
633.6599	0.0172
633.8477	0.0162
634.0354	0.0024
634.2231	-0.0028
634.4108	0.0096
634.5985	0.0061
634.7861	-0.0115
634.9738	-0.0027
635.1614	-0.0043
635.349	-0.0035
635.5366	0.0013
635.7242	0.002
635.9117	-0.0026
636.0993	0.0057
636.2868	-0.0027
636.4743	0.009
636.6618	0.0038
636.8492	0.0104
637.0367	-0.007
637.2241	0.0075
637.4115	0.0243
637.5989	-0.0004
637.7863	0.0188
637.9737	0.0118
638.161	0.0025
638.3484	-0.0116
638.5357	-0.0009
638.723	0.0094
638.9103	-0.0103
639.0975	0.0046
639.2848	0.0139
639.472	0.0178
639.6592	-0.002
639.8464	-0.0016
640.0336	0.007
640.2208	0.0034
640.4079	0.0068
640.595	-0.0164
640.7821	0.0126
640.9692	-0.003
641.1563	0.007
641.3434	0.0081
641.5304	0.019
641.7174	0.0073
641.9044	0.0062
642.0914	0.0357
642.2784	0.0023
642.4653	0.0068
642.6523	0.0065
642.8392	0.0071
643.0261	0.0235
643.213	0.0154
643.3999	0.0166
643.5867	0.0324
643.7735	0.0097
643.9604	0.0249
644.1472	0.0126
644.3339	-0.0065
644.5207	-0.0155
644.7075	0.0095
644.8942	0.0061
645.0809	-0.0069
645.2676	-0.0164
645.4543	-0.029
645.6409	-0.0006
645.8276	-0.0032
646.0142	0.0061
646.2008	0.0334
646.3874	-0.0029
646.574	-0.015
646.7605	0.0033
646.9471	0.0094
647.1336	-0.0236
647.3201	-0.0052
647.5066	0.0055
647.6931	0.004
647.8795	0.005
648.0659	0.0087
648.2524	0.0097
648.4388	0.0124
648.6252	0.0145
648.8115	0.0035
648.9979	0.014
649.1842	-0.0011
649.3705	0.0043
649.5568	-0.0085
649.7431	-0.0076
649.9294	0.0098
650.1156	-0.0018
650.3018	0.0107
650.488	0.0184
650.6742	0.0308
650.8604	0.0365
651.0466	-0.0001
651.2327	0.0118
651.4188	0.0171
651.6049	0.0176
651.791	0.0067
651.9771	0.012
652.1632	0.0147
652.3492	0.0031
652.5352	0.0188
652.7212	-0.0001
652.9072	-0.0031
653.0932	0.013
653.2791	-0.0077
653.465	0.0141
653.651	0.021
653.8369	0.0157
654.0227	-0.0041
654.2086	0.0279
654.3944	0.0097
654.5803	0.004
654.7661	0.0041
654.9519	-0.0018
655.1377	0.0001
655.3234	0.0001
655.5092	0.0001
655.6949	0.0001
655.8806	0.0001
656.0663	0.0001
656.2519	0.0001
656.4376	0.0001
656.6232	0.0001
656.8088	0.0001
656.9945	0.0001
657.18	0.0001
657.3656	0.0001
657.5511	0.0001
657.7367	0.0001
657.9222	0.0001
658.1077	0.0001
658.2932	0.0001
658.4786	0.0001
658.6641	0.0001
658.8495	0.0001
659.0349	0.0001
659.2203	0.0001
659.4057	0.0001
659.591	0.1511
659.7764	0.0226
659.9617	-0.0012
660.147	-0.0008
660.3323	0.0214
660.5176	0.0038
660.7028	0.0067
660.888	0.0042
661.0733	0.0059
661.2585	-0.0108
661.4436	0.017
661.6288	0.0237
661.8139	0.0129
661.9991	-0.0029
662.1842	0.0089
662.3693	0.0072
662.5544	0.007
662.7394	0.0206
662.9245	-0.0026
663.1095	-0.022
663.2945	0.0016
663.4795	-0.0069
663.6644	0.0144
663.8494	0.0139
664.0343	-0.0092
664.2193	-0.0123
664.4042	0.0048
664.589	0.0096
664.7739	0.0123
664.9587	-0.0075
665.1436	0.0019
665.3284	0.0065
665.5132	-0.0244
665.698	-0.0074
665.8827	0.0208
666.0675	-0.0352
666.2522	0.0363
666.4369	-0.006
666.6216	-0.0015
666.8063	0.0016
666.9909	-0.0114
667.1756	0.0032
667.3602	-0.0031
667.5448	0.0091
667.7294	0.0092
667.9139	0.0051
668.0985	0.0203
668.283	0.0016
668.4675	0.0025
668.652	0.0329
668.8365	0.0076
669.0209	-0.0005
669.2054	0.0318
669.3898	0.0037
669.5742	0.0337
669.7586	0.008
669.943	0.0063
670.1273	-0.0101
670.3117	0.0289
670.496	0.0192
670.6803	0.024
670.8646	-0.0158
671.0488	0.034
671.2331	-0.0066
671.4173	0.0037
671.6015	0.0086
671.7857	-0.0029
671.9699	0.0118
672.1541	0.0018
672.3382	0.0091
672.5223	0.014
672.7064	0.0128
672.8905	0.0029
673.0746	0.0135
673.2587	0.0188
673.4427	0.0132
673.6267	-0.002
673.8107	0.0309
673.9947	0.0088
674.1787	0.0029
674.3626	0.0136
674.5465	0.0287
674.7304	-0.0129
674.9143	-0.0021
675.0982	0.007
675.2821	-0.0176
675.4659	-0.0236
675.6497	0.0148
675.8335	0.028
676.0173	0.0098
676.2011	0.0298
676.3849	0.015
676.5686	0.0269
676.7523	-0.0096
676.936	0.0155
677.1197	-0.0067
677.3034	0.0263
677.487	0.0081
677.6706	0.003
677.8542	0.0008
678.0378	-0.0043
678.2214	0.0048
678.405	0.0029
678.5885	0.01
678.772	-0.0048
678.9555	-0.002
679.139	0.0087
679.3225	-0.0087
679.5059	-0.0046
679.6894	0.0024
679.8728	0.0001
680.0562	0.0038
680.2395	0.0054
680.4229	-0.0124
680.6062	0.011
680.7896	-0.0154
680.9729	0.0448
681.1562	0.0048
681.3394	0.012
681.5227	0.002
681.7059	-0.0045
681.8891	0.0058
682.0723	0.0073
682.2555	0.0014
682.4387	0.0028
682.6218	0.0176
682.805	0.0201
682.9881	0.0281
683.1712	0.0134
683.3542	0.0147
683.5373	-0.0109
683.7203	0.0093
683.9034	-0.0056
684.0864	0.0012
684.2694	-0.0017
684.4523	0.0062
684.6353	-0.0097
684.8182	-0.0049
685.0011	0.0001
685.184	0.0053
685.3669	0.0142
685.5498	0.0097
685.7326	-0.0014
685.9154	-0.0081
686.0982	0.0232
686.281	-0.0093
686.4638	0.0073
686.6465	0.002
686.8293	-0.0108
687.012	0.0171
687.1947	-0.0062
687.3774	0.004
687.56	-0.0061
687.7427	-0.0006
687.9253	-0.0303
688.1079	0.0127
688.2905	-0.0196
688.4731	0.0222
688.6556	0.0244
688.8382	-0.0238
689.0207	0.008
689.2032	0.0091
689.3857	-0.0105
689.5681	0.0024
689.7506	0.0302
689.933	-0.002
690.1154	0.0232
690.2978	0.0175
690.4802	0.0159
690.6626	0.01
690.8449	0.0163
691.0272	-0.0116
691.2095	-0.0145
691.3918	0.0147
691.5741	0.0291
691.7563	0.0024
691.9386	0.0132
692.1208	0.0038
692.303	-0.0041
692.4852	0.0035
692.6673	0.0013
692.8495	-0.0105
693.0316	0.0255
693.2137	0.0209
693.3958	0.0121
693.5778	0.0194
693.7599	0.0119
693.9419	-0.0104
694.1239	0.0141
694.3059	0.0273
694.4879	-0.0014
694.6699	0.0033
694.8518	0.0023
695.0337	0.0238
695.2157	0.0241
695.3975	0.0214
695.5794	-0.0112
695.7613	0.0127
695.9431	-0.0029
696.1249	0.0316
696.3067	0.0044
696.4885	0.0117
696.6703	0.0201
696.852	0.0005
697.0337	0.0112
697.2154	0.0016
697.3971	0.0126
697.5788	0.0236
697.7605	0.0062
697.9421	0.0146
698.1237	0.0049
698.3053	-0.0093
698.4869	0.0167
698.6685	-0.004
698.85	0.0094
699.0315	-0.0082
699.213	0.0385
699.3945	0.005
699.576	0.0193
699.7575	0.0241
699.9389	-0.0052
700.1203	0.0111
700.3017	0.0154
700.4831	0.0143
700.6645	0.0245
700.8458	-0.0033
701.0271	0.0258
701.2084	-0.004
701.3897	-0.0108
701.571	-0.0128
701.7523	-0.0008
701.9335	-0.0004
702.1147	-0.0085
702.2959	-0.0172
702.4771	0.0062
702.6583	0.0034
702.8394	-0.0342
703.0205	0.0092
703.2016	-0.0185
703.3827	-0.0119
703.5638	-0.0024
703.7449	-0.0002
703.9259	0.029
704.1069	-0.0241
704.2879	0.0125
704.4689	0.0065
704.6499	0.0127
704.8308	0.0154
705.0117	-0.0201
705.1927	0.0168
705.3735	0.0342
705.5544	0.0071
705.7353	0.0204
705.9161	-0.0016
706.0969	0.0154
706.2777	0.0039
706.4585	-0.0206
706.6393	0.0059
706.82	0.0178
707.0007	-0.002
707.1815	0.0045
707.3621	0.027
707.5428	0.0197
707.7235	0.0049
707.9041	0.0095
708.0847	-0.0017
708.2653	0.0346
708.4459	-0.0075
708.6265	-0.012
708.807	0.0093
708.9875	-0.0049
709.168	0.0048
709.3485	0.0303
709.529	0.0041
709.7095	-0.0143
709.8899	0.0015
710.0703	0.0237
710.2507	0.0058
710.4311	-0.0258
710.6115	0.0376
710.7918	0.0196
710.9721	-0.0121
711.1524	-0.0013
711.3327	0.0175
711.513	0.005
711.6932	0.0028
711.8735	0.0482
712.0537	0.0097
712.2339	-0.0082
712.4141	0.0414
712.5942	-0.0081
712.7744	0.0177
712.9545	0.0296
713.1346	0.0361
713.3147	0.0121
713.4947	0.0035
713.6748	0.002
713.8548	0.0066
714.0348	0.0198
714.2148	0.035
714.3948	0.0403
714.5748	0.0201
714.7547	0.0113
714.9346	-0.0017
715.1145	-0.0087
715.2944	-0.0115
715.4743	0.0098
715.6541	-0.0103
715.834	0.0216
716.0138	0.0268
716.1936	-0.0008
716.3733	0.0208
716.5531	0.0096
716.7328	0.0281
716.9126	0.0224
717.0923	-0.0045
717.2719	0.0025
717.4516	-0.0153
717.6312	0.0038
717.8109	0.002
717.9905	0.0184
718.1701	0.0314
718.3496	0.007
718.5292	-0.0005
718.7087	0.0047
718.8882	0.0192
719.0677	-0.0009
719.2472	0.0017
719.4267	0.0069
719.6061	-0.0178
719.7856	0.011
719.965	0.0166
720.1443	-0.0182
720.3237	0.0151
720.5031	-0.0184
720.6824	-0.0077
720.8617	0.0025
721.041	0.0252
721.2203	-0.0421
721.3995	0.0134
721.5788	0.0134
721.758	-0.0116
721.9372	0.0067
722.1164	0.0151
722.2956	-0.0224
722.4747	0.0264
722.6538	-0.0037
722.8329	0.0273
723.012	0.0054
723.1911	0.0269
723.3702	0.0206
723.5492	-0.0019
723.7282	0.0196
723.9072	0.0288
724.0862	-0.0006
724.2652	-0.0112
724.4441	0.0198
724.623	0.0101
724.8019	-0.0227
724.9808	0.005
725.1597	-0.0066
725.3385	0.0067
725.5174	0.0235
725.6962	-0.0032
725.875	0.016
726.0538	0.0136
726.2325	0.046
726.4112	-0.0141
726.59	0.0018
726.7687	-0.0203
726.9474	0.0171
727.126	-0.0024
727.3047	-0.0045
727.4833	-0.0072
727.6619	0.0104
727.8405	-0.0059
728.0191	0.0236
728.1976	-0.0026
728.3762	0.0035
728.5547	-0.0038
728.7332	0.0265
728.9116	0.0063
729.0901	0.0056
729.2686	0.0046
729.447	-0.0215
729.6254	0.0284
729.8038	-0.0137
729.9821	-0.0153
730.1605	-0.0087
730.3388	-0.0006
730.5171	0.0175
730.6954	-0.0026
730.8737	0.0018
731.0519	-0.0004
731.2302	0.0101
731.4084	-0.0026
731.5866	0.0031
731.7648	0.0083
731.9429	0.0305
732.1211	0.0106
732.2992	-0.005
732.4773	0.0146
732.6554	0.0056
732.8335	0.0135
733.0115	0.0073
733.1896	-0.007
733.3676	0.02
733.5456	0.0068
733.7235	0.0001
733.9015	0.006
734.0794	-0.0116
734.2574	-0.0124
734.4353	0.0289
734.6131	0.0058
734.791	0.0027
734.9689	-0.0021
735.1467	-0.0042
735.3245	0.0193
735.5023	0.0159
735.68	-0.0085
735.8578	0.0155
736.0355	0.0071
736.2132	0.0109
736.3909	0.0197
736.5686	0.0043
736.7463	-0.0117
736.9239	0.0137
737.1015	0.0186
737.2791	0.0021
737.4567	0.0238
737.6343	-0.0138
737.8118	0.0127
737.9894	0.0101
738.1669	0.0089
738.3444	0.0335
738.5218	-0.0233
738.6993	-0.0059
738.8767	0.0049
739.0541	0.0074
739.2315	-0.0025
739.4089	0.0278
739.5863	0.0108
739.7636	0.0075
739.9409	0.0024
740.1182	0.0014
740.2955	0.0279
740.4728	-0.0032
740.65	-0.0144
740.8272	-0.0166
741.0044	0.0072
741.1816	0.0141
741.3588	-0.036
741.5359	-0.0145
741.7131	0.0011
741.8902	-0.0104
742.0673	-0.0132
742.2444	0.0311
742.4214	0.0235
742.5985	-0.0064
742.7755	0.0003
742.9525	-0.0153
743.1295	-0.0194
743.3064	-0.0093
743.4834	0.0038
743.6603	0.0225
743.8372	-0.0264
744.0141	0.0191
744.191	0.0369
744.3678	-0.0331
744.5446	0.0057
744.7215	-0.0002
744.8982	0.021
745.075	0.0471
745.2518	0.0122
745.4285	-0.0057
745.6052	-0.0147
745.7819	-0.0002
745.9586	-0.0174
746.1353	-0.0259
746.3119	0.0074
746.4885	0.0114
746.6651	0.005
746.8417	0.0281
747.0183	0.0186
747.1948	0.0059
747.3714	0.037
747.5479	0.0301
747.7244	0.02
747.9008	-0.0058
748.0773	0.0368
748.2537	0.0189
748.4301	0.0141
748.6065	-0.0038
748.7829	-0.0201
748.9593	-0.0005
749.1356	0.0078
749.3119	-0.0052
749.4882	0.0179
749.6645	0.0143
749.8408	0.0065
750.017	0.0116
750.1933	-0.02
750.3695	-0.0149
750.5457	-0.0055
750.7218	-0.008
750.898	-0.0045
751.0741	0.0082
751.2502	0.0152
751.4263	0.0043
751.6024	0.0153
751.7784	-0.005
751.9545	0.0024
752.1305	-0.002
752.3065	0.0242
752.4825	0.0002
752.6584	-0.0052
752.8344	-0.006
753.0103	-0.014
753.1862	0.017
753.3621	0.0108
753.5379	-0.0133
753.7138	0.006
753.8896	0.0006
754.0654	-0.0056
754.2412	0.0314
754.417	0.0169
754.5927	0.0029
754.7685	0.0104
754.9442	0.0255
755.1199	-0.0036
755.2956	0.0128
755.4712	0.0008
755.6469	0.0083
755.8225	0.0052
755.9981	-0.0062
756.1736	0.0101
756.3492	0.0023
756.5248	0.0227
756.7003	-0.0012
756.8758	-0.0131
757.0513	0.0109
757.2267	0.006
757.4022	0.0017
757.5776	-0.0007
757.753	0.0176
757.9284	0.0209
758.1038	0.0108
758.2791	0.0077
758.4545	-0.0198
758.6298	0.0002
758.8051	0.0256
758.9803	0.0083
759.1556	0.0036
759.3308	0.0019
759.506	0.0113
759.6812	0.0033
759.8564	-0.0003
760.0316	0.0032
760.2067	0.0287
760.3819	-0.0085
760.557	0.0054
760.732	0.0026
760.9071	0.025
761.0821	-0.01
761.2572	0.0102
761.4322	0.0276
761.6072	-0.0022
761.7821	-0.0199
761.9571	0.0148
762.132	0.0017
762.3069	0.0206
762.4818	0.0384
762.6567	0.0132
762.8316	0.0193
763.0064	-0.0097
763.1812	-0.0075
763.356	-0.0146
763.5308	0.0084
763.7055	-0.0045
763.8803	0.0202
764.055	-0.0207
764.2297	-0.0059
764.4044	0.0003
764.579	-0.0049
764.7537	0.0013
764.9283	0.0075
765.1029	0.0226
765.2775	0.0054
765.4521	0.0055
765.6266	-0.0169
765.8011	0.0081
765.9756	0.0201
766.1501	0.0192
766.3246	0.008
766.4991	0.0332
766.6735	0.0332
766.8479	-0.0034
767.0223	0.032
767.1967	0.006
767.371	0.0024
767.5454	0.0293
767.7197	0.0303
767.894	0.0059
768.0683	0.0163
768.2425	0.0307
768.4168	0.0245
768.591	-0.0026
768.7652	-0.0024
768.9394	-0.0385
769.1135	-0.0075
769.2877	0.0186
769.4618	0.0319
769.6359	0.0095
769.81	0.0102
769.984	-0.0061
770.1581	-0.0098
770.3321	0.0408
770.5061	-0.016
770.6801	0.0175
770.8541	0.0181
771.028	0.0296
771.202	0.0181
771.3759	0.0069
771.5498	-0.0052
771.7236	-0.0029
771.8975	0.0127
772.0713	0.0301
772.2451	-0.0113
772.4189	-0.006
772.5927	-0.0465
772.7665	-0.0226
772.9402	0.0125
773.1139	-0.0228
773.2876	-0.0035
773.4613	0.017
773.635	0.0331
773.8086	0.0205
773.9822	0.0301
774.1558	0.0594
774.3294	0.0045
774.503	0.0152
774.6765	0.0038
774.8501	0.0192
775.0236	0.0235
775.1971	-0.0197
775.3705	0.0195
775.544	-0.0107
775.7174	0.0461
775.8908	0.036
776.0642	0.0661
776.2376	0.0343
776.4109	0.027
776.5843	-0.0477
776.7576	0.0134
776.9309	0.0691
777.1041	0.0068
777.2774	-0.0182
777.4506	-0.0228
777.6238	-0.0292
777.797	0.0118
777.9702	0.0171
778.1434	0.0028
778.3165	-0.0419
778.4896	-0.0356
778.6627	-0.0018
778.8358	-0.0222
779.0089	-0.0259
779.1819	0.0145
779.3549	0.0056
779.5279	-0.0328
779.7009	0.0361
779.8739	0.0569
780.0468	-0.0101
780.2197	0.0167
780.3926	-0.0207
780.5655	0.0067
780.7384	-0.0114
780.9112	0.0405
781.0841	-0.0156
781.2569	0.0354
781.4297	-0.0065
781.6024	0.0179
781.7752	0.0117
781.9479	0.0518
782.1206	0.0019
782.2933	0.0345
782.466	0.0352
782.6386	-0.0093
782.8113	0.023
782.9839	-0.0072
783.1565	0.0092
783.329	0.0235
783.5016	-0.0137
783.6741	-0.0228
783.8466	0.0478
784.0191	0.0458
784.1916	-0.0366
784.3641	-0.0253
784.5365	0.0437
784.7089	-0.027
784.8813	0.0699
785.0537	0.0324
785.2261	0.0109
785.3984	-0.0037
785.5707	-0.0226
785.743	0.0693
785.9153	0.0079
786.0876	-0.0197
786.2598	-0.0171
786.432	0.0304
786.6042	0.0332
786.7764	-0.0221
786.9486	0.0088
787.1207	0.0258
787.2928	0.0485
787.4649	0.0175
787.637	0.0153
787.8091	0.0045
787.9811	0.0282
788.1532	0.043
788.3252	-0.0089
788.4972	-0.0084
788.6691	-0.0141
788.8411	0.0076
789.013	0.0189
789.1849	0.0004
789.3568	0.0182
789.5287	0.024
789.7005	-0.0207
789.8723	-0.0337
790.0442	-0.0292
790.2159	0.0111
790.3877	0.029
790.5595	0.0069
790.7312	-0.0266
790.9029	-0.0234
791.0746	-0.0225
791.2463	-0.0074
791.4179	0.0179
791.5896	0.0075
791.7612	0.0066
791.9328	0.0173
792.1044	-0.0488
792.2759	-0.0722
792.4474	0.0333
792.619	-0.0538
792.7905	0.0052
792.9619	0.0534
793.1334	0.0565
793.3048	0.0782
793.4762	-0.0412
793.6476	-0.0249
793.819	-0.0069
793.9904	-0.0057
794.1617	0.0004
794.333	0.0279
794.5043	0.0306
794.6756	0.0038
794.8469	0.0016
795.0181	-0.0059
795.1893	0.0554
795.3605	0.0249
795.5317	0.0167
795.7029	-0.0412
795.874	0.0138
796.0452	0.0246
796.2163	0.0061
796.3873	0.0876
796.5584	0.0539
796.7294	0.0448
796.9005	0.0424
797.0715	0.0303
797.2425	0.035
797.4134	-0.0107
797.5844	0.0633
797.7553	-0.0392
797.9262	0.0627
798.0971	0.0263
798.2679	0.0105
798.4388	0.0086
798.6096	0.0133
798.7804	0.0363
798.9512	0.058
799.122	-0.0069
799.2927	0.1017
799.4635	-0.0166
799.6342	-0.0538
799.8049	0.0677
799.9755	-0.0304
800.1462	-0.0446
800.3168	0.0155
800.4874	-0.0994
800.658	0.072
800.8286	-0.0262
800.9991	0.0404
801.1696	-0.0314
801.3402	-0.0107
801.5106	-0.0597
801.6811	-0.0493
801.8516	0.1096
802.022	0.0204
802.1924	-0.0424
802.3628	0.0091
802.5332	0.1188
802.7035	0.0769
802.8739	0.0211
803.0442	0.0281
803.2145	0.0297
803.3847	0.0733
803.555	0.0221
803.7252	0.01
803.8954	-0.0458
804.0656	0.0194
804.2358	0.014
804.4059	-0.0053
804.5761	0.0492
804.7462	-0.0143
804.9163	0.0269
805.0864	-0.0277
805.2564	-0.0387
805.4264	0.0178
805.5965	0.0285
805.7665	-0.0111
805.9364	0.0151
806.1064	0.0211
806.2763	0.0591
806.4462	-0.0041
806.6161	0.0175
806.786	0.0537
806.9559	-0.0014
807.1257	0.0067
807.2955	0.0132
807.4653	0.0394
807.6351	-0.0114
807.8048	0.0105
807.9746	0.0277
808.1443	-0.0392
808.314	0.0186
808.4837	0.0096
808.6533	-0.0535
808.8229	0.0415
808.9926	0.0203
809.1622	0.0387
809.3317	0.0277
809.5013	-0.008
809.6708	0.0249
809.8403	0.0091
810.0098	-0.0181
810.1793	-0.0369
810.3488	-0.0411
810.5182	0.1076
810.6876	0.0772
810.857	0.0287
811.0264	-0.0811
811.1958	0.0329
811.3651	0.0281
811.5344	0.0511
811.7037	0.1095
811.873	0.1068
812.0422	-0.0455
812.2115	-0.0056
812.3807	-0.0561
812.5499	0.0228
812.7191	-0.0669
812.8882	-0.0597
813.0574	-0.0432
813.2265	0.1131
813.3956	0.0451
813.5646	-0.0315
813.7337	0.025
813.9027	-0.0381
814.0718	0.0051
814.2407	0.0725
814.4097	0.0632
814.5787	0.0859
814.7476	0.0437
814.9165	0.0307
815.0854	0.0011
815.2543	-0.0474
815.4232	0.1045
815.592	0.0667
815.7608	-0.0888
815.9296	0.0101
816.0984	0.0389
816.2671	-0.2844
816.4359	0.1376
816.6046	0.0302
816.7733	-0.1787
816.942	-0.0011
817.1106	0.006
817.2793	-0.0475
817.4479	-0.0348
817.6165	0.0855
817.785	0.0222
817.9536	-0.1079
818.1221	0.0246
818.2906	-0.0664
818.4591	0.0738
818.6276	0.1321
818.7961	-0.0199
818.9645	-0.0209
819.1329	-0.0059
819.3013	-0.0199
819.4697	-0.0387
819.638	0.1524
819.8064	-0.0328
819.9747	-0.0174
820.143	-0.0133
820.3113	0.0773
820.4795	0.1061
820.6477	0.0607
820.816	0.0441
820.9842	-0.0076
821.1523	0.0351
821.3205	0.0393
821.4886	0.0053
821.6567	-0.0034
821.8248	0.1109
821.9929	-0.0804
822.1609	0.0595
822.329	0.039
822.497	-0.0453
822.665	-0.0471
822.833	0.0295
823.0009	0.0585
823.1688	0.1786
823.3367	-0.1946
823.5046	0.0099
823.6725	-0.0622
823.8404	-0.002
824.0082	0.0021
824.176	-0.0919
824.3438	0.1031
824.5116	-0.0381
824.6793	0.1166
824.847	-0.0669
825.0147	0.02
825.1824	-0.0081
825.3501	0.1381
825.5177	0.062
825.6854	-0.1308
825.853	-0.0599
826.0206	0.0727
826.1881	-0.0015
826.3557	0.0277
826.5232	0.1776
826.6907	0.0461
826.8582	-0.1393
827.0257	0.0851
827.1931	0.1112
827.3605	0.0341
827.528	0.2061
827.6953	-0.2579
827.8627	0.0641
828.03	0.0194
828.1974	-0.1546
828.3647	0.0627
828.532	0.1322
828.6992	0.1294
828.8665	-0.2191
829.0337	-0.0832
829.2009	-0.1438
829.3681	0.0248
829.5352	-0.2961
829.7024	0.0739
829.8695	-0.0237
830.0366	0.0827
830.2037	0.2639
830.3707	0.2906
830.5378	-0.1259
830.7048	0.0122
830.8718	0.2101
831.0388	-0.1012
831.2057	0.327
831.3727	-0.3283
831.5396	0.0127
831.7065	-0.8683
831.8734	0.4275
832.0402	0.2784
832.2071	-0.3164
832.3739	0.0068
832.5407	-0
832.7075	-0.2279
832.8742	-0.0264
833.041	-0.0738
833.2077	0.1508
833.3744	0.1952
833.541	0.1387
833.7077	-0.1487
833.8743	-0.0261
834.0409	0.1015
834.2075	0.2225
834.3741	-0.1599
834.5407	0.1864
834.7072	0.2576
834.8737	-0.0857
835.0402	0.2005
835.2067	0.1008
835.3731	-0.1149
835.5395	0.1019
835.706	-0.1769
835.8723	0.3897
836.0387	0.1021
836.2051	0.9509
836.3714	0.2013
836.5377	0.2457
836.704	0.0883
836.8703	0.0443
837.0365	-0.5673
837.2027	0.5066
837.3689	0.2511
837.5351	0.3493
837.7013	0.0711
837.8674	-0.1783
838.0335	0.003
838.1997	0.1126
838.3657	-0
838.5318	-0.0763
838.6978	-0
838.8639	-0.5504
839.0299	0.063
839.1958	0.3131
839.3618	-0.1103
839.5277	0.146
839.6937	-0.1445
839.8596	-0.1077
840.0254	0.0691
840.1913	-0.4018
840.3571	-0.1531
840.523	-0
840.6888	0.1083
840.8545	-0.7338
841.0203	0.2126
841.186	0.0354
841.3517	-0.0642
841.5174	0.2267
841.6831	0.024
841.8488	-0.0199
842.0144	0.0057
842.18	0.1214
842.3456	-0.6926
842.5112	-0
842.6767	-0.1908
842.8422	-0.1166
843.0077	0.1801
843.1732	-0.4499
843.3387	-0
843.5042	-0
843.6696	0.3422
843.835	0.2836
844.0004	-0.0868
844.1657	-0
844.3311	-0.2387
844.4964	-0.1077
844.6617	0.298
844.827	-0
844.9923	0.2801
845.1575	-0.1288
845.3227	-0.0276
845.4879	-0.4545
845.6531	1.2003
845.8183	-0.0301
845.9834	0.5526
846.1485	0.5604
846.3136	-0.3981
846.4787	-0
846.6438	-0.0998
846.8088	0.0161
846.9738	-0
847.1388	0.3221
847.3038	0.1174
847.4687	-0
847.6337	0.7236
847.7986	0.0875
847.9635	-0.1159
848.1284	-0
848.2932	0.1429
848.458	-0
848.6228	0.4172
848.7876	0.1466
848.9524	-0.1223
849.1172	-2.0049
849.2819	-0.418
849.4466	0.1921
849.6113	0.2519
849.7759	-0
849.9406	0.148
850.1052	-0
850.2698	-0
850.4344	0.5788
850.599	-0.3201
850.7635	0.6626
850.928	0.3903
851.0925	0.413
851.257	-0
851.4215	0.5824
851.5859	-0.0786
851.7503	-0
851.9147	-0.2985
852.0791	0.0508
852.2434	0.0525
852.4078	-0
852.5721	0.335
852.7364	-0.0145
852.9007	-0.104
853.0649	-0
853.2291	0.2703
853.3934	-0
853.5575	-0.1654
853.7217	0.7137
853.8859	-0.7535
854.05	0.2909
854.2141	0.3438
854.3782	-0.3163
854.5423	-0
854.7063	0.1497
854.8703	-0.0106
855.0343	0.4253
855.1983	0.0613
855.3623	0.0997
855.5262	-0
855.6901	0.275
855.854	0.5244
856.0179	0.0982
856.1818	0.327
856.3456	0.4954
856.5094	-0.3216
856.6732	-0
856.837	-1.3512
857.0008	0.9337
857.1645	0.0131
857.3282	-0.4159
857.4919	-0.1002
857.6556	-0.4873
857.8192	-0.222
857.9828	-0.3531
858.1465	-0
858.31	-0
858.4736	-0.4594
858.6372	-0.236
858.8007	0.3084
858.9642	0.6743
859.1277	0.9315
859.2911	-0.4306
859.4546	-0
859.618	-0
859.7814	-0
859.9448	0.1405
860.1081	-0
860.2715	-0
860.4348	-0.1551
860.5981	-0
860.7614	-0.3675
860.9246	-0.0054
861.0879	0.0182
861.2511	-0.7166
861.4143	-0
861.5774	-0.3802
861.7406	1.0331
861.9037	0.4327
862.0668	-0.5693
862.2299	0.009
862.393	-0
862.556	0.1607
862.7191	-0.2545
862.8821	0.0363
863.0451	0.2528
863.208	-0.179
863.371	-0.0206
863.5339	0.1875
863.6968	0.9094
863.8597	-0.3871
864.0225	-0
864.1854	0.1996
864.3482	-0
864.511	0.4958
864.6737	-0
864.8365	-0
864.9992	-0
865.1619	-0.2545
865.3246	-0
865.4873	-0
865.65	-0
865.8126	-0.0891
865.9752	-0.2996
866.1378	-0.035
866.3004	-0.3363
866.4629	-1.9975
866.6254	-0.0501
866.7879	0.2721
866.9504	0.0177
867.1129	-0.0914
867.2753	-0.4439
867.4377	0.4147
867.6001	-0.7083
867.7625	-0.0257
867.9249	0.0114
868.0872	0.3769
868.2495	-0
868.4118	-0
868.5741	-0.6226
868.7363	-0.0685
868.8986	-0.1888
869.0608	0.7236
869.223	-0.7701
869.3851	-0
869.5473	-0.1089
869.7094	-0
869.8715	-0
870.0336	-0.1366
870.1957	-0.9136
870.3577	-0.0404
870.5197	0.0066
870.6817	-0.7498
870.8437	0.6917
871.0057	0.4725
871.1676	0.2941
871.3295	0.3549
871.4914	-1.0792
871.6533	-0.4406
871.8151	-0.091
871.977	-0.5708
872.1388	-0.5005
872.3006	-0
872.4623	-0.0267
872.6241	-0.0045
872.7858	0.4855
872.9475	0.2645
873.1092	-0.2072
873.2709	0.096
873.4325	-1.0792
873.5941	-0.2663
873.7557	0.1093
873.9173	0.1488
874.0789	0.2764
874.2404	-0
874.4019	-0.1394
874.5634	-0
874.7249	0.869
874.8863	0.2867
875.0478	-0.2194
875.2092	0.4055
875.3706	-0
875.5319	-0.1166
875.6933	0.3715
875.8546	-0
876.0159	0.2613
876.1772	-0.2226
876.3385	-0
876.4997	0.4581
876.6609	-0
876.8221	0.5289
876.9833	-0.1118
877.1445	0.2176
877.3056	-1.0649
877.4667	-0
877.6278	-0
877.7889	-0
877.9499	-0
878.111	-0.3676
878.272	-0
878.433	-0
878.5939	-0
878.7549	-0.1231
878.9158	-0.1164
879.0767	-0.2215
879.2376	0.2547
879.3984	1.0688
879.5593	1.0581
879.7201	-0.2341
879.8809	-0
880.0417	-0.1978
880.2024	-0.1079
880.3632	-0.516
880.5239	0.0845
880.6846	-0
880.8452	1.524
881.0059	-0.7018
881.1665	-0.2535
881.3271	-0
881.4877	-0.0122
881.6483	-1.0792
881.8088	-0
881.9693	-0.4508
882.1298	-0.4508
882.2903	-0.4508
