Data from D4ACN5uM440nmA_Absorbance_13-50-24-922.txt Node
Date: Fri Feb 21 13:50:24 GMT 2025
User: LASERRRRR
Spectrometer: FLMT03099
Trigger mode: 0
Integration Time (sec): 1.500000E-2
Scans to average: 1
Electric dark correction enabled: true
Nonlinearity correction enabled: false
Boxcar width: 0
XAxis mode: Wavelengths
Number of Pixels in Spectrum: 3648
>>>>>Begin Spectral Data<<<<<
179.3399	-0.8044
179.5586	-0.8044
179.7771	-0.8044
179.9957	0.2222
180.2143	-0
180.4329	0.0639
180.6514	-0
180.8699	-0.1136
181.0885	-0.1155
181.307	0.0666
181.5255	0.3003
181.744	0.1938
181.9625	0.608
182.181	-0
182.3994	-0.5917
182.6179	-0
182.8363	-0
183.0547	-0.0443
183.2732	0.1844
183.4916	0.3137
183.71	0.2622
183.9284	0.0759
184.1467	0.222
184.3651	0.0097
184.5835	0.2351
184.8018	0.3278
185.0201	0.2631
185.2385	0.0526
185.4568	0.1243
185.6751	0.1738
185.8934	0.0386
186.1117	-0.1187
186.3299	0.428
186.5482	0.1594
186.7664	0.6473
186.9847	-0.0555
187.2029	0.9968
187.4211	-0.0238
187.6393	0.2821
187.8575	0.1783
188.0757	0.2692
188.2939	-0.0067
188.512	0.1535
188.7302	0.137
188.9483	0.1787
189.1665	0.331
189.3846	0.3375
189.6027	0.2478
189.8208	0.2627
190.0389	0.4
190.257	0.1138
190.475	0.0956
190.6931	0.0889
190.9111	0.3221
191.1292	0.1787
191.3472	0.2118
191.5652	0.3618
191.7832	0.2567
192.0012	0.2197
192.2192	0.4099
192.4371	0.1265
192.6551	0.1484
192.873	0.1061
193.091	0.2481
193.3089	0.2052
193.5268	0.1811
193.7447	0.1402
193.9626	0.201
194.1805	0.2083
194.3984	0.2864
194.6162	0.2264
194.8341	0.2437
195.0519	0.2083
195.2697	0.216
195.4875	0.2636
195.7054	0.2967
195.9231	0.2164
196.1409	0.367
196.3587	0.3526
196.5765	0.3189
196.7942	0.3169
197.012	0.287
197.2297	0.3529
197.4474	0.357
197.6651	0.3581
197.8828	0.325
198.1005	0.4156
198.3182	0.3871
198.5358	0.4201
198.7535	0.38
198.9711	0.4153
199.1888	0.3714
199.4064	0.344
199.624	0.3927
199.8416	0.3437
200.0592	0.3858
200.2767	0.3716
200.4943	0.475
200.7119	0.3538
200.9294	0.4634
201.1469	0.412
201.3645	0.4504
201.582	0.392
201.7995	0.4308
202.017	0.4309
202.2344	0.4403
202.4519	0.3972
202.6694	0.3728
202.8868	0.416
203.1042	0.4355
203.3217	0.422
203.5391	0.3984
203.7565	0.3869
203.9739	0.3598
204.1913	0.3375
204.4086	0.3369
204.626	0.4008
204.8433	0.3796
205.0607	0.3609
205.278	0.3559
205.4953	0.3552
205.7126	0.3751
205.9299	0.3188
206.1472	0.3454
206.3644	0.3506
206.5817	0.3461
206.7989	0.3421
207.0162	0.3105
207.2334	0.3182
207.4506	0.3039
207.6678	0.3098
207.885	0.2994
208.1022	0.3115
208.3194	0.2893
208.5365	0.3101
208.7537	0.2713
208.9708	0.3184
209.1879	0.2946
209.405	0.2643
209.6222	0.2753
209.8392	0.3089
210.0563	0.2715
210.2734	0.2839
210.4905	0.2657
210.7075	0.26
210.9245	0.2568
211.1416	0.2762
211.3586	0.2647
211.5756	0.2628
211.7926	0.267
212.0096	0.2535
212.2265	0.2448
212.4435	0.2618
212.6604	0.2403
212.8774	0.2337
213.0943	0.2531
213.3112	0.2555
213.5281	0.2665
213.745	0.2457
213.9619	0.2611
214.1788	0.2619
214.3956	0.2385
214.6125	0.2381
214.8293	0.2475
215.0461	0.2398
215.2629	0.2543
215.4798	0.2672
215.6965	0.2353
215.9133	0.2337
216.1301	0.2409
216.3469	0.2514
216.5636	0.2443
216.7803	0.2404
216.9971	0.246
217.2138	0.2409
217.4305	0.2507
217.6472	0.2499
217.8639	0.2533
218.0805	0.2464
218.2972	0.2419
218.5138	0.261
218.7305	0.2711
218.9471	0.2522
219.1637	0.2644
219.3803	0.2706
219.5969	0.2426
219.8135	0.2644
220.0301	0.247
220.2466	0.2608
220.4632	0.2582
220.6797	0.2478
220.8962	0.2646
221.1127	0.2768
221.3292	0.2643
221.5457	0.2674
221.7622	0.263
221.9787	0.2933
222.1951	0.2698
222.4116	0.274
222.628	0.2884
222.8444	0.2807
223.0608	0.2915
223.2772	0.2754
223.4936	0.2771
223.71	0.2815
223.9264	0.2849
224.1427	0.2805
224.3591	0.2897
224.5754	0.2895
224.7917	0.2956
225.008	0.2972
225.2243	0.2943
225.4406	0.2907
225.6569	0.3061
225.8732	0.3154
226.0894	0.3033
226.3057	0.3132
226.5219	0.308
226.7381	0.3249
226.9543	0.3182
227.1705	0.3178
227.3867	0.3133
227.6029	0.325
227.8191	0.332
228.0352	0.3393
228.2513	0.3421
228.4675	0.3376
228.6836	0.3431
228.8997	0.3418
229.1158	0.355
229.3319	0.3677
229.548	0.3561
229.764	0.3576
229.9801	0.3761
230.1961	0.3651
230.4121	0.3613
230.6282	0.3761
230.8442	0.386
231.0602	0.3859
231.2761	0.3775
231.4921	0.3935
231.7081	0.3947
231.924	0.3996
232.14	0.4036
232.3559	0.4006
232.5718	0.4072
232.7877	0.4069
233.0036	0.3967
233.2195	0.4156
233.4353	0.4115
233.6512	0.4191
233.867	0.4242
234.0829	0.4149
234.2987	0.431
234.5145	0.4259
234.7303	0.4403
234.9461	0.4408
235.1619	0.444
235.3776	0.4392
235.5934	0.4346
235.8091	0.4341
236.0249	0.4367
236.2406	0.4346
236.4563	0.4428
236.672	0.4449
236.8877	0.4525
237.1034	0.4504
237.319	0.4436
237.5347	0.4509
237.7503	0.4498
237.966	0.4572
238.1816	0.4522
238.3972	0.4586
238.6128	0.4777
238.8284	0.4711
239.0439	0.46
239.2595	0.4659
239.475	0.4566
239.6906	0.4618
239.9061	0.4652
240.1216	0.4639
240.3371	0.4661
240.5526	0.4616
240.7681	0.459
240.9836	0.4626
241.199	0.4602
241.4145	0.4458
241.6299	0.4453
241.8453	0.4391
242.0607	0.4543
242.2761	0.4415
242.4915	0.4272
242.7069	0.4242
242.9223	0.4255
243.1376	0.4119
243.353	0.4016
243.5683	0.4008
243.7836	0.3877
243.9989	0.3744
244.2142	0.3735
244.4295	0.3732
244.6448	0.3625
244.86	0.3487
245.0753	0.339
245.2905	0.3413
245.5057	0.3351
245.721	0.325
245.9362	0.3293
246.1514	0.3151
246.3665	0.309
246.5817	0.3067
246.7969	0.289
247.012	0.286
247.2271	0.293
247.4423	0.2822
247.6574	0.283
247.8725	0.2659
248.0876	0.2646
248.3026	0.2603
248.5177	0.2572
248.7328	0.2496
248.9478	0.2523
249.1628	0.2495
249.3779	0.2344
249.5929	0.2386
249.8079	0.2323
250.0228	0.229
250.2378	0.2293
250.4528	0.2314
250.6677	0.225
250.8827	0.2193
251.0976	0.2156
251.3125	0.215
251.5274	0.2045
251.7423	0.2042
251.9572	0.2108
252.172	0.2071
252.3869	0.2094
252.6017	0.2064
252.8166	0.1981
253.0314	0.1947
253.2462	0.1961
253.461	0.1917
253.6758	0.1961
253.8906	0.1973
254.1053	0.196
254.3201	0.1963
254.5348	0.1826
254.7496	0.1826
254.9643	0.1935
255.179	0.1893
255.3937	0.1895
255.6083	0.1873
255.823	0.189
256.0377	0.1819
256.2523	0.1827
256.467	0.1893
256.6816	0.1804
256.8962	0.1833
257.1108	0.1863
257.3254	0.1838
257.54	0.1783
257.7545	0.1844
257.9691	0.1821
258.1836	0.1753
258.3981	0.1878
258.6127	0.1703
258.8272	0.1781
259.0417	0.1764
259.2561	0.1753
259.4706	0.1712
259.6851	0.1796
259.8995	0.1807
260.114	0.1761
260.3284	0.1724
260.5428	0.1731
260.7572	0.1771
260.9716	0.1865
261.186	0.1685
261.4003	0.1798
261.6147	0.1748
261.829	0.1751
262.0433	0.1796
262.2577	0.1763
262.472	0.1763
262.6863	0.1835
262.9005	0.1756
263.1148	0.1695
263.3291	0.1761
263.5433	0.1746
263.7576	0.1812
263.9718	0.1804
264.186	0.1844
264.4002	0.1752
264.6144	0.1889
264.8286	0.174
265.0427	0.1819
265.2569	0.1828
265.471	0.1865
265.6851	0.1861
265.8993	0.1791
266.1134	0.1775
266.3275	0.1804
266.5415	0.1822
266.7556	0.1874
266.9697	0.1815
267.1837	0.1803
267.3978	0.1833
267.6118	0.1746
267.8258	0.1798
268.0398	0.1819
268.2538	0.1829
268.4677	0.1824
268.6817	0.1753
268.8957	0.1743
269.1096	0.1664
269.3235	0.1737
269.5374	0.1804
269.7514	0.1765
269.9652	0.1738
270.1791	0.1699
270.393	0.1722
270.6068	0.1774
270.8207	0.1688
271.0345	0.1735
271.2483	0.166
271.4622	0.1695
271.676	0.1721
271.8897	0.1696
272.1035	0.1788
272.3173	0.1699
272.531	0.1708
272.7448	0.169
272.9585	0.166
273.1722	0.1677
273.3859	0.1679
273.5996	0.1697
273.8133	0.1703
274.0269	0.1647
274.2406	0.1684
274.4542	0.1691
274.6679	0.1724
274.8815	0.1736
275.0951	0.1768
275.3087	0.1752
275.5223	0.1765
275.7358	0.1721
275.9494	0.1777
276.1629	0.175
276.3765	0.1739
276.59	0.1739
276.8035	0.1755
277.017	0.1791
277.2305	0.1824
277.444	0.1798
277.6574	0.1805
277.8709	0.1822
278.0843	0.1776
278.2978	0.183
278.5112	0.1772
278.7246	0.1734
278.938	0.175
279.1513	0.1821
279.3647	0.1805
279.5781	0.1791
279.7914	0.1758
280.0047	0.1788
280.2181	0.1786
280.4314	0.1772
280.6447	0.1844
280.8579	0.1791
281.0712	0.1773
281.2845	0.1831
281.4977	0.1808
281.711	0.1778
281.9242	0.1808
282.1374	0.1819
282.3506	0.183
282.5638	0.1832
282.7769	0.1736
282.9901	0.1783
283.2033	0.1817
283.4164	0.1866
283.6295	0.181
283.8426	0.1771
284.0557	0.1872
284.2688	0.1818
284.4819	0.1785
284.695	0.1852
284.908	0.1813
285.1211	0.1848
285.3341	0.185
285.5471	0.1863
285.7601	0.1821
285.9731	0.1905
286.1861	0.189
286.3991	0.1853
286.612	0.1868
286.825	0.19
287.0379	0.1845
287.2508	0.1936
287.4637	0.1878
287.6766	0.1876
287.8895	0.187
288.1024	0.1878
288.3152	0.1912
288.5281	0.19
288.7409	0.1903
288.9538	0.1959
289.1666	0.1922
289.3794	0.187
289.5922	0.1877
289.8049	0.1893
290.0177	0.1865
290.2304	0.1908
290.4432	0.1941
290.6559	0.1932
290.8686	0.1976
291.0813	0.1949
291.294	0.1992
291.5067	0.193
291.7194	0.1943
291.932	0.1902
292.1447	0.192
292.3573	0.1928
292.5699	0.1951
292.7825	0.1893
292.9951	0.1915
293.2077	0.1899
293.4203	0.1956
293.6328	0.192
293.8454	0.1929
294.0579	0.1922
294.2704	0.1972
294.4829	0.1887
294.6954	0.1899
294.9079	0.1884
295.1204	0.1897
295.3328	0.1919
295.5453	0.1912
295.7577	0.1949
295.9701	0.1916
296.1825	0.1963
296.3949	0.1921
296.6073	0.184
296.8197	0.1908
297.0321	0.1943
297.2444	0.1897
297.4567	0.197
297.6691	0.1862
297.8814	0.1922
298.0937	0.193
298.306	0.1892
298.5182	0.198
298.7305	0.1967
298.9428	0.1971
299.155	0.188
299.3672	0.1933
299.5794	0.1927
299.7916	0.1939
300.0038	0.1951
300.216	0.1907
300.4282	0.1877
300.6403	0.1938
300.8525	0.1967
301.0646	0.1905
301.2767	0.195
301.4888	0.1914
301.7009	0.1967
301.913	0.197
302.125	0.1911
302.3371	0.1918
302.5491	0.199
302.7612	0.2024
302.9732	0.1924
303.1852	0.1955
303.3972	0.195
303.6092	0.1916
303.8211	0.1897
304.0331	0.1869
304.245	0.1878
304.457	0.1883
304.6689	0.1896
304.8808	0.1841
305.0927	0.1863
305.3046	0.1914
305.5164	0.1827
305.7283	0.1879
305.9401	0.1736
306.152	0.1763
306.3638	0.1832
306.5756	0.1791
306.7874	0.1757
306.9992	0.172
307.2109	0.1692
307.4227	0.1723
307.6344	0.1734
307.8462	0.175
308.0579	0.1698
308.2696	0.1678
308.4813	0.1691
308.693	0.1624
308.9046	0.1629
309.1163	0.161
309.328	0.1624
309.5396	0.1562
309.7512	0.1523
309.9628	0.1553
310.1744	0.1516
310.386	0.1468
310.5976	0.1437
310.8091	0.1498
311.0207	0.1522
311.2322	0.1458
311.4437	0.1451
311.6552	0.1377
311.8667	0.1405
312.0782	0.1443
312.2897	0.1462
312.5012	0.1379
312.7126	0.1372
312.924	0.138
313.1355	0.1355
313.3469	0.1367
313.5583	0.1336
313.7696	0.129
313.981	0.1387
314.1924	0.1315
314.4037	0.134
314.6151	0.1291
314.8264	0.132
315.0377	0.1298
315.249	0.1316
315.4603	0.1275
315.6716	0.1275
315.8828	0.1253
316.0941	0.1264
316.3053	0.1257
316.5165	0.1302
316.7277	0.1201
316.9389	0.1257
317.1501	0.1265
317.3613	0.1204
317.5724	0.1247
317.7836	0.1137
317.9947	0.1232
318.2058	0.1208
318.417	0.1198
318.6281	0.1239
318.8391	0.1272
319.0502	0.1249
319.2613	0.1234
319.4723	0.1207
319.6834	0.1274
319.8944	0.1208
320.1054	0.1265
320.3164	0.1206
320.5274	0.118
320.7383	0.1202
320.9493	0.1213
321.1602	0.1232
321.3712	0.1223
321.5821	0.1188
321.793	0.127
322.0039	0.1232
322.2148	0.1242
322.4257	0.1227
322.6365	0.1183
322.8474	0.126
323.0582	0.1243
323.269	0.1221
323.4798	0.1309
323.6906	0.1214
323.9014	0.1181
324.1122	0.115
324.3229	0.1302
324.5337	0.1236
324.7444	0.1289
324.9551	0.1267
325.1658	0.1228
325.3765	0.1306
325.5872	0.1275
325.7979	0.1251
326.0085	0.1248
326.2192	0.1216
326.4298	0.129
326.6404	0.13
326.851	0.1139
327.0616	0.1249
327.2722	0.1248
327.4828	0.1262
327.6933	0.1358
327.9039	0.1282
328.1144	0.134
328.3249	0.1307
328.5354	0.1329
328.7459	0.1292
328.9564	0.1241
329.1669	0.1308
329.3773	0.1334
329.5878	0.1297
329.7982	0.1326
330.0086	0.1297
330.219	0.131
330.4294	0.1341
330.6398	0.1306
330.8502	0.135
331.0605	0.1305
331.2708	0.133
331.4812	0.1362
331.6915	0.138
331.9018	0.1343
332.1121	0.1356
332.3224	0.132
332.5326	0.1245
332.7429	0.132
332.9531	0.1424
333.1633	0.1252
333.3735	0.1308
333.5837	0.1354
333.7939	0.1355
334.0041	0.1348
334.2143	0.1323
334.4244	0.1461
334.6346	0.1371
334.8447	0.1364
335.0548	0.1351
335.2649	0.1392
335.475	0.1388
335.685	0.1375
335.8951	0.1302
336.1051	0.1324
336.3152	0.136
336.5252	0.1324
336.7352	0.1419
336.9452	0.137
337.1552	0.1413
337.3652	0.1346
337.5751	0.1402
337.7851	0.1419
337.995	0.1431
338.2049	0.1358
338.4148	0.1389
338.6247	0.1456
338.8346	0.1417
339.0445	0.1403
339.2543	0.1416
339.4642	0.1357
339.674	0.1382
339.8838	0.1425
340.0936	0.1393
340.3034	0.14
340.5132	0.1341
340.7229	0.142
340.9327	0.1442
341.1424	0.1432
341.3522	0.1379
341.5619	0.1465
341.7716	0.1475
341.9813	0.1487
342.1909	0.1477
342.4006	0.1517
342.6102	0.1487
342.8199	0.1547
343.0295	0.1452
343.2391	0.1499
343.4487	0.156
343.6583	0.1563
343.8679	0.146
344.0774	0.1473
344.287	0.151
344.4965	0.1478
344.706	0.1527
344.9155	0.1495
345.125	0.1505
345.3345	0.1622
345.544	0.1499
345.7534	0.1585
345.9629	0.158
346.1723	0.1634
346.3817	0.1573
346.5911	0.1608
346.8005	0.1549
347.0099	0.1588
347.2193	0.1636
347.4286	0.1656
347.638	0.1671
347.8473	0.1713
348.0566	0.1633
348.2659	0.1711
348.4752	0.1629
348.6845	0.1662
348.8937	0.166
349.103	0.1646
349.3122	0.166
349.5214	0.17
349.7306	0.175
349.9398	0.1704
350.149	0.169
350.3582	0.1799
350.5674	0.1752
350.7765	0.1737
350.9856	0.1695
351.1948	0.1773
351.4039	0.1784
351.613	0.1752
351.822	0.1777
352.0311	0.174
352.2402	0.1775
352.4492	0.1778
352.6582	0.178
352.8672	0.178
353.0762	0.1858
353.2852	0.1816
353.4942	0.1851
353.7032	0.1813
353.9121	0.1785
354.1211	0.1858
354.33	0.1855
354.5389	0.1812
354.7478	0.1709
354.9567	0.1814
355.1655	0.1837
355.3744	0.1835
355.5833	0.1811
355.7921	0.193
356.0009	0.1905
356.2097	0.1759
356.4185	0.1842
356.6273	0.1864
356.8361	0.1872
357.0448	0.1891
357.2536	0.1926
357.4623	0.1858
357.671	0.1951
357.8797	0.1954
358.0884	0.1879
358.2971	0.1885
358.5057	0.1989
358.7144	0.1957
358.923	0.2075
359.1316	0.2067
359.3402	0.2052
359.5488	0.1984
359.7574	0.2035
359.966	0.2026
360.1746	0.199
360.3831	0.2006
360.5916	0.2069
360.8002	0.2148
361.0087	0.2044
361.2172	0.2063
361.4256	0.2009
361.6341	0.2095
361.8426	0.2105
362.051	0.212
362.2594	0.2085
362.4678	0.219
362.6762	0.2217
362.8846	0.217
363.093	0.2188
363.3014	0.2178
363.5097	0.2158
363.718	0.2285
363.9264	0.2244
364.1347	0.2228
364.343	0.2243
364.5513	0.2172
364.7595	0.2341
364.9678	0.2224
365.176	0.2362
365.3842	0.2297
365.5925	0.2252
365.8007	0.2243
366.0089	0.2349
366.217	0.2333
366.4252	0.2295
366.6333	0.2378
366.8415	0.2382
367.0496	0.2298
367.2577	0.2418
367.4658	0.2327
367.6739	0.228
367.882	0.2442
368.09	0.2433
368.2981	0.2527
368.5061	0.2431
368.7141	0.2306
368.9221	0.2446
369.1301	0.2459
369.3381	0.2528
369.5461	0.2503
369.754	0.2435
369.962	0.2487
370.1699	0.2591
370.3778	0.2594
370.5857	0.2474
370.7936	0.2544
371.0015	0.2629
371.2093	0.2535
371.4172	0.2502
371.625	0.2565
371.8328	0.249
372.0406	0.2614
372.2484	0.2546
372.4562	0.2638
372.664	0.253
372.8717	0.2656
373.0795	0.2679
373.2872	0.266
373.4949	0.2651
373.7026	0.2648
373.9103	0.2607
374.118	0.265
374.3256	0.2642
374.5333	0.2727
374.7409	0.2628
374.9485	0.2698
375.1561	0.2741
375.3637	0.2621
375.5713	0.2743
375.7789	0.2634
375.9864	0.2643
376.194	0.2793
376.4015	0.2731
376.609	0.2767
376.8165	0.2827
377.024	0.276
377.2315	0.2794
377.4389	0.2746
377.6464	0.2856
377.8538	0.2816
378.0612	0.289
378.2686	0.2765
378.476	0.292
378.6834	0.2776
378.8908	0.282
379.0981	0.2819
379.3055	0.2893
379.5128	0.2862
379.7201	0.2935
379.9274	0.2936
380.1347	0.2939
380.342	0.2957
380.5492	0.2881
380.7565	0.2995
380.9637	0.2927
381.1709	0.2909
381.3781	0.3122
381.5853	0.2985
381.7925	0.2921
381.9997	0.2985
382.2068	0.2939
382.4139	0.3012
382.6211	0.2953
382.8282	0.3074
383.0353	0.3016
383.2424	0.2905
383.4494	0.2997
383.6565	0.3126
383.8635	0.2957
384.0706	0.3054
384.2776	0.2987
384.4846	0.3057
384.6916	0.3036
384.8986	0.3103
385.1055	0.3095
385.3125	0.3036
385.5194	0.3015
385.7263	0.3078
385.9333	0.2992
386.1402	0.3016
386.347	0.2941
386.5539	0.3071
386.7608	0.3035
386.9676	0.2995
387.1744	0.2999
387.3813	0.3039
387.5881	0.3041
387.7948	0.2984
388.0016	0.3156
388.2084	0.3021
388.4151	0.2977
388.6219	0.299
388.8286	0.3053
389.0353	0.3013
389.242	0.2958
389.4487	0.2991
389.6553	0.2884
389.862	0.2939
390.0686	0.302
390.2753	0.2961
390.4819	0.2953
390.6885	0.3
390.8951	0.2957
391.1016	0.291
391.3082	0.2977
391.5147	0.2861
391.7213	0.2891
391.9278	0.2898
392.1343	0.2947
392.3408	0.2868
392.5473	0.273
392.7537	0.2808
392.9602	0.2815
393.1666	0.2822
393.373	0.2811
393.5794	0.2805
393.7858	0.2881
393.9922	0.2762
394.1986	0.2755
394.4049	0.2727
394.6113	0.2818
394.8176	0.2719
395.0239	0.276
395.2302	0.2682
395.4365	0.2791
395.6428	0.2727
395.8491	0.2704
396.0553	0.262
396.2615	0.2718
396.4678	0.2671
396.674	0.2592
396.8802	0.2691
397.0863	0.2646
397.2925	0.2672
397.4987	0.257
397.7048	0.2574
397.9109	0.2662
398.117	0.2619
398.3231	0.2561
398.5292	0.2507
398.7353	0.2551
398.9413	0.2626
399.1474	0.2613
399.3534	0.261
399.5594	0.2658
399.7654	0.2608
399.9714	0.267
400.1774	0.26
400.3833	0.2642
400.5893	0.2565
400.7952	0.2656
401.0011	0.259
401.207	0.2565
401.4129	0.2535
401.6188	0.26
401.8247	0.267
402.0305	0.2625
402.2364	0.2662
402.4422	0.26
402.648	0.2625
402.8538	0.2536
403.0596	0.2558
403.2654	0.2526
403.4711	0.2509
403.6768	0.2594
403.8826	0.2603
404.0883	0.2666
404.294	0.2548
404.4997	0.2542
404.7054	0.263
404.911	0.2579
405.1167	0.2626
405.3223	0.2503
405.5279	0.2616
405.7335	0.261
405.9391	0.2611
406.1447	0.2596
406.3502	0.2552
406.5558	0.262
406.7613	0.2452
406.9668	0.2499
407.1724	0.2537
407.3778	0.248
407.5833	0.2489
407.7888	0.2618
407.9942	0.2466
408.1997	0.2603
408.4051	0.2444
408.6105	0.26
408.8159	0.251
409.0213	0.2622
409.2267	0.2608
409.432	0.2606
409.6374	0.2573
409.8427	0.251
410.048	0.2533
410.2533	0.2535
410.4586	0.2475
410.6639	0.2527
410.8691	0.251
411.0744	0.2514
411.2796	0.2638
411.4848	0.2629
411.69	0.2518
411.8952	0.26
412.1004	0.2665
412.3056	0.2484
412.5107	0.2632
412.7158	0.2602
412.921	0.2588
413.1261	0.2527
413.3312	0.2569
413.5362	0.2578
413.7413	0.2526
413.9464	0.25
414.1514	0.2506
414.3564	0.2543
414.5614	0.2513
414.7664	0.2434
414.9714	0.2503
415.1764	0.2483
415.3813	0.2482
415.5863	0.2573
415.7912	0.2509
415.9961	0.2619
416.201	0.2567
416.4059	0.2606
416.6108	0.2434
416.8156	0.2514
417.0205	0.2446
417.2253	0.2483
417.4301	0.2559
417.6349	0.2405
417.8397	0.2471
418.0445	0.2464
418.2492	0.2418
418.454	0.2447
418.6587	0.2478
418.8634	0.2419
419.0681	0.2359
419.2728	0.2558
419.4775	0.2571
419.6822	0.2355
419.8868	0.2433
420.0915	0.2395
420.2961	0.2288
420.5007	0.2364
420.7053	0.2427
420.9099	0.2395
421.1144	0.2407
421.319	0.2369
421.5235	0.2315
421.728	0.248
421.9325	0.2385
422.137	0.231
422.3415	0.2309
422.546	0.2267
422.7504	0.2315
422.9549	0.2315
423.1593	0.228
423.3637	0.2233
423.5681	0.2299
423.7725	0.2331
423.9769	0.2241
424.1812	0.2113
424.3856	0.2214
424.5899	0.2201
424.7942	0.2199
424.9985	0.2219
425.2028	0.2235
425.4071	0.2202
425.6113	0.2171
425.8156	0.218
426.0198	0.2266
426.224	0.2213
426.4282	0.2041
426.6324	0.209
426.8366	0.2084
427.0407	0.2055
427.2449	0.2127
427.449	0.2158
427.6531	0.2152
427.8572	0.2119
428.0613	0.2128
428.2654	0.2056
428.4694	0.2017
428.6735	0.2002
428.8775	0.2014
429.0815	0.2043
429.2855	0.1987
429.4895	0.193
429.6935	0.1935
429.8975	0.1872
430.1014	0.2052
430.3053	0.196
430.5093	0.1903
430.7132	0.1906
430.9171	0.1806
431.1209	0.1849
431.3248	0.1799
431.5286	0.1752
431.7325	0.1885
431.9363	0.1816
432.1401	0.1781
432.3439	0.1781
432.5477	0.1719
432.7514	0.1671
432.9552	0.1765
433.1589	0.16
433.3627	0.1753
433.5664	0.1607
433.7701	0.1671
433.9737	0.1602
434.1774	0.1693
434.3811	0.1575
434.5847	0.1638
434.7883	0.1563
434.9919	0.1449
435.1955	0.1643
435.3991	0.1508
435.6027	0.1451
435.8062	0.1611
436.0098	0.1481
436.2133	0.1458
436.4168	0.1378
436.6203	0.1398
436.8238	0.14
437.0272	0.1381
437.2307	0.1338
437.4341	0.1401
437.6375	0.1365
437.841	0.1248
438.0443	0.1297
438.2477	0.1203
438.4511	0.1226
438.6545	0.128
438.8578	0.1192
439.0611	0.1224
439.2644	0.1272
439.4677	0.1184
439.671	0.1056
439.8743	0.1217
440.0775	0.1113
440.2808	0.1179
440.484	0.1115
440.6872	0.1043
440.8904	0.0962
441.0936	0.1052
441.2967	0.095
441.4999	0.0938
441.703	0.0958
441.9062	0.1035
442.1093	0.1098
442.3124	0.0942
442.5155	0.1001
442.7185	0.0892
442.9216	0.082
443.1246	0.083
443.3276	0.0866
443.5307	0.0737
443.7337	0.0914
443.9366	0.0856
444.1396	0.0754
444.3426	0.0789
444.5455	0.0766
444.7484	0.074
444.9513	0.0815
445.1542	0.0766
445.3571	0.0752
445.56	0.0738
445.7628	0.0699
445.9657	0.0734
446.1685	0.0743
446.3713	0.0764
446.5741	0.0703
446.7769	0.0683
446.9797	0.0623
447.1824	0.0665
447.3852	0.0514
447.5879	0.0567
447.7906	0.0571
447.9933	0.0593
448.196	0.0514
448.3986	0.0486
448.6013	0.045
448.8039	0.0575
449.0066	0.0689
449.2092	0.0649
449.4118	0.0509
449.6143	0.0542
449.8169	0.0532
450.0195	0.0498
450.222	0.0565
450.4245	0.0453
450.627	0.0429
450.8295	0.0489
451.032	0.0398
451.2345	0.0437
451.4369	0.0455
451.6394	0.0397
451.8418	0.0476
452.0442	0.0506
452.2466	0.0311
452.449	0.0361
452.6513	0.0301
452.8537	0.031
453.056	0.0317
453.2583	0.0381
453.4607	0.0332
453.663	0.0378
453.8652	0.0255
454.0675	0.0355
454.2697	0.0365
454.472	0.0412
454.6742	0.0394
454.8764	0.0317
455.0786	0.0282
455.2808	0.029
455.4829	0.0287
455.6851	0.0271
455.8872	0.0269
456.0893	0.0194
456.2915	0.02
456.4935	0.0326
456.6956	0.0223
456.8977	0.0226
457.0997	0.026
457.3018	0.0273
457.5038	0.0352
457.7058	0.0286
457.9078	0.026
458.1098	0.0334
458.3117	0.0315
458.5137	0.0053
458.7156	0.0278
458.9175	0.0257
459.1194	0.0178
459.3213	0.0201
459.5232	0.0261
459.725	0.0179
459.9269	0.0272
460.1287	0.0141
460.3305	0.0178
460.5323	0.0201
460.7341	0.017
460.9359	0.0093
461.1376	0.0199
461.3394	0.0228
461.5411	0.0239
461.7428	0.0167
461.9445	0.0069
462.1462	0.0139
462.3479	0.014
462.5495	0.0163
462.7512	0.0318
462.9528	0.0113
463.1544	0.0124
463.356	0.0166
463.5576	0.0163
463.7592	0.0121
463.9607	0.013
464.1623	0.0137
464.3638	0.0123
464.5653	0.0207
464.7668	0.0197
464.9683	0.0113
465.1697	0.0133
465.3712	0.0068
465.5726	0.0101
465.7741	0.0181
465.9755	0.0141
466.1769	0.0082
466.3782	0.0101
466.5796	0.0141
466.7809	0.0066
466.9823	0.013
467.1836	0.007
467.3849	0.0096
467.5862	0.001
467.7875	0.0073
467.9887	0.0104
468.19	0.0102
468.3912	0.0183
468.5924	0.0089
468.7936	0.0111
468.9948	0.0088
469.196	0.0025
469.3972	0.0051
469.5983	0.0037
469.7994	0.0184
470.0006	0.0097
470.2017	0.0109
470.4027	0.0169
470.6038	0.0087
470.8049	0.007
471.0059	0.0117
471.2069	0.0148
471.408	0.0103
471.6089	0.0119
471.8099	0.0057
472.0109	0.0173
472.2119	0.0113
472.4128	0.0024
472.6137	0.0077
472.8146	0.0094
473.0155	0.0116
473.2164	0.0146
473.4173	0.0005
473.6181	0.0026
473.819	0.0096
474.0198	0.01
474.2206	-0.002
474.4214	0.0105
474.6222	-0.0074
474.8229	0.0068
475.0237	0.013
475.2244	0.0144
475.4251	0.004
475.6258	0.0091
475.8265	0.0065
476.0272	0.0037
476.2278	0.0054
476.4285	0.0081
476.6291	0.0101
476.8297	0.0191
477.0303	-0.0003
477.2309	0.0109
477.4315	0.0059
477.632	0.0003
477.8326	0.0094
478.0331	0.0103
478.2336	0.0063
478.4341	0.0075
478.6346	0.0014
478.8351	0.0021
479.0355	0.0132
479.236	0.0171
479.4364	-0.001
479.6368	0.0055
479.8372	0.0002
480.0376	0.0024
480.2379	0.0093
480.4383	0.0087
480.6386	-0.0011
480.8389	0.0095
481.0392	0.0069
481.2395	0.0062
481.4398	0.0075
481.6401	0.0149
481.8403	0.0016
482.0405	0.0048
482.2408	0.0094
482.441	0.01
482.6411	0.0049
482.8413	0.0035
483.0415	0.0162
483.2416	0.0027
483.4417	0.008
483.6419	-0.0007
483.8419	0.0001
484.042	0.0052
484.2421	0.0016
484.4422	0.0092
484.6422	0.0036
484.8422	0.0014
485.0422	0.0075
485.2422	0.0059
485.4422	0.004
485.6422	0.0042
485.8421	0.0064
486.042	0.0094
486.242	0.0016
486.4419	0.0033
486.6417	-0.0032
486.8416	0.0081
487.0415	0.004
487.2413	-0.0046
487.4411	0.004
487.641	0.0022
487.8408	0.0093
488.0405	0.0102
488.2403	0.0043
488.4401	0.0044
488.6398	0.0075
488.8395	0.0052
489.0392	0.0073
489.2389	0.0113
489.4386	0.0022
489.6383	0.0059
489.8379	0.0001
490.0376	0.006
490.2372	0.0009
490.4368	-0.0002
490.6364	-0.0037
490.836	0.0025
491.0355	0.0001
491.2351	0.0013
491.4346	0.0037
491.6341	-0.0018
491.8336	0.0146
492.0331	0.005
492.2326	0.0074
492.432	0.0013
492.6315	0.0094
492.8309	0.0054
493.0303	0.0016
493.2297	0.0113
493.4291	0.0009
493.6284	0.0044
493.8278	0.0082
494.0271	0.0013
494.2264	-0.002
494.4257	0.007
494.625	0.0027
494.8243	-0.0102
495.0236	0.0088
495.2228	0.0127
495.422	-0.0002
495.6213	0.0072
495.8205	0.0066
496.0196	0.006
496.2188	0.0071
496.418	0.0039
496.6171	0.0017
496.8162	0.01
497.0153	0.0101
497.2144	0.0035
497.4135	0.0113
497.6126	0.0045
497.8116	-0.0027
498.0107	0.0037
498.2097	0.015
498.4087	-0.0027
498.6077	-0.0023
498.8067	0.0066
499.0056	0.0001
499.2046	0.0118
499.4035	0.0041
499.6024	-0.0007
499.8013	0.01
500.0002	0.0084
500.199	0.0091
500.3979	0.0024
500.5967	0.0109
500.7956	0.009
500.9944	0.0059
501.1932	0.0178
501.3919	0.0118
501.5907	0.0076
501.7895	0.0035
501.9882	0.0039
502.1869	0.017
502.3856	0.0047
502.5843	0.0017
502.783	0.0083
502.9816	0.0077
503.1803	0.0052
503.3789	0.0104
503.5775	0.004
503.7761	0.0074
503.9747	0.0134
504.1732	-0.0024
504.3718	0.0155
504.5703	0.0077
504.7689	-0.0019
504.9674	0.0034
505.1658	-0.0021
505.3643	0.0074
505.5628	0.0072
505.7612	0.0087
505.9597	0.0028
506.1581	0.0015
506.3565	0.0029
506.5549	-0.0004
506.7532	0.0016
506.9516	0.0077
507.1499	-0.0011
507.3482	0.0062
507.5465	0.0063
507.7448	0.0016
507.9431	0.0055
508.1414	0.0004
508.3396	0.0046
508.5379	0.0045
508.7361	0.0043
508.9343	0.0063
509.1325	0.0096
509.3306	-0.0023
509.5288	-0.0034
509.7269	0.0084
509.9251	0.0058
510.1232	0.0118
510.3213	0.0057
510.5193	0.0046
510.7174	0.0034
510.9154	0.0041
511.1135	0.0008
511.3115	0.0015
511.5095	0.0032
511.7075	0.0077
511.9055	0.011
512.1034	0.0084
512.3014	0.0091
512.4993	0.0128
512.6972	0.0034
512.8951	0.0086
513.093	0.0038
513.2908	0.0149
513.4887	0.0072
513.6865	0.002
513.8844	0.0128
514.0822	0.0156
514.2799	-0.0047
514.4777	-0.0066
514.6755	0.0096
514.8732	0.0049
515.0709	0.001
515.2687	0.0003
515.4664	0.0144
515.664	0.0077
515.8617	0.0092
516.0594	0.0047
516.257	0.0115
516.4546	0.0181
516.6522	0.0092
516.8498	0.0072
517.0474	0.0086
517.2449	0.0028
517.4425	0.0095
517.64	0.0008
517.8375	0.0076
518.035	-0.0052
518.2325	-0.0077
518.43	0.0038
518.6274	-0.0038
518.8249	-0.0082
519.0223	0.0073
519.2197	0.0022
519.4171	-0.0068
519.6145	0.015
519.8118	-0.0065
520.0092	0.0015
520.2065	0.0104
520.4038	0.0122
520.6011	0.0042
520.7984	0.0056
520.9956	0.0069
521.1929	0.0063
521.3901	-0.0002
521.5874	0.0116
521.7846	0.0033
521.9818	-0.001
522.1789	-0.0054
522.3761	0.0184
522.5732	-0.001
522.7704	-0.007
522.9675	-0.0066
523.1646	-0.0053
523.3617	0.0086
523.5587	0.0141
523.7558	0.0029
523.9528	0.0076
524.1498	0.0039
524.3468	0.0093
524.5438	0.0109
524.7408	-0.0028
524.9378	0.0112
525.1347	0.0094
525.3316	0.0037
525.5285	0.0089
525.7254	0.0045
525.9223	0.0063
526.1192	-0.0005
526.316	0.0068
526.5129	-0.0023
526.7097	0.0068
526.9065	0.0151
527.1033	-0.002
527.3	-0.0027
527.4968	0.0067
527.6935	-0.0045
527.8903	-0.0043
528.087	0.0084
528.2837	0.0137
528.4804	0.0079
528.677	0.0073
528.8737	0.0061
529.0703	0.0044
529.2669	0.006
529.4635	0.0096
529.6601	-0.0092
529.8567	0.0014
530.0532	-0.0035
530.2498	0.0003
530.4463	-0.0084
530.6428	-0.0027
530.8393	0.0175
531.0358	-0.0002
531.2322	-0.0033
531.4287	0.01
531.6251	-0.0048
531.8215	0.0047
532.0179	0.0051
532.2143	0.0092
532.4107	0.0076
532.607	-0.0044
532.8034	0.0095
532.9997	0.0005
533.196	0.0048
533.3923	0.0112
533.5886	0.0158
533.7848	-0.0023
533.9811	0.0127
534.1773	0.0033
534.3735	0.0165
534.5697	0.0091
534.7659	0.0121
534.9621	0.0056
535.1582	0.0073
535.3544	0.0033
535.5505	0.0052
535.7466	0.0066
535.9427	0.0017
536.1387	-0.0045
536.3348	0.0073
536.5308	-0.0023
536.7269	-0.0001
536.9229	0.0029
537.1189	0.0081
537.3148	-0.0068
537.5108	0.0077
537.7068	0.0073
537.9027	-0.0066
538.0986	0.0071
538.2945	-0.0115
538.4904	-0.0088
538.6863	0.0059
538.8821	0.0193
539.078	0.0106
539.2738	0.0057
539.4696	-0.0076
539.6654	0.0043
539.8611	0.0111
540.0569	0.0031
540.2526	0.013
540.4484	-0.0024
540.6441	0.0045
540.8398	0.0097
541.0355	0.0019
541.2311	0.005
541.4268	0.0113
541.6224	0.013
541.818	0.0083
542.0136	0.017
542.2092	0.0094
542.4048	0.0097
542.6003	0.0058
542.7959	0.0056
542.9914	0.0116
543.1869	0.0152
543.3824	0.0093
543.5779	0.0073
543.7734	0.0109
543.9688	0.0084
544.1642	0.0027
544.3596	0.0112
544.555	0.0061
544.7504	0.0161
544.9458	0.0049
545.1411	-0.0007
545.3365	0.0083
545.5318	0.0128
545.7271	0.0052
545.9224	-0.0034
546.1177	0.0091
546.3129	0.0076
546.5081	0.0079
546.7034	0.0002
546.8986	0.0069
547.0938	0.0016
547.289	0.0134
547.4841	0.0101
547.6793	0.0061
547.8744	0.0129
548.0695	0.0025
548.2646	0.011
548.4597	0.0064
548.6548	0.0118
548.8498	0.0105
549.0448	0.0033
549.2399	0.0148
549.4349	0.0102
549.6298	0.01
549.8248	0.0049
550.0198	0.0162
550.2147	0.0103
550.4096	-0.0038
550.6045	-0.0046
550.7994	0.0136
550.9943	0.0099
551.1892	-0.0119
551.384	0.0142
551.5788	0.0071
551.7737	0.003
551.9685	0.0034
552.1632	0.0045
552.358	0.003
552.5528	0.0083
552.7475	0.0021
552.9422	0.0074
553.1369	0.0134
553.3316	0.0028
553.5263	0.0112
553.7209	0.0133
553.9156	0.0066
554.1102	0.0145
554.3048	0.0017
554.4994	-0.0011
554.694	0.0096
554.8885	0.0104
555.0831	-0.0018
555.2776	0.0048
555.4721	0.0007
555.6666	0.0042
555.8611	0.0125
556.0555	-0.0015
556.25	0.0038
556.4444	0.0019
556.6388	0.013
556.8332	0.0108
557.0276	0.0077
557.222	-0.0055
557.4163	0.0064
557.6107	-0.003
557.805	0.005
557.9993	0.0001
558.1936	-0.0061
558.3879	0.0113
558.5821	-0.0048
558.7764	-0.0063
558.9706	0.0022
559.1648	0.0079
559.359	0.0027
559.5532	0.0026
559.7473	0.0056
559.9415	0.0109
560.1356	0.0162
560.3297	-0.0062
560.5238	0.0131
560.7179	-0.0025
560.9119	0.0047
561.106	-0.015
561.3	0.004
561.494	-0.0054
561.688	0.0062
561.882	0.0019
562.076	0.0075
562.2699	0.0157
562.4639	0.0145
562.6578	0.0148
562.8517	0.0088
563.0456	0.0112
563.2395	0.0088
563.4333	0.0057
563.6272	0.0097
563.821	0.0059
564.0148	0.0092
564.2086	0.0013
564.4024	0.011
564.5961	0.0064
564.7899	0.0103
564.9836	0.0025
565.1773	0.017
565.371	0.007
565.5647	0.0112
565.7584	0.0049
565.952	0.0085
566.1456	-0.0014
566.3393	0.0099
566.5329	0.0088
566.7264	0.0029
566.92	0.0105
567.1136	0.0015
567.3071	-0.0074
567.5006	0.0108
567.6941	-0.0011
567.8876	0.0034
568.0811	0.0128
568.2745	0.0056
568.468	0.006
568.6614	0.0095
568.8548	0.003
569.0482	0.0066
569.2416	0.0016
569.4349	0.0036
569.6283	0.0015
569.8216	0.0064
570.0149	0.003
570.2082	0.0123
570.4015	0.0032
570.5947	0.0065
570.788	0.0111
570.9812	0.0016
571.1744	0.0055
571.3676	0.0015
571.5608	0.0047
571.754	0.011
571.9471	0.0064
572.1402	0.0034
572.3333	0.006
572.5264	0.0019
572.7195	0.006
572.9126	0.0018
573.1057	0.0038
573.2987	0.0017
573.4917	0.005
573.6847	0.0009
573.8777	0.0067
574.0707	0.0042
574.2636	0.0085
574.4566	0.0056
574.6495	0.004
574.8424	0.0027
575.0353	0.0072
575.2281	0.0112
575.421	0.002
575.6138	0.0023
575.8067	0.0074
575.9995	0.0045
576.1923	0.0081
576.385	0.0092
576.5778	0.0124
576.7706	0.0055
576.9633	0.0035
577.156	0.0014
577.3487	0.0073
577.5414	0.0032
577.734	0.0054
577.9267	0.0039
578.1193	0.0124
578.3119	0.0018
578.5045	0.0006
578.6971	0.0024
578.8897	0.0029
579.0822	0.0078
579.2747	0.0046
579.4673	0.0022
579.6598	0.0046
579.8522	0.0064
580.0447	0.0064
580.2372	0.0083
580.4296	0.0111
580.622	-0.0001
580.8144	0.0046
581.0068	0.0052
581.1992	0.0054
581.3915	0
581.5839	0.0044
581.7762	0.0025
581.9685	0.002
582.1608	0.0043
582.353	0.0043
582.5453	0.0083
582.7375	0.0081
582.9298	0.0013
583.122	0.002
583.3142	0.0031
583.5063	0.0038
583.6985	0.0013
583.8906	0.0043
584.0827	0.0079
584.2749	0.0041
584.4669	0.0032
584.659	0.008
584.8511	0.0093
585.0431	0.0064
585.2352	0.0028
585.4272	0.0033
585.6192	0.0103
585.8111	0.0039
586.0031	0.0021
586.195	0.0035
586.387	0.0067
586.5789	0.0078
586.7708	0.0063
586.9627	0.0043
587.1545	0.0047
587.3464	0.0037
587.5382	0.0045
587.73	0.0057
587.9218	-0.0007
588.1136	0.0023
588.3053	0.0054
588.4971	0.0044
588.6888	-0.0039
588.8805	0.0063
589.0722	0.0112
589.2639	0.0027
589.4556	0.0079
589.6472	0.01
589.8389	0.0044
590.0305	-0.0013
590.2221	0.0087
590.4137	0.0018
590.6052	0.0072
590.7968	0.0051
590.9883	0.0067
591.1798	0.0044
591.3713	0.0052
591.5628	0.0026
591.7543	0.0089
591.9458	-0.0007
592.1372	0.0112
592.3286	0.0014
592.52	0.0063
592.7114	0.0082
592.9028	0.011
593.0941	0.0014
593.2855	0.0021
593.4768	0.0126
593.6681	0.0144
593.8594	0.0064
594.0506	0.0041
594.2419	0.004
594.4331	0.0068
594.6244	0.0012
594.8156	0.0025
595.0067	-0.0001
595.1979	0.0037
595.3891	-0.0004
595.5802	0.0115
595.7713	0.0076
595.9624	0.0161
596.1535	0.01
596.3446	0.0037
596.5357	0.0086
596.7267	0.0047
596.9177	0.0036
597.1087	0.0003
597.2997	0.0048
597.4907	-0.0025
597.6817	0.0094
597.8726	0.0089
598.0635	-0.0036
598.2544	0.0065
598.4453	0.0031
598.6362	0.0047
598.827	0.0048
599.0179	0.0044
599.2087	0.0047
599.3995	0.0079
599.5903	0.0089
599.7811	0.0115
599.9718	0.0012
600.1626	0.0013
600.3533	0.0036
600.544	0.0054
600.7347	0.0049
600.9254	0.0136
601.116	0.0015
601.3067	0.0019
601.4973	0.0091
601.6879	0.0035
601.8785	0.0091
602.0691	0.0014
602.2596	0.0087
602.4502	0.0066
602.6407	0.0062
602.8312	0.0022
603.0217	0.0049
603.2122	0.0041
603.4027	0.0047
603.5931	0.0003
603.7835	0.0031
603.9739	-0.0007
604.1643	0.0077
604.3547	0.0119
604.5451	0.0071
604.7354	-0.0009
604.9257	0.0011
605.116	-0.0004
605.3063	0.0048
605.4966	0.0036
605.6869	0.0083
605.8771	0.0018
606.0673	0.0056
606.2575	-0.0001
606.4477	0.0115
606.6379	0.0006
606.8281	0.0045
607.0182	0.0005
607.2083	0.0032
607.3985	0.0087
607.5885	-0.0002
607.7786	0.0044
607.9687	0.0082
608.1587	0.011
608.3488	0.0024
608.5388	-0.0036
608.7288	-0.0005
608.9187	0.0046
609.1087	0.0045
609.2986	0.0041
609.4886	0.0012
609.6785	0.0011
609.8684	0.0034
610.0582	-0.0008
610.2481	0.0019
610.4379	0.0051
610.6278	0.006
610.8176	0.0085
611.0074	0.0094
611.1971	0.0004
611.3869	0.0074
611.5766	-0.0016
611.7664	0.0156
611.9561	0.0138
612.1458	0.009
612.3354	0.0053
612.5251	0.0049
612.7147	0.0045
612.9044	-0.0024
613.094	0.0065
613.2836	0.0036
613.4731	0.0004
613.6627	0.0052
613.8522	0.0085
614.0417	0.0107
614.2313	0.0106
614.4207	0.0092
614.6102	0.0079
614.7997	0.0124
614.9891	0.0108
615.1785	0.001
615.3679	0.0089
615.5573	0.0053
615.7467	-0.0013
615.9361	0.0056
616.1254	0.0071
616.3147	0.0025
616.504	0.0071
616.6933	0.0006
616.8826	0.0073
617.0718	0.0088
617.2611	0.0027
617.4503	0.0006
617.6395	0
617.8287	0.0045
618.0179	0.0092
618.207	0.0037
618.3961	0.0011
618.5853	0.0013
618.7744	0.0012
618.9634	0.012
619.1525	0.0033
619.3416	-0.0016
619.5306	0.0085
619.7196	0.009
619.9086	0.0089
620.0976	-0.0052
620.2866	0.0075
620.4755	0.0064
620.6645	-0.0001
620.8534	0.0082
621.0423	0.0045
621.2312	0.0007
621.42	-0.0003
621.6089	0.0075
621.7977	0.0071
621.9865	0.0014
622.1753	0.002
622.3641	-0.0025
622.5529	0.0006
622.7416	0.0081
622.9303	0.0006
623.1191	0.0127
623.3078	0.0006
623.4964	0.0048
623.6851	-0.0015
623.8737	0.0078
624.0624	-0.0091
624.251	-0.0007
624.4396	0.0011
624.6282	0.0128
624.8167	0.0004
625.0053	0.0167
625.1938	0.0027
625.3823	0.0066
625.5708	0.0136
625.7593	0.0014
625.9477	0.0057
626.1362	-0.0069
626.3246	0.004
626.513	0.0047
626.7014	0.0115
626.8898	0.0079
627.0781	0.0027
627.2665	0.01
627.4548	-0.0036
627.6431	0.0075
627.8314	0.0054
628.0197	0.0068
628.2079	-0.0024
628.3962	0.0031
628.5844	0.0023
628.7726	0.0021
628.9608	0.0087
629.1489	0.0073
629.3371	0.0029
629.5252	0.0127
629.7134	-0.0058
629.9015	0.0045
630.0895	-0.0099
630.2776	0.0034
630.4657	0.0039
630.6537	-0.0009
630.8417	-0.0016
631.0297	0.0003
631.2177	-0.0109
631.4057	-0.0005
631.5936	-0.0062
631.7815	0.0053
631.9695	0.0175
632.1574	0.0194
632.3452	0.017
632.5331	0.0081
632.7209	0.0078
632.9088	-0.0071
633.0966	0.0135
633.2844	0.0088
633.4722	0.0163
633.6599	0.0142
633.8477	0.0043
634.0354	0.0166
634.2231	-0.0029
634.4108	-0.0017
634.5985	0.0113
634.7861	0.0104
634.9738	-0.0067
635.1614	-0.0059
635.349	-0.0038
635.5366	0.0065
635.7242	0.0106
635.9117	0.0028
636.0993	0.0135
636.2868	-0.0029
636.4743	0.0069
636.6618	-0.0192
636.8492	0.0141
637.0367	-0.0005
637.2241	0.0027
637.4115	0.0269
637.5989	-0.0088
637.7863	0.0222
637.9737	-0.0063
638.161	0.011
638.3484	-0.0043
638.5357	0.0007
638.723	0.0201
638.9103	-0.014
639.0975	-0.0093
639.2848	0.0063
639.472	0.0109
639.6592	-0.0049
639.8464	-0.0001
640.0336	0.0161
640.2208	0.0042
640.4079	-0.0193
640.595	-0.0202
640.7821	0.0113
640.9692	-0.0026
641.1563	0.014
641.3434	0.0144
641.5304	0.0219
641.7174	0.0253
641.9044	0.0184
642.0914	0.0321
642.2784	0.023
642.4653	0.0001
642.6523	0.0055
642.8392	0.0129
643.0261	0.0102
643.213	0.0117
643.3999	0.0136
643.5867	0.0047
643.7735	0.0025
643.9604	0.0099
644.1472	0.0149
644.3339	0.0033
644.5207	0.0093
644.7075	0.0017
644.8942	0.0113
645.0809	-0.0067
645.2676	0.0055
645.4543	0.0155
645.6409	0.02
645.8276	0.0242
646.0142	0.0047
646.2008	0.0162
646.3874	-0.0063
646.574	0.0117
646.7605	-0.0055
646.9471	0.0107
647.1336	-0.0169
647.3201	0.0006
647.5066	0.0043
647.6931	0.0056
647.8795	-0.005
648.0659	0.009
648.2524	0.004
648.4388	0.005
648.6252	0.0104
648.8115	0.0071
648.9979	0.0034
649.1842	0.0006
649.3705	0.0067
649.5568	-0.0176
649.7431	-0.0099
649.9294	-0.0022
650.1156	-0.0074
650.3018	0.0219
650.488	0.0253
650.6742	0.009
650.8604	0.0159
651.0466	-0.0058
651.2327	0.0158
651.4188	-0.0055
651.6049	0.0256
651.791	0.0048
651.9771	0.01
652.1632	0.0107
652.3492	0.015
652.5352	0.006
652.7212	0.0026
652.9072	0.0137
653.0932	0.0111
653.2791	0.0121
653.465	0.0156
653.651	0.0001
653.8369	0.0154
654.0227	-0.0148
654.2086	0.0125
654.3944	0.0287
654.5803	0.0088
654.7661	0.0151
654.9519	-0.0031
655.1377	0
655.3234	0
655.5092	0
655.6949	0
655.8806	0
656.0663	0
656.2519	0
656.4376	0
656.6232	0
656.8088	0
656.9945	0
657.18	0
657.3656	0
657.5511	0
657.7367	0
657.9222	0
658.1077	0
658.2932	0
658.4786	0
658.6641	0
658.8495	0
659.0349	0
659.2203	0
659.4057	0
659.591	0.1462
659.7764	0.0348
659.9617	0.0099
660.147	0.0026
660.3323	-0.0035
660.5176	0.008
660.7028	-0.0011
660.888	0.006
661.0733	0.0144
661.2585	0.0063
661.4436	0.0182
661.6288	0.0179
661.8139	0.0128
661.9991	0.0081
662.1842	-0.0134
662.3693	0.0036
662.5544	0.0138
662.7394	0.0199
662.9245	0.0003
663.1095	-0.0067
663.2945	0.0103
663.4795	-0.0194
663.6644	-0.0047
663.8494	0.01
664.0343	0.0008
664.2193	0.0169
664.4042	0.0039
664.589	0.0132
664.7739	0.0025
664.9587	0.0043
665.1436	-0.0041
665.3284	0.0023
665.5132	-0.0091
665.698	0.023
665.8827	0.0225
666.0675	-0.0241
666.2522	0.0038
666.4369	0.0011
666.6216	0.0049
666.8063	-0.0201
666.9909	-0.0039
667.1756	-0.0042
667.3602	0.007
667.5448	0.0177
667.7294	0.0088
667.9139	0.006
668.0985	0.022
668.283	-0.0179
668.4675	0.0001
668.652	0.0215
668.8365	0.0061
669.0209	-0.0047
669.2054	0.0107
669.3898	0.0007
669.5742	0.0201
669.7586	0.0248
669.943	0.0143
670.1273	0.0181
670.3117	0.0165
670.496	0.002
670.6803	-0.0046
670.8646	-0.0312
671.0488	0.0351
671.2331	-0.0107
671.4173	0.0094
671.6015	-0.003
671.7857	0.0237
671.9699	0.0058
672.1541	-0.0052
672.3382	0.0092
672.5223	0.0027
672.7064	0.0065
672.8905	-0.0086
673.0746	0.0181
673.2587	0.0318
673.4427	0.0025
673.6267	0.0165
673.8107	0.0258
673.9947	0.0038
674.1787	0.0286
674.3626	0.0045
674.5465	0.0185
674.7304	0.0024
674.9143	-0.0175
675.0982	0.0097
675.2821	-0.0042
675.4659	-0.0151
675.6497	0.0244
675.8335	0.0209
676.0173	-0.0177
676.2011	0.0122
676.3849	-0.0018
676.5686	0.0086
676.7523	-0.0208
676.936	0.0072
677.1197	0.0064
677.3034	0.0282
677.487	0.0169
677.6706	0.0143
677.8542	-0.0026
678.0378	0.0084
678.2214	0.008
678.405	0.0054
678.5885	0.0007
678.772	0.0016
678.9555	-0.0014
679.139	0.001
679.3225	-0.0013
679.5059	-0.0122
679.6894	0.0064
679.8728	0.0037
680.0562	0.0091
680.2395	0.0043
680.4229	0.0243
680.6062	0.0186
680.7896	-0.0139
680.9729	0.0131
681.1562	-0.0077
681.3394	0.0048
681.5227	0.0105
681.7059	0.0119
681.8891	-0.0068
682.0723	0.0303
682.2555	-0.0012
682.4387	0.0105
682.6218	0.0191
682.805	0.0224
682.9881	0.0408
683.1712	0.0181
683.3542	0.0101
683.5373	-0.0016
683.7203	0.0142
683.9034	-0.0035
684.0864	0.0101
684.2694	0.0125
684.4523	0.0093
684.6353	0.0107
684.8182	0.0017
685.0011	-0.0018
685.184	-0.0083
685.3669	0.0283
685.5498	0.0004
685.7326	-0.0007
685.9154	0.0044
686.0982	0
686.281	-0.0081
686.4638	0.0053
686.6465	-0.0067
686.8293	-0.0002
687.012	0.0062
687.1947	0.0122
687.3774	0.0087
687.56	0.0067
687.7427	0.0024
687.9253	-0.0011
688.1079	-0.0023
688.2905	0.0086
688.4731	0.0143
688.6556	0.0035
688.8382	-0.0107
689.0207	0.0133
689.2032	0.0018
689.3857	-0.0026
689.5681	0.0073
689.7506	0.0078
689.933	0.0129
690.1154	0.0177
690.2978	0.0238
690.4802	0.0156
690.6626	0.0101
690.8449	0.0228
691.0272	0.011
691.2095	-0.0126
691.3918	0.016
691.5741	0.0193
691.7563	0.0138
691.9386	0.0258
692.1208	0.0045
692.303	0.0001
692.4852	0.0039
692.6673	-0.0085
692.8495	0.0032
693.0316	0.0186
693.2137	0.0049
693.3958	0.0036
693.5778	0.0063
693.7599	-0.028
693.9419	-0.0089
694.1239	0.0154
694.3059	0.0124
694.4879	0.0077
694.6699	0.0133
694.8518	-0.0157
695.0337	-0.0104
695.2157	0.0362
695.3975	0.0081
695.5794	-0.0199
695.7613	0.0021
695.9431	-0.0169
696.1249	0.0099
696.3067	-0.0036
696.4885	0.0255
696.6703	-0.0012
696.852	0.0027
697.0337	0.0228
697.2154	0.0017
697.3971	0.0148
697.5788	0.0114
697.7605	0.0037
697.9421	0.0105
698.1237	0.0146
698.3053	-0.0044
698.4869	0.0003
698.6685	-0.0038
698.85	0.0254
699.0315	-0.0012
699.213	0.0022
699.3945	0.0131
699.576	0.0107
699.7575	0.0248
699.9389	0.0087
700.1203	0.0494
700.3017	0.0056
700.4831	0.0035
700.6645	0.041
700.8458	-0.0196
701.0271	0.0302
701.2084	0.0092
701.3897	-0.0058
701.571	-0.0007
701.7523	0.033
701.9335	0.0243
702.1147	0.0147
702.2959	-0.0063
702.4771	0.0097
702.6583	0.009
702.8394	-0.0271
703.0205	0.0423
703.2016	-0.0088
703.3827	-0.0075
703.5638	-0.0119
703.7449	0.0179
703.9259	0.0077
704.1069	-0.0028
704.2879	0.01
704.4689	0.001
704.6499	-0.0026
704.8308	0.02
705.0117	0.0022
705.1927	0.0276
705.3735	0.0001
705.5544	0.0274
705.7353	0.0233
705.9161	-0.0121
706.0969	0.0207
706.2777	0.0189
706.4585	0.0061
706.6393	0.0245
706.82	0.019
707.0007	-0.0041
707.1815	-0.0021
707.3621	0.0235
707.5428	0.0003
707.7235	0.0152
707.9041	0.0084
708.0847	0.01
708.2653	0.0182
708.4459	0.0067
708.6265	-0.0196
708.807	0.0148
708.9875	0.0005
709.168	-0.001
709.3485	0.0265
709.529	-0.0159
709.7095	0.0209
709.8899	0.0215
710.0703	0.0139
710.2507	0.0111
710.4311	-0.0215
710.6115	0.0481
710.7918	0.037
710.9721	0.0124
711.1524	-0.0025
711.3327	-0.0131
711.513	-0.0098
711.6932	0.0031
711.8735	0.0259
712.0537	-0.0064
712.2339	0.0136
712.4141	0.008
712.5942	-0.0223
712.7744	0.0173
712.9545	0.0052
713.1346	0.045
713.3147	0.0092
713.4947	-0.0054
713.6748	0.0187
713.8548	0.0359
714.0348	0.0117
714.2148	-0.0079
714.3948	-0.0045
714.5748	0.0148
714.7547	0.0103
714.9346	0.0285
715.1145	-0.0152
715.2944	-0.0233
715.4743	0.0058
715.6541	-0.0293
715.834	0.0316
716.0138	0.0078
716.1936	-0.0015
716.3733	0.0047
716.5531	-0.0198
716.7328	0.0442
716.9126	0.0011
717.0923	-0.0301
717.2719	0.0186
717.4516	0.0093
717.6312	-0.0185
717.8109	0.015
717.9905	0.0402
718.1701	0.0262
718.3496	0.0116
718.5292	0.0016
718.7087	0.0091
718.8882	0.0173
719.0677	0.0038
719.2472	0.0008
719.4267	-0.001
719.6061	-0.0155
719.7856	0.0097
719.965	-0.014
720.1443	0.0173
720.3237	0.0049
720.5031	0.0208
720.6824	0.0279
720.8617	0.0122
721.041	0.0433
721.2203	-0.0196
721.3995	0.0261
721.5788	0.0125
721.758	0.0009
721.9372	-0.0149
722.1164	0.0266
722.2956	0.0176
722.4747	0.0239
722.6538	0.0108
722.8329	0.0472
723.012	0.0091
723.1911	0.01
723.3702	-0.0039
723.5492	0.0027
723.7282	-0.0054
723.9072	0.001
724.0862	0.016
724.2652	-0.0096
724.4441	-0.0031
724.623	0.0212
724.8019	0.0172
724.9808	0.0094
725.1597	0.0042
725.3385	0.0184
725.5174	0.0128
725.6962	-0.0057
725.875	0.0139
726.0538	-0.0075
726.2325	0.0129
726.4112	-0.0132
726.59	-0.0162
726.7687	0.0034
726.9474	0.0475
727.126	0.0179
727.3047	0.0029
727.4833	0.0185
727.6619	-0.0226
727.8405	0.0108
728.0191	0.0148
728.1976	0.0033
728.3762	0.0055
728.5547	-0.0117
728.7332	0.0216
728.9116	-0.0046
729.0901	-0.0006
729.2686	-0.0009
729.447	-0.0096
729.6254	0.0273
729.8038	-0.0052
729.9821	-0.0172
730.1605	0.0091
730.3388	0.0075
730.5171	0.0136
730.6954	-0.0066
730.8737	-0.0066
731.0519	-0.0222
731.2302	0.0207
731.4084	0.0045
731.5866	0.0196
731.7648	-0.0085
731.9429	0.023
732.1211	0.0124
732.2992	-0.0048
732.4773	0.0104
732.6554	0.0032
732.8335	0.0526
733.0115	0.0086
733.1896	-0.018
733.3676	0.0062
733.5456	0.0044
733.7235	-0.0085
733.9015	0.0044
734.0794	0.01
734.2574	-0.0103
734.4353	0.0129
734.6131	-0.0044
734.791	0.0117
734.9689	-0.0042
735.1467	-0.0108
735.3245	0.0139
735.5023	0.0091
735.68	-0.0075
735.8578	0.0071
736.0355	0.0033
736.2132	0.0116
736.3909	0.0247
736.5686	-0.0061
736.7463	-0.018
736.9239	0.011
737.1015	0.001
737.2791	0.0004
737.4567	0.0198
737.6343	-0.0218
737.8118	0.0191
737.9894	-0.0031
738.1669	-0.0059
738.3444	0.0365
738.5218	-0.0154
738.6993	0.0005
738.8767	0.0043
739.0541	-0.0066
739.2315	0.0143
739.4089	0.0334
739.5863	-0.017
739.7636	-0.0006
739.9409	0.0045
740.1182	-0.0195
740.2955	0.0212
740.4728	0.0053
740.65	-0.0314
740.8272	0.0275
741.0044	-0.0119
741.1816	0.0325
741.3588	-0.0361
741.5359	-0.0034
741.7131	-0.0073
741.8902	-0.0248
742.0673	-0.0208
742.2444	0.0358
742.4214	0.0242
742.5985	-0.0053
742.7755	0.0018
742.9525	-0.0159
743.1295	-0.0069
743.3064	0.0165
743.4834	0.022
743.6603	0.0214
743.8372	-0.0414
744.0141	0.0318
744.191	0.0029
744.3678	-0.0176
744.5446	-0.0021
744.7215	0.0082
744.8982	0.017
745.075	0.047
745.2518	-0.003
745.4285	0.028
745.6052	-0.0057
745.7819	-0.0132
745.9586	0.001
746.1353	-0.0313
746.3119	-0.0013
746.4885	0.0501
746.6651	0.0318
746.8417	0.0039
747.0183	0.0287
747.1948	0.0204
747.3714	0.0144
747.5479	0.0256
747.7244	0.0174
747.9008	0.0091
748.0773	0.0213
748.2537	-0.0043
748.4301	0.0169
748.6065	-0.0291
748.7829	-0.0305
748.9593	-0.0086
749.1356	0.0148
749.3119	0.011
749.4882	0.0199
749.6645	0.004
749.8408	0.0085
750.017	0.0121
750.1933	-0.0036
750.3695	0.011
750.5457	0.018
750.7218	0.0287
750.898	0.012
751.0741	-0.0018
751.2502	0.0274
751.4263	-0.0191
751.6024	0.0196
751.7784	-0.0017
751.9545	0.017
752.1305	0.0097
752.3065	0.0171
752.4825	0.0337
752.6584	0.0116
752.8344	0.0189
753.0103	0.0096
753.1862	0.0205
753.3621	0.0047
753.5379	-0.0033
753.7138	-0.0003
753.8896	0.0209
754.0654	-0.0075
754.2412	0.025
754.417	0.0165
754.5927	0.0059
754.7685	-0.0146
754.9442	0.0332
755.1199	-0.0051
755.2956	0.0109
755.4712	0.0115
755.6469	0.0105
755.8225	0.02
755.9981	0.017
756.1736	0.0108
756.3492	0.0116
756.5248	0.0062
756.7003	0.0089
756.8758	0.0022
757.0513	-0.003
757.2267	0.0088
757.4022	-0.0111
757.5776	0.0031
757.753	0.016
757.9284	0.0074
758.1038	0.0189
758.2791	0.0093
758.4545	-0.0221
758.6298	0.0027
758.8051	0.0056
758.9803	0.0111
759.1556	-0.0036
759.3308	-0.0008
759.506	-0.0115
759.6812	0.0037
759.8564	0.0251
760.0316	-0.0105
760.2067	0.0169
760.3819	-0.0061
760.557	-0.0124
760.732	0.0041
760.9071	0.0031
761.0821	-0.0073
761.2572	0.0073
761.4322	0.0136
761.6072	0.0052
761.7821	-0.0313
761.9571	0.0221
762.132	0.02
762.3069	0.038
762.4818	0.0354
762.6567	0.0119
762.8316	-0.002
763.0064	0.0409
763.1812	0.0018
763.356	-0.0218
763.5308	0.0254
763.7055	-0.0015
763.8803	-0.0038
764.055	-0.0208
764.2297	-0.012
764.4044	-0.0098
764.579	-0.0043
764.7537	0.019
764.9283	0.0012
765.1029	0.0185
765.2775	-0.0023
765.4521	-0.0066
765.6266	-0.007
765.8011	0.0049
765.9756	0.0389
766.1501	0.0056
766.3246	0.0311
766.4991	0.0128
766.6735	0.0383
766.8479	0.0259
767.0223	0.033
767.1967	0.0169
767.371	0.0001
767.5454	0.0101
767.7197	0.0515
767.894	0.0046
768.0683	0.0283
768.2425	0.0079
768.4168	0.0068
768.591	0.0172
768.7652	0.0112
768.9394	-0.0076
769.1135	-0.0003
769.2877	0.0367
769.4618	0.0239
769.6359	-0.0065
769.81	0.0143
769.984	0.0213
770.1581	0.0181
770.3321	0.0084
770.5061	0.0004
770.6801	0.0171
770.8541	0.0102
771.028	0.0425
771.202	0.0043
771.3759	0.0158
771.5498	-0.002
771.7236	0.0231
771.8975	0.0103
772.0713	-0.0213
772.2451	-0.0255
772.4189	0.0257
772.5927	-0.0549
772.7665	0.0041
772.9402	0.014
773.1139	0.0275
773.2876	-0.0004
773.4613	0.039
773.635	0.0358
773.8086	0.0359
773.9822	0.0351
774.1558	0.0559
774.3294	0.0009
774.503	0.0215
774.6765	0.0283
774.8501	-0.0218
775.0236	0.0094
775.1971	0.0095
775.3705	0.001
775.544	0.0109
775.7174	0.006
775.8908	0.0217
776.0642	0.0127
776.2376	0.0224
776.4109	-0.0207
776.5843	-0.0093
776.7576	0.06
776.9309	0.0129
777.1041	-0.0655
777.2774	0.0094
777.4506	0.0195
777.6238	0.019
777.797	0.0051
777.9702	-0.0146
778.1434	0.0121
778.3165	0.002
778.4896	-0.0199
778.6627	0.0334
778.8358	-0.0354
779.0089	-0.0372
779.1819	0.058
779.3549	0.0173
779.5279	-0.0139
779.7009	0.0414
779.8739	0.0446
780.0468	0.0087
780.2197	0.0291
780.3926	-0.0222
780.5655	0.0147
780.7384	0.0058
780.9112	0.0125
781.0841	-0.0045
781.2569	-0.0088
781.4297	0.0038
781.6024	0.0126
781.7752	0.0304
781.9479	0.0522
782.1206	0.0235
782.2933	0.0081
782.466	0.0049
782.6386	-0.001
782.8113	0.0228
782.9839	-0.0004
783.1565	0.0068
783.329	-0.0102
783.5016	0.0652
783.6741	-0.0113
783.8466	0.0102
784.0191	0.0148
784.1916	-0.0176
784.3641	0.0123
784.5365	0.0301
784.7089	0.0036
784.8813	0.0642
785.0537	0.0169
785.2261	0.0084
785.3984	-0.0053
785.5707	-0.0249
785.743	0.0449
785.9153	-0.0207
786.0876	-0.0155
786.2598	-0.0266
786.432	0.0489
786.6042	0.0558
786.7764	-0.0416
786.9486	-0.0046
787.1207	0.0464
787.2928	0.0227
787.4649	-0.0113
787.637	0.0244
787.8091	0.0108
787.9811	0.0436
788.1532	0.0177
788.3252	-0.001
788.4972	0.0297
788.6691	0.0031
788.8411	-0.0017
789.013	0.0194
789.1849	-0.024
789.3568	-0.0107
789.5287	0.0388
789.7005	-0.0091
789.8723	-0.0063
790.0442	-0.0211
790.2159	-0.016
790.3877	0.0833
790.5595	0.0785
790.7312	-0.0343
790.9029	0.0355
791.0746	-0.0175
791.2463	-0.0089
791.4179	0.0131
791.5896	0.0788
791.7612	0.0422
791.9328	0.0575
792.1044	-0.0143
792.2759	-0.0214
792.4474	-0.0089
792.619	0.0049
792.7905	-0.0252
792.9619	0.0118
793.1334	0.078
793.3048	0.0962
793.4762	0.0539
793.6476	-0.0214
793.819	-0.0058
793.9904	-0.0431
794.1617	-0.0246
794.333	0.0389
794.5043	0.0366
794.6756	0.0184
794.8469	0.0214
795.0181	-0.0079
795.1893	0.0102
795.3605	0.0292
795.5317	-0.0053
795.7029	0.0087
795.874	0.0203
796.0452	0.0648
796.2163	0.0436
796.3873	0.0281
796.5584	0.0134
796.7294	-0.0055
796.9005	0.0198
797.0715	0.0148
797.2425	0.0691
797.4134	0.0204
797.5844	0.0629
797.7553	-0.0072
797.9262	0.0601
798.0971	0.0439
798.2679	-0.0009
798.4388	0.0466
798.6096	-0.017
798.7804	0.0164
798.9512	0.0342
799.122	-0.0584
799.2927	0.1046
799.4635	-0.0099
799.6342	-0.0117
799.8049	0.0272
799.9755	-0.0233
800.1462	-0.0024
800.3168	-0.0277
800.4874	-0.123
800.658	0.0463
800.8286	-0.0088
800.9991	0.0776
801.1696	-0.0426
801.3402	0.0724
801.5106	0.0379
801.6811	-0.0561
801.8516	0.1172
802.022	0.0925
802.1924	-0.0827
802.3628	0.0637
802.5332	0.0362
802.7035	0.0036
802.8739	0.0654
803.0442	-0.0232
803.2145	0.06
803.3847	0.053
803.555	0.0042
803.7252	-0.0354
803.8954	-0.0077
804.0656	0.0126
804.2358	0.192
804.4059	0.0309
804.5761	0.1049
804.7462	0.0308
804.9163	0.1315
805.0864	0.0367
805.2564	-0.0773
805.4264	-0.1071
805.5965	0.0705
805.7665	-0.0087
805.9364	0.0585
806.1064	-0.0101
806.2763	0.0255
806.4462	0.0339
806.6161	-0.0102
806.786	-0.0067
806.9559	-0.0027
807.1257	0.0232
807.2955	-0.0557
807.4653	-0.0229
807.6351	0.0719
807.8048	-0.0131
807.9746	0.0326
808.1443	0.0268
808.314	0.0293
808.4837	-0.0009
808.6533	0.0431
808.8229	0.0003
808.9926	0.0357
809.1622	0.0486
809.3317	-0.0081
809.5013	0.0895
809.6708	-0.0377
809.8403	0.0483
810.0098	-0.0221
810.1793	0.1015
810.3488	-0.0034
810.5182	0.1431
810.6876	-0.0053
810.857	0.0399
811.0264	0.0032
811.1958	0.1548
811.3651	0.0806
811.5344	0.0812
811.7037	0.1055
811.873	0.0852
812.0422	-0.0411
812.2115	0.0741
812.3807	-0.1992
812.5499	-0.0171
812.7191	-0.0272
812.8882	-0.0793
813.0574	0.0059
813.2265	0.1119
813.3956	0.0307
813.5646	-0.0385
813.7337	-0.0137
813.9027	-0.095
814.0718	0.0191
814.2407	0.0408
814.4097	0.0739
814.5787	0.0477
814.7476	0.0062
814.9165	0.0484
815.0854	0.0258
815.2543	-0.0178
815.4232	0.0212
815.592	0.0485
815.7608	-0.0522
815.9296	-0.0617
816.0984	0.0993
816.2671	-0.1148
816.4359	0.0751
816.6046	0.0357
816.7733	0.1186
816.942	-0.0099
817.1106	0.0674
817.2793	-0.0299
817.4479	0.0749
817.6165	0.0061
817.785	0.0006
817.9536	-0.0716
818.1221	-0.0117
818.2906	0.0659
818.4591	0.1143
818.6276	0.0526
818.7961	-0.0642
818.9645	-0.0069
819.1329	0.0453
819.3013	-0.1302
819.4697	0.0662
819.638	0.2661
819.8064	-0.0308
819.9747	-0.1139
820.143	-0.0146
820.3113	0.2533
820.4795	0.1119
820.6477	0.0705
820.816	0.0878
820.9842	0.043
821.1523	0.0933
821.3205	-0.0251
821.4886	0.0005
821.6567	-0.0018
821.8248	0.1257
821.9929	-0.0887
822.1609	0.0859
822.329	0.0477
822.497	0.0728
822.665	-0.0393
822.833	-0.0522
823.0009	-0.0426
823.1688	0.1008
823.3367	-0.223
823.5046	0.0202
823.6725	-0.0308
823.8404	0.2819
824.0082	-0.1103
824.176	0.038
824.3438	0.2389
824.5116	-0.0991
824.6793	0.1015
824.847	0.0317
825.0147	-0.0252
825.1824	0.0631
825.3501	-0.1053
825.5177	0.0298
825.6854	-0.1572
825.853	-0.0026
826.0206	-0.0596
826.1881	-0.0307
826.3557	0.0742
826.5232	0.1961
826.6907	0.0077
826.8582	-0.1982
827.0257	0.2017
827.1931	0.0825
827.3605	-0.1188
827.528	0.0628
827.6953	-0.0088
827.8627	-0.2355
828.03	0.2128
828.1974	-0.0315
828.3647	0.0743
828.532	0.1764
828.6992	0.0918
828.8665	-0.2032
829.0337	-0.1394
829.2009	-0.0294
829.3681	0.1006
829.5352	-0.3182
829.7024	0.0328
829.8695	0.2932
830.0366	0.0607
830.2037	0.1464
830.3707	0.1422
830.5378	-0.1272
830.7048	-0.0035
830.8718	-0.0669
831.0388	-0.0676
831.2057	-0.0938
831.3727	-0.5597
831.5396	0.0262
831.7065	-1.0663
831.8734	0.0917
832.0402	0.167
832.2071	-0.4181
832.3739	-0.3353
832.5407	-0.757
832.7075	-0.5172
832.8742	0.2848
833.041	0.1127
833.2077	0.2611
833.3744	0.0093
833.541	0.1366
833.7077	0.2704
833.8743	0.0741
834.0409	-0.0741
834.2075	0.1084
834.3741	-0.2076
834.5407	0.0493
834.7072	0.1764
834.8737	0.1458
835.0402	0.5237
835.2067	-0.1532
835.3731	0.078
835.5395	0.0396
835.706	0.243
835.8723	-0.0986
836.0387	0.2262
836.2051	0.233
836.3714	-0.0499
836.5377	0.6121
836.704	0.7415
836.8703	-0.2623
837.0365	-0.6559
837.2027	0.0712
837.3689	0.2054
837.5351	0.0695
837.7013	0.0025
837.8674	0.2054
838.0335	0.2033
838.1997	-0.1002
838.3657	-0
838.5318	-0.2084
838.6978	-0
838.8639	0.2148
839.0299	0.243
839.1958	0.1105
839.3618	-0
839.5277	0.3689
839.6937	-0.2967
839.8596	-0.3427
840.0254	-0.0459
840.1913	-0.0299
840.3571	-0.3068
840.523	-0
840.6888	0.0205
840.8545	-0.2728
841.0203	0.1457
841.186	-0.0605
841.3517	0.0118
841.5174	-0.0437
841.6831	0.4943
841.8488	0.2306
842.0144	-0.0612
842.18	0.0953
842.3456	-0.6272
842.5112	-0
842.6767	0.1988
842.8422	0.2713
843.0077	0.3214
843.1732	-0.4449
843.3387	0.4586
843.5042	-0
843.6696	1.9332
843.835	0.1184
844.0004	-0.2477
844.1657	-0.6657
844.3311	-0
844.4964	-0.3052
844.6617	0.0909
844.827	0.5515
844.9923	0.2015
845.1575	0.0835
845.3227	-0.1182
845.4879	-0.3678
845.6531	0.4142
845.8183	-0.1102
845.9834	-0
846.1485	0.5184
846.3136	-0.2722
846.4787	-0
846.6438	0.8762
846.8088	-0
846.9738	-0.4299
847.1388	0.1942
847.3038	0.4604
847.4687	0.3803
847.6337	-0.6685
847.7986	-0.2878
847.9635	-0.3974
848.1284	1.4215
848.2932	0.1286
848.458	-0
848.6228	-0
848.7876	-0
848.9524	-0
849.1172	-1.6708
849.2819	-0
849.4466	0.218
849.6113	0.6379
849.7759	-0
849.9406	0.0672
850.1052	-0
850.2698	-0.0743
850.4344	-0.0902
850.599	-0.2665
850.7635	-0
850.928	0.3263
851.0925	0.0687
851.257	-0.2603
851.4215	-0
851.5859	0.2129
851.7503	-0
851.9147	-0.0994
852.0791	0.0773
852.2434	0.6984
852.4078	-0
852.5721	-0.081
852.7364	0.0832
852.9007	-0.0554
853.0649	-0.3459
853.2291	0.3003
853.3934	-0
853.5575	-0.1758
853.7217	0.0881
853.8859	-0.485
854.05	-0.5895
854.2141	0.2522
854.3782	-0
854.5423	0.1202
854.7063	0.2315
854.8703	0.3923
855.0343	0.2835
855.1983	0.4312
855.3623	-0.0959
855.5262	-0
855.6901	0.2281
855.854	0.1649
856.0179	0.3496
856.1818	-0
856.3456	0.6715
856.5094	0.132
856.6732	-0
856.837	-1.3611
857.0008	-0
857.1645	-0.4511
857.3282	-0.0492
857.4919	0.9433
857.6556	-0.2368
857.8192	-0.1213
857.9828	-0.1406
858.1465	0.0588
858.31	-0
858.4736	-0.5807
858.6372	-0.0989
858.8007	0.7372
858.9642	1.0131
859.1277	1.0469
859.2911	0.007
859.4546	-0
859.618	0.4658
859.7814	-0
859.9448	-0
860.1081	0.243
860.2715	-1.9771
860.4348	0.8893
860.5981	0.5119
860.7614	-0.3729
860.9246	-0.2169
861.0879	-0.0403
861.2511	-0
861.4143	-0
861.5774	-0.0131
861.7406	-0.1619
861.9037	-0
862.0668	-0.9109
862.2299	0.243
862.393	0.23
862.556	0.1985
862.7191	-0.211
862.8821	0.0447
863.0451	-0.1181
863.208	-0.4605
863.371	-0.6021
863.5339	0.2589
863.6968	0.3953
863.8597	0.1784
864.0225	1.1886
864.1854	-0.2596
864.3482	0.8893
864.511	0.2459
864.6737	-0.2081
864.8365	0.1118
864.9992	-0
865.1619	-0.1364
865.3246	-1.3655
865.4873	-0
865.65	-0
865.8126	0.2741
865.9752	-0.0617
866.1378	0.3346
866.3004	-0.0921
866.4629	-1.6378
866.6254	-0.1994
866.7879	-0.2586
866.9504	-0
867.1129	-0.4197
867.2753	-0.1043
867.4377	0.2998
867.6001	-0
867.7625	-0.3181
867.9249	-0.1559
868.0872	-0.1706
868.2495	-0
868.4118	-0.0056
868.5741	-0.6266
868.7363	-0.6882
868.8986	-0.2105
869.0608	-0
869.223	-0.1961
869.3851	-0
869.5473	0.0022
869.7094	0.0286
869.8715	-0.7947
870.0336	0.1131
870.1957	-0.967
870.3577	0.9433
870.5197	-0.2083
870.6817	-0.6021
870.8437	0.8678
871.0057	0.532
871.1676	-0
871.3295	0.765
871.4914	-0
871.6533	0.3743
871.8151	-0
871.977	-0.3909
872.1388	0.3711
872.3006	-0.5754
872.4623	-0.6339
872.6241	-0
872.7858	0.1773
872.9475	-0
873.1092	0.494
873.2709	0.2202
873.4325	-1.359
873.5941	0.0647
873.7557	0.8342
873.9173	-0
874.0789	0.3998
874.2404	-0
874.4019	-0.1576
874.5634	-0
874.7249	-0
874.8863	-0.2989
875.0478	-0.0591
875.2092	0.8055
875.3706	-0.1278
875.5319	0.6083
875.6933	1.9626
875.8546	0.1095
876.0159	0.1924
876.1772	-0.3865
876.3385	-0
876.4997	-0
876.6609	-0
876.8221	-0
876.9833	0.3653
877.1445	0.534
877.3056	-1.0552
877.4667	-0.2903
877.6278	0.1056
877.7889	-0
877.9499	-0
878.111	-0.4418
878.272	-0
878.433	-0.1631
878.5939	-0.2936
878.7549	-0
878.9158	-0
879.0767	-0.2805
879.2376	-0
879.3984	-0
879.5593	0.4157
879.7201	-0
879.8809	-0.2008
880.0417	-0.4059
880.2024	0.0612
880.3632	0.2622
880.5239	0.2132
880.6846	0.132
880.8452	-0.052
881.0059	-0.1107
881.1665	-0.2119
881.3271	0.4185
881.4877	0.8937
881.6483	-0
881.8088	-0
881.9693	-0
882.1298	-0
882.2903	-0
