Data from D4ACN5uM440nmA_Absorbance_13-50-24-712.txt Node
Date: Fri Feb 21 13:50:24 GMT 2025
User: LASERRRRR
Spectrometer: FLMT03099
Trigger mode: 0
Integration Time (sec): 1.500000E-2
Scans to average: 1
Electric dark correction enabled: true
Nonlinearity correction enabled: false
Boxcar width: 0
XAxis mode: Wavelengths
Number of Pixels in Spectrum: 3648
>>>>>Begin Spectral Data<<<<<
179.3399	-0.5093
179.5586	-0.5093
179.7771	-0.5093
179.9957	-0.1725
180.2143	-0
180.4329	-0
180.6514	-0
180.8699	-0
181.0885	-0
181.307	0.3336
181.5255	0.4368
181.744	-0
181.9625	0.2453
182.181	-0.1674
182.3994	-0.7499
182.6179	-0.2164
182.8363	0.0441
183.0547	0.0014
183.2732	-0.0515
183.4916	0.2575
183.71	0.1545
183.9284	0.0799
184.1467	-0.0327
184.3651	0.1175
184.5835	0.2629
184.8018	0.1517
185.0201	-0.0036
185.2385	0.402
185.4568	0.2964
185.6751	0.1514
185.8934	0.2393
186.1117	-0.0484
186.3299	0.0785
186.5482	0.2247
186.7664	0.0399
186.9847	0.0145
187.2029	0.768
187.4211	0.1407
187.6393	0.1289
187.8575	0.0559
188.0757	0.2548
188.2939	0.0948
188.512	0.1612
188.7302	0.2361
188.9483	0.1335
189.1665	0.6342
189.3846	0.01
189.6027	0.0995
189.8208	0.4633
190.0389	0.1322
190.257	0.0166
190.475	0.0807
190.6931	0.1281
190.9111	0.271
191.1292	0.1145
191.3472	0.0607
191.5652	0.0771
191.7832	0.172
192.0012	0.1174
192.2192	0.1454
192.4371	0.0641
192.6551	0.2284
192.873	0.2487
193.091	0.2287
193.3089	0.1559
193.5268	0.3406
193.7447	0.4505
193.9626	0.1937
194.1805	0.1936
194.3984	0.2078
194.6162	0.26
194.8341	0.2747
195.0519	0.2661
195.2697	0.2458
195.4875	0.3195
195.7054	0.3174
195.9231	0.2572
196.1409	0.3342
196.3587	0.4182
196.5765	0.3585
196.7942	0.3305
197.012	0.4484
197.2297	0.2955
197.4474	0.3862
197.6651	0.2887
197.8828	0.319
198.1005	0.3911
198.3182	0.4418
198.5358	0.3578
198.7535	0.3546
198.9711	0.4151
199.1888	0.3514
199.4064	0.4426
199.624	0.3878
199.8416	0.4403
200.0592	0.3857
200.2767	0.4024
200.4943	0.4441
200.7119	0.3733
200.9294	0.4147
201.1469	0.4025
201.3645	0.4264
201.582	0.4071
201.7995	0.407
202.017	0.4249
202.2344	0.3897
202.4519	0.4083
202.6694	0.3836
202.8868	0.4126
203.1042	0.4182
203.3217	0.3652
203.5391	0.3735
203.7565	0.3303
203.9739	0.3769
204.1913	0.3579
204.4086	0.3516
204.626	0.3837
204.8433	0.3623
205.0607	0.3468
205.278	0.3558
205.4953	0.3475
205.7126	0.3451
205.9299	0.3513
206.1472	0.3234
206.3644	0.3443
206.5817	0.3064
206.7989	0.3574
207.0162	0.3137
207.2334	0.3323
207.4506	0.3047
207.6678	0.3215
207.885	0.33
208.1022	0.2868
208.3194	0.2904
208.5365	0.3096
208.7537	0.3087
208.9708	0.2972
209.1879	0.2794
209.405	0.2813
209.6222	0.2717
209.8392	0.3048
210.0563	0.2735
210.2734	0.2754
210.4905	0.2742
210.7075	0.2727
210.9245	0.2555
211.1416	0.2771
211.3586	0.2502
211.5756	0.2612
211.7926	0.2625
212.0096	0.2701
212.2265	0.2585
212.4435	0.2365
212.6604	0.2612
212.8774	0.2424
213.0943	0.2749
213.3112	0.2455
213.5281	0.2505
213.745	0.2491
213.9619	0.2584
214.1788	0.2595
214.3956	0.2488
214.6125	0.2577
214.8293	0.2605
215.0461	0.2497
215.2629	0.2427
215.4798	0.2522
215.6965	0.2558
215.9133	0.2312
216.1301	0.2402
216.3469	0.2502
216.5636	0.2337
216.7803	0.25
216.9971	0.2551
217.2138	0.2477
217.4305	0.2434
217.6472	0.2426
217.8639	0.2613
218.0805	0.2547
218.2972	0.2527
218.5138	0.2572
218.7305	0.2569
218.9471	0.2628
219.1637	0.2721
219.3803	0.2587
219.5969	0.2519
219.8135	0.271
220.0301	0.2764
220.2466	0.2588
220.4632	0.2551
220.6797	0.2704
220.8962	0.2557
221.1127	0.2723
221.3292	0.2621
221.5457	0.2679
221.7622	0.2572
221.9787	0.2853
222.1951	0.2771
222.4116	0.2787
222.628	0.2726
222.8444	0.2923
223.0608	0.2993
223.2772	0.2831
223.4936	0.2802
223.71	0.298
223.9264	0.2985
224.1427	0.2879
224.3591	0.2944
224.5754	0.2853
224.7917	0.2905
225.008	0.2873
225.2243	0.2995
225.4406	0.2821
225.6569	0.3083
225.8732	0.308
226.0894	0.3013
226.3057	0.3042
226.5219	0.3133
226.7381	0.3196
226.9543	0.3152
227.1705	0.3193
227.3867	0.3254
227.6029	0.3252
227.8191	0.3321
228.0352	0.3354
228.2513	0.3421
228.4675	0.3405
228.6836	0.3456
228.8997	0.3392
229.1158	0.3582
229.3319	0.3443
229.548	0.3648
229.764	0.3641
229.9801	0.3712
230.1961	0.3671
230.4121	0.3715
230.6282	0.3805
230.8442	0.383
231.0602	0.3781
231.2761	0.3832
231.4921	0.385
231.7081	0.3905
231.924	0.3963
232.14	0.4058
232.3559	0.409
232.5718	0.3997
232.7877	0.4111
233.0036	0.4042
233.2195	0.4178
233.4353	0.417
233.6512	0.4175
233.867	0.4155
234.0829	0.4104
234.2987	0.4204
234.5145	0.4367
234.7303	0.4299
234.9461	0.4352
235.1619	0.4313
235.3776	0.4301
235.5934	0.4333
235.8091	0.4466
236.0249	0.4453
236.2406	0.4418
236.4563	0.4479
236.672	0.4495
236.8877	0.4399
237.1034	0.4512
237.319	0.448
237.5347	0.4552
237.7503	0.4531
237.966	0.4641
238.1816	0.4461
238.3972	0.4622
238.6128	0.4649
238.8284	0.4566
239.0439	0.4518
239.2595	0.4628
239.475	0.4533
239.6906	0.4629
239.9061	0.4569
240.1216	0.4503
240.3371	0.4604
240.5526	0.4652
240.7681	0.4601
240.9836	0.4574
241.199	0.4496
241.4145	0.4488
241.6299	0.4426
241.8453	0.4372
242.0607	0.4294
242.2761	0.4355
242.4915	0.4141
242.7069	0.4104
242.9223	0.4218
243.1376	0.4029
243.353	0.3973
243.5683	0.394
243.7836	0.3937
243.9989	0.3736
244.2142	0.3712
244.4295	0.3621
244.6448	0.3599
244.86	0.3508
245.0753	0.3354
245.2905	0.3396
245.5057	0.3329
245.721	0.3271
245.9362	0.3264
246.1514	0.3117
246.3665	0.314
246.5817	0.3067
246.7969	0.2945
247.012	0.2886
247.2271	0.2923
247.4423	0.2757
247.6574	0.2812
247.8725	0.269
248.0876	0.2681
248.3026	0.2657
248.5177	0.2577
248.7328	0.2567
248.9478	0.2479
249.1628	0.2503
249.3779	0.2403
249.5929	0.2439
249.8079	0.2357
250.0228	0.2252
250.2378	0.2385
250.4528	0.2264
250.6677	0.224
250.8827	0.2165
251.0976	0.212
251.3125	0.212
251.5274	0.207
251.7423	0.2092
251.9572	0.2057
252.172	0.2065
252.3869	0.2019
252.6017	0.2027
252.8166	0.204
253.0314	0.2005
253.2462	0.1998
253.461	0.195
253.6758	0.1975
253.8906	0.1922
254.1053	0.1963
254.3201	0.1909
254.5348	0.1872
254.7496	0.1848
254.9643	0.1903
255.179	0.1842
255.3937	0.1844
255.6083	0.1949
255.823	0.187
256.0377	0.1769
256.2523	0.1829
256.467	0.1815
256.6816	0.1801
256.8962	0.1818
257.1108	0.1857
257.3254	0.1772
257.54	0.1794
257.7545	0.1855
257.9691	0.1777
258.1836	0.1756
258.3981	0.1802
258.6127	0.1701
258.8272	0.1803
259.0417	0.1766
259.2561	0.1773
259.4706	0.1733
259.6851	0.1742
259.8995	0.1762
260.114	0.1765
260.3284	0.1747
260.5428	0.1737
260.7572	0.1736
260.9716	0.184
261.186	0.1702
261.4003	0.1747
261.6147	0.1738
261.829	0.1756
262.0433	0.1739
262.2577	0.1816
262.472	0.1681
262.6863	0.1848
262.9005	0.1798
263.1148	0.1781
263.3291	0.1787
263.5433	0.1782
263.7576	0.1757
263.9718	0.1743
264.186	0.1801
264.4002	0.1763
264.6144	0.1812
264.8286	0.182
265.0427	0.1823
265.2569	0.1764
265.471	0.1804
265.6851	0.1825
265.8993	0.1825
266.1134	0.1808
266.3275	0.1791
266.5415	0.1826
266.7556	0.1834
266.9697	0.1776
267.1837	0.1752
267.3978	0.1777
267.6118	0.1711
267.8258	0.1829
268.0398	0.1783
268.2538	0.1765
268.4677	0.1729
268.6817	0.1725
268.8957	0.1733
269.1096	0.1727
269.3235	0.1724
269.5374	0.1762
269.7514	0.1744
269.9652	0.1759
270.1791	0.1723
270.393	0.1704
270.6068	0.1702
270.8207	0.1684
271.0345	0.1682
271.2483	0.1639
271.4622	0.1696
271.676	0.1699
271.8897	0.1641
272.1035	0.1728
272.3173	0.1665
272.531	0.1633
272.7448	0.1648
272.9585	0.166
273.1722	0.1653
273.3859	0.1689
273.5996	0.1696
273.8133	0.1693
274.0269	0.1654
274.2406	0.1685
274.4542	0.1647
274.6679	0.171
274.8815	0.173
275.0951	0.1721
275.3087	0.1726
275.5223	0.1732
275.7358	0.1746
275.9494	0.1742
276.1629	0.1767
276.3765	0.1733
276.59	0.1667
276.8035	0.1663
277.017	0.1773
277.2305	0.1751
277.444	0.1764
277.6574	0.1734
277.8709	0.1778
278.0843	0.1705
278.2978	0.1755
278.5112	0.1746
278.7246	0.1732
278.938	0.1703
279.1513	0.1778
279.3647	0.1736
279.5781	0.1759
279.7914	0.1766
280.0047	0.1764
280.2181	0.1778
280.4314	0.1773
280.6447	0.1789
280.8579	0.1743
281.0712	0.1758
281.2845	0.1745
281.4977	0.1787
281.711	0.1757
281.9242	0.1768
282.1374	0.1748
282.3506	0.187
282.5638	0.1759
282.7769	0.1769
282.9901	0.1792
283.2033	0.1852
283.4164	0.1766
283.6295	0.1818
283.8426	0.18
284.0557	0.186
284.2688	0.1827
284.4819	0.1756
284.695	0.188
284.908	0.1806
285.1211	0.1865
285.3341	0.1788
285.5471	0.1842
285.7601	0.1882
285.9731	0.1901
286.1861	0.1883
286.3991	0.1901
286.612	0.1858
286.825	0.184
287.0379	0.189
287.2508	0.1853
287.4637	0.1887
287.6766	0.1853
287.8895	0.1835
288.1024	0.1892
288.3152	0.1919
288.5281	0.1843
288.7409	0.1922
288.9538	0.1917
289.1666	0.1937
289.3794	0.19
289.5922	0.1843
289.8049	0.1937
290.0177	0.1946
290.2304	0.1934
290.4432	0.197
290.6559	0.1927
290.8686	0.1981
291.0813	0.19
291.294	0.1931
291.5067	0.1932
291.7194	0.1971
291.932	0.1898
292.1447	0.1932
292.3573	0.1914
292.5699	0.1937
292.7825	0.1909
292.9951	0.1894
293.2077	0.1902
293.4203	0.1909
293.6328	0.1935
293.8454	0.1985
294.0579	0.1857
294.2704	0.1957
294.4829	0.1859
294.6954	0.194
294.9079	0.1918
295.1204	0.1909
295.3328	0.1988
295.5453	0.1957
295.7577	0.1945
295.9701	0.2027
296.1825	0.1972
296.3949	0.1888
296.6073	0.1915
296.8197	0.1917
297.0321	0.1966
297.2444	0.1889
297.4567	0.1927
297.6691	0.1893
297.8814	0.1961
298.0937	0.1928
298.306	0.1953
298.5182	0.1999
298.7305	0.1982
298.9428	0.1925
299.155	0.1878
299.3672	0.1939
299.5794	0.1938
299.7916	0.1894
300.0038	0.1949
300.216	0.1956
300.4282	0.191
300.6403	0.1966
300.8525	0.1943
301.0646	0.1948
301.2767	0.1941
301.4888	0.1929
301.7009	0.1991
301.913	0.1936
302.125	0.1953
302.3371	0.192
302.5491	0.1966
302.7612	0.2002
302.9732	0.1968
303.1852	0.1918
303.3972	0.1923
303.6092	0.1916
303.8211	0.1919
304.0331	0.1885
304.245	0.1933
304.457	0.1932
304.6689	0.1907
304.8808	0.1882
305.0927	0.1959
305.3046	0.1865
305.5164	0.1816
305.7283	0.1826
305.9401	0.1815
306.152	0.1831
306.3638	0.1785
306.5756	0.1862
306.7874	0.1737
306.9992	0.1716
307.2109	0.1745
307.4227	0.1707
307.6344	0.1776
307.8462	0.1682
308.0579	0.1721
308.2696	0.1656
308.4813	0.1638
308.693	0.1611
308.9046	0.164
309.1163	0.1605
309.328	0.1589
309.5396	0.1527
309.7512	0.1514
309.9628	0.1549
310.1744	0.153
310.386	0.1451
310.5976	0.1502
310.8091	0.1516
311.0207	0.1479
311.2322	0.1375
311.4437	0.1472
311.6552	0.1457
311.8667	0.149
312.0782	0.145
312.2897	0.1436
312.5012	0.1369
312.7126	0.1328
312.924	0.1386
313.1355	0.1274
313.3469	0.1328
313.5583	0.1307
313.7696	0.1301
313.981	0.1381
314.1924	0.1314
314.4037	0.1298
314.6151	0.1291
314.8264	0.138
315.0377	0.13
315.249	0.1294
315.4603	0.1188
315.6716	0.1288
315.8828	0.1259
316.0941	0.1281
316.3053	0.1198
316.5165	0.13
316.7277	0.1179
316.9389	0.124
317.1501	0.1269
317.3613	0.1175
317.5724	0.1201
317.7836	0.1174
317.9947	0.1233
318.2058	0.1218
318.417	0.1224
318.6281	0.1198
318.8391	0.1219
319.0502	0.1196
319.2613	0.1158
319.4723	0.1173
319.6834	0.1283
319.8944	0.1195
320.1054	0.1208
320.3164	0.1161
320.5274	0.1216
320.7383	0.1242
320.9493	0.1228
321.1602	0.115
321.3712	0.1219
321.5821	0.1242
321.793	0.1271
322.0039	0.1217
322.2148	0.123
322.4257	0.1216
322.6365	0.1176
322.8474	0.1238
323.0582	0.124
323.269	0.1241
323.4798	0.1271
323.6906	0.1223
323.9014	0.1235
324.1122	0.1197
324.3229	0.1244
324.5337	0.1237
324.7444	0.121
324.9551	0.1227
325.1658	0.1215
325.3765	0.1263
325.5872	0.1192
325.7979	0.1255
326.0085	0.1209
326.2192	0.1193
326.4298	0.1307
326.6404	0.1273
326.851	0.1231
327.0616	0.1273
327.2722	0.1203
327.4828	0.1269
327.6933	0.1342
327.9039	0.1223
328.1144	0.1305
328.3249	0.1287
328.5354	0.1292
328.7459	0.1266
328.9564	0.1274
329.1669	0.1293
329.3773	0.1294
329.5878	0.1335
329.7982	0.1327
330.0086	0.1299
330.219	0.1256
330.4294	0.1342
330.6398	0.1328
330.8502	0.1333
331.0605	0.1288
331.2708	0.129
331.4812	0.1262
331.6915	0.13
331.9018	0.1256
332.1121	0.1391
332.3224	0.135
332.5326	0.1263
332.7429	0.1352
332.9531	0.135
333.1633	0.123
333.3735	0.132
333.5837	0.1318
333.7939	0.138
334.0041	0.1345
334.2143	0.1353
334.4244	0.1423
334.6346	0.133
334.8447	0.136
335.0548	0.1394
335.2649	0.1352
335.475	0.1406
335.685	0.128
335.8951	0.1314
336.1051	0.1359
336.3152	0.1373
336.5252	0.1344
336.7352	0.1357
336.9452	0.1397
337.1552	0.1403
337.3652	0.1311
337.5751	0.1334
337.7851	0.1387
337.995	0.1349
338.2049	0.1316
338.4148	0.139
338.6247	0.1425
338.8346	0.1352
339.0445	0.14
339.2543	0.141
339.4642	0.1394
339.674	0.1359
339.8838	0.1411
340.0936	0.1384
340.3034	0.1392
340.5132	0.1373
340.7229	0.1413
340.9327	0.15
341.1424	0.1386
341.3522	0.1369
341.5619	0.144
341.7716	0.1435
341.9813	0.1503
342.1909	0.1486
342.4006	0.1449
342.6102	0.1477
342.8199	0.1439
343.0295	0.1476
343.2391	0.1466
343.4487	0.1479
343.6583	0.1577
343.8679	0.1502
344.0774	0.149
344.287	0.1521
344.4965	0.1534
344.706	0.1542
344.9155	0.1477
345.125	0.1534
345.3345	0.1596
345.544	0.1518
345.7534	0.1556
345.9629	0.1568
346.1723	0.1628
346.3817	0.16
346.5911	0.1638
346.8005	0.1675
347.0099	0.1623
347.2193	0.1632
347.4286	0.1658
347.638	0.1685
347.8473	0.1675
348.0566	0.162
348.2659	0.1643
348.4752	0.165
348.6845	0.1585
348.8937	0.1672
349.103	0.1661
349.3122	0.1632
349.5214	0.1671
349.7306	0.169
349.9398	0.1678
350.149	0.1624
350.3582	0.1742
350.5674	0.1699
350.7765	0.1783
350.9856	0.1658
351.1948	0.1734
351.4039	0.1786
351.613	0.1745
351.822	0.1741
352.0311	0.1753
352.2402	0.1797
352.4492	0.1757
352.6582	0.1711
352.8672	0.1796
353.0762	0.1802
353.2852	0.1763
353.4942	0.1812
353.7032	0.173
353.9121	0.1787
354.1211	0.1835
354.33	0.1884
354.5389	0.1798
354.7478	0.177
354.9567	0.1835
355.1655	0.1865
355.3744	0.1855
355.5833	0.1861
355.7921	0.1974
356.0009	0.1849
356.2097	0.1763
356.4185	0.1839
356.6273	0.1844
356.8361	0.1914
357.0448	0.1903
357.2536	0.1874
357.4623	0.1867
357.671	0.1935
357.8797	0.191
358.0884	0.1902
358.2971	0.1955
358.5057	0.1947
358.7144	0.1911
358.923	0.1954
359.1316	0.1972
359.3402	0.2046
359.5488	0.19
359.7574	0.2061
359.966	0.201
360.1746	0.2047
360.3831	0.2152
360.5916	0.2131
360.8002	0.2127
361.0087	0.2034
361.2172	0.2026
361.4256	0.2103
361.6341	0.2031
361.8426	0.2094
362.051	0.2117
362.2594	0.2146
362.4678	0.2183
362.6762	0.215
362.8846	0.2139
363.093	0.2238
363.3014	0.2263
363.5097	0.2133
363.718	0.2231
363.9264	0.222
364.1347	0.2232
364.343	0.2316
364.5513	0.221
364.7595	0.2403
364.9678	0.2143
365.176	0.2267
365.3842	0.2276
365.5925	0.2236
365.8007	0.235
366.0089	0.2352
366.217	0.2346
366.4252	0.2312
366.6333	0.2413
366.8415	0.2317
367.0496	0.2399
367.2577	0.2438
367.4658	0.2368
367.6739	0.2325
367.882	0.2378
368.09	0.2356
368.2981	0.2445
368.5061	0.241
368.7141	0.2436
368.9221	0.2591
369.1301	0.2514
369.3381	0.2623
369.5461	0.246
369.754	0.2572
369.962	0.2477
370.1699	0.2593
370.3778	0.2622
370.5857	0.2557
370.7936	0.2563
371.0015	0.2553
371.2093	0.2557
371.4172	0.2485
371.625	0.2575
371.8328	0.2555
372.0406	0.2642
372.2484	0.2564
372.4562	0.2598
372.664	0.2627
372.8717	0.2664
373.0795	0.2723
373.2872	0.2679
373.4949	0.2693
373.7026	0.258
373.9103	0.2617
374.118	0.2652
374.3256	0.2635
374.5333	0.274
374.7409	0.2703
374.9485	0.2733
375.1561	0.2745
375.3637	0.2667
375.5713	0.2758
375.7789	0.2706
375.9864	0.2661
376.194	0.2813
376.4015	0.2812
376.609	0.2782
376.8165	0.2841
377.024	0.2807
377.2315	0.2826
377.4389	0.2754
377.6464	0.2791
377.8538	0.2787
378.0612	0.2829
378.2686	0.2816
378.476	0.2818
378.6834	0.2883
378.8908	0.2931
379.0981	0.2849
379.3055	0.2925
379.5128	0.2876
379.7201	0.2923
379.9274	0.2975
380.1347	0.2896
380.342	0.2926
380.5492	0.296
380.7565	0.2922
380.9637	0.2946
381.1709	0.295
381.3781	0.3047
381.5853	0.2913
381.7925	0.2926
381.9997	0.3058
382.2068	0.3037
382.4139	0.285
382.6211	0.3024
382.8282	0.3066
383.0353	0.3037
383.2424	0.3149
383.4494	0.3089
383.6565	0.3064
383.8635	0.3051
384.0706	0.3103
384.2776	0.3085
384.4846	0.3098
384.6916	0.3004
384.8986	0.3134
385.1055	0.3194
385.3125	0.3196
385.5194	0.3198
385.7263	0.3042
385.9333	0.3107
386.1402	0.3036
386.347	0.3077
386.5539	0.3101
386.7608	0.3025
386.9676	0.3163
387.1744	0.3013
387.3813	0.3013
387.5881	0.2971
387.7948	0.3195
388.0016	0.3162
388.2084	0.3043
388.4151	0.3087
388.6219	0.299
388.8286	0.3019
389.0353	0.3052
389.242	0.3105
389.4487	0.3026
389.6553	0.2998
389.862	0.295
390.0686	0.3005
390.2753	0.3016
390.4819	0.3107
390.6885	0.3043
390.8951	0.2888
391.1016	0.3018
391.3082	0.2992
391.5147	0.2903
391.7213	0.2941
391.9278	0.2873
392.1343	0.2938
392.3408	0.2874
392.5473	0.2915
392.7537	0.2893
392.9602	0.2758
393.1666	0.2871
393.373	0.2794
393.5794	0.2906
393.7858	0.2846
393.9922	0.2769
394.1986	0.2751
394.4049	0.2858
394.6113	0.2868
394.8176	0.2742
395.0239	0.276
395.2302	0.2735
395.4365	0.2856
395.6428	0.281
395.8491	0.2713
396.0553	0.2642
396.2615	0.2724
396.4678	0.2761
396.674	0.2629
396.8802	0.2676
397.0863	0.2622
397.2925	0.2719
397.4987	0.2654
397.7048	0.2712
397.9109	0.2656
398.117	0.2636
398.3231	0.2597
398.5292	0.2542
398.7353	0.261
398.9413	0.2659
399.1474	0.2745
399.3534	0.2599
399.5594	0.2658
399.7654	0.2576
399.9714	0.2694
400.1774	0.2661
400.3833	0.2621
400.5893	0.2603
400.7952	0.263
401.0011	0.2654
401.207	0.2565
401.4129	0.2587
401.6188	0.2635
401.8247	0.2854
402.0305	0.2605
402.2364	0.2622
402.4422	0.266
402.648	0.2635
402.8538	0.2556
403.0596	0.2494
403.2654	0.2662
403.4711	0.2604
403.6768	0.2572
403.8826	0.2572
404.0883	0.2604
404.294	0.2608
404.4997	0.266
404.7054	0.264
404.911	0.2614
405.1167	0.2704
405.3223	0.2678
405.5279	0.253
405.7335	0.2655
405.9391	0.2565
406.1447	0.2628
406.3502	0.257
406.5558	0.2528
406.7613	0.2585
406.9668	0.2586
407.1724	0.2549
407.3778	0.262
407.5833	0.2521
407.7888	0.2697
407.9942	0.2638
408.1997	0.2704
408.4051	0.2601
408.6105	0.264
408.8159	0.2511
409.0213	0.2621
409.2267	0.2685
409.432	0.2616
409.6374	0.2565
409.8427	0.2637
410.048	0.2624
410.2533	0.2626
410.4586	0.2471
410.6639	0.2521
410.8691	0.2501
411.0744	0.2495
411.2796	0.2601
411.4848	0.2546
411.69	0.2481
411.8952	0.264
412.1004	0.2606
412.3056	0.2564
412.5107	0.2584
412.7158	0.2655
412.921	0.2629
413.1261	0.2418
413.3312	0.2595
413.5362	0.255
413.7413	0.2525
413.9464	0.2484
414.1514	0.2626
414.3564	0.2517
414.5614	0.2567
414.7664	0.2585
414.9714	0.2508
415.1764	0.2535
415.3813	0.2608
415.5863	0.2629
415.7912	0.2549
415.9961	0.2462
416.201	0.2589
416.4059	0.2524
416.6108	0.251
416.8156	0.2539
417.0205	0.2582
417.2253	0.2501
417.4301	0.2503
417.6349	0.2479
417.8397	0.2548
418.0445	0.2493
418.2492	0.2518
418.454	0.2465
418.6587	0.2438
418.8634	0.2609
419.0681	0.2491
419.2728	0.2566
419.4775	0.2551
419.6822	0.2384
419.8868	0.2405
420.0915	0.2469
420.2961	0.2369
420.5007	0.2402
420.7053	0.2422
420.9099	0.235
421.1144	0.2447
421.319	0.2403
421.5235	0.2353
421.728	0.2425
421.9325	0.232
422.137	0.2384
422.3415	0.2365
422.546	0.2286
422.7504	0.2303
422.9549	0.2365
423.1593	0.229
423.3637	0.2306
423.5681	0.2342
423.7725	0.2281
423.9769	0.2312
424.1812	0.2338
424.3856	0.2155
424.5899	0.2279
424.7942	0.2246
424.9985	0.2269
425.2028	0.2359
425.4071	0.2152
425.6113	0.221
425.8156	0.217
426.0198	0.2189
426.224	0.2209
426.4282	0.2117
426.6324	0.2182
426.8366	0.21
427.0407	0.2125
427.2449	0.2157
427.449	0.2115
427.6531	0.2156
427.8572	0.2139
428.0613	0.211
428.2654	0.2125
428.4694	0.2022
428.6735	0.2
428.8775	0.2068
429.0815	0.201
429.2855	0.1982
429.4895	0.1994
429.6935	0.195
429.8975	0.1904
430.1014	0.2033
430.3053	0.2008
430.5093	0.1882
430.7132	0.1893
430.9171	0.1826
431.1209	0.1953
431.3248	0.1808
431.5286	0.1747
431.7325	0.1862
431.9363	0.1725
432.1401	0.1699
432.3439	0.1802
432.5477	0.1758
432.7514	0.1669
432.9552	0.1762
433.1589	0.1676
433.3627	0.1698
433.5664	0.1676
433.7701	0.1683
433.9737	0.1662
434.1774	0.1632
434.3811	0.1572
434.5847	0.156
434.7883	0.1647
434.9919	0.158
435.1955	0.1641
435.3991	0.1519
435.6027	0.1491
435.8062	0.1668
436.0098	0.151
436.2133	0.1442
436.4168	0.1419
436.6203	0.1395
436.8238	0.1393
437.0272	0.1312
437.2307	0.1354
437.4341	0.1363
437.6375	0.1407
437.841	0.136
438.0443	0.1338
438.2477	0.1172
438.4511	0.1221
438.6545	0.1269
438.8578	0.1255
439.0611	0.1267
439.2644	0.1219
439.4677	0.122
439.671	0.1094
439.8743	0.1095
440.0775	0.1125
440.2808	0.1124
440.484	0.1068
440.6872	0.1094
440.8904	0.0971
441.0936	0.1113
441.2967	0.0952
441.4999	0.1034
441.703	0.0976
441.9062	0.1015
442.1093	0.1063
442.3124	0.0962
442.5155	0.0944
442.7185	0.0865
442.9216	0.0924
443.1246	0.0908
443.3276	0.0892
443.5307	0.0841
443.7337	0.0884
443.9366	0.0788
444.1396	0.0819
444.3426	0.0794
444.5455	0.0802
444.7484	0.0801
444.9513	0.0773
445.1542	0.0819
445.3571	0.0786
445.56	0.0717
445.7628	0.0751
445.9657	0.0759
446.1685	0.0774
446.3713	0.074
446.5741	0.0754
446.7769	0.0725
446.9797	0.0648
447.1824	0.0632
447.3852	0.0494
447.5879	0.0608
447.7906	0.0569
447.9933	0.0556
448.196	0.0565
448.3986	0.0625
448.6013	0.0494
448.8039	0.0603
449.0066	0.0613
449.2092	0.0617
449.4118	0.0556
449.6143	0.0521
449.8169	0.0515
450.0195	0.0416
450.222	0.0523
450.4245	0.0506
450.627	0.0382
450.8295	0.0487
451.032	0.0422
451.2345	0.0349
451.4369	0.0491
451.6394	0.0465
451.8418	0.0466
452.0442	0.0396
452.2466	0.0408
452.449	0.0417
452.6513	0.0369
452.8537	0.0365
453.056	0.0321
453.2583	0.0324
453.4607	0.0287
453.663	0.0296
453.8652	0.0315
454.0675	0.0373
454.2697	0.0297
454.472	0.0261
454.6742	0.0383
454.8764	0.0381
455.0786	0.0363
455.2808	0.0229
455.4829	0.0307
455.6851	0.0373
455.8872	0.0139
456.0893	0.0297
456.2915	0.0264
456.4935	0.0367
456.6956	0.0278
456.8977	0.0259
457.0997	0.0204
457.3018	0.0243
457.5038	0.0245
457.7058	0.0221
457.9078	0.0285
458.1098	0.0259
458.3117	0.0274
458.5137	0.016
458.7156	0.0217
458.9175	0.0307
459.1194	0.0218
459.3213	0.0135
459.5232	0.0287
459.725	0.0138
459.9269	0.02
460.1287	0.0174
460.3305	0.0276
460.5323	0.0192
460.7341	0.0192
460.9359	0.0034
461.1376	0.0198
461.3394	0.0231
461.5411	0.0257
461.7428	0.0111
461.9445	0.0134
462.1462	0.0122
462.3479	0.0115
462.5495	0.023
462.7512	0.0169
462.9528	0.0174
463.1544	0.0114
463.356	0.0096
463.5576	0.0197
463.7592	0.0146
463.9607	0.0156
464.1623	0.0125
464.3638	0.0139
464.5653	0.0205
464.7668	0.0222
464.9683	0.0174
465.1697	0.0079
465.3712	0.002
465.5726	0.0109
465.7741	0.0199
465.9755	0.0148
466.1769	0.011
466.3782	0.0151
466.5796	0.0131
466.7809	0.0187
466.9823	0.0117
467.1836	0.0069
467.3849	0.0044
467.5862	0.0009
467.7875	0.0043
467.9887	0.0108
468.19	0.0014
468.3912	0.0177
468.5924	0.0007
468.7936	0.0131
468.9948	0.008
469.196	0.0128
469.3972	-0.0016
469.5983	0.0116
469.7994	0.017
470.0006	0.012
470.2017	0.009
470.4027	0.023
470.6038	0.0068
470.8049	0.0046
471.0059	0.0092
471.2069	0.0073
471.408	0.0165
471.6089	0.0158
471.8099	0.0076
472.0109	0.0137
472.2119	0.0121
472.4128	0.0008
472.6137	0.0089
472.8146	0.0062
473.0155	0.0157
473.2164	0.0071
473.4173	0.0043
473.6181	0.0015
473.819	0.0067
474.0198	0.0005
474.2206	-0.0032
474.4214	0.0088
474.6222	-0.0051
474.8229	-0.0009
475.0237	0.0193
475.2244	0.0016
475.4251	0.0087
475.6258	0.0011
475.8265	0.0066
476.0272	-0.003
476.2278	0.0126
476.4285	0.0027
476.6291	0.0043
476.8297	0.0057
477.0303	-0.0006
477.2309	0.0089
477.4315	0.0051
477.632	0.002
477.8326	0.0041
478.0331	0.0101
478.2336	-0.0025
478.4341	0.0093
478.6346	-0.0041
478.8351	0.0075
479.0355	0.0068
479.236	0.0109
479.4364	0.0049
479.6368	0.0035
479.8372	0.0049
480.0376	-0.0034
480.2379	0.002
480.4383	0.0106
480.6386	0.0001
480.8389	0.0091
481.0392	-0.0036
481.2395	0.0097
481.4398	-0.0008
481.6401	0.0061
481.8403	0.0025
482.0405	0.0068
482.2408	-0.0042
482.441	0.0113
482.6411	0.0042
482.8413	-0.0066
483.0415	0.0039
483.2416	0.003
483.4417	0.0055
483.6419	-0.003
483.8419	0.0029
484.042	0.0006
484.2421	-0.008
484.4422	-0.0007
484.6422	-0.001
484.8422	0.0035
485.0422	0.0033
485.2422	0.0026
485.4422	0.0022
485.6422	0.0012
485.8421	0.0044
486.042	0.013
486.242	-0.0009
486.4419	0.0057
486.6417	0.0005
486.8416	0.0002
487.0415	-0.0043
487.2413	-0.005
487.4411	0.0004
487.641	-0.0006
487.8408	0.0061
488.0405	0.0053
488.2403	-0.0087
488.4401	0.0046
488.6398	0.0041
488.8395	0.0032
489.0392	0.0054
489.2389	0.0099
489.4386	-0.0059
489.6383	0.0067
489.8379	0.0001
490.0376	0.0091
490.2372	-0.0008
490.4368	-0.0023
490.6364	-0.0043
490.836	-0.0023
491.0355	-0.0003
491.2351	-0.0033
491.4346	0.0034
491.6341	-0.0059
491.8336	0.0049
492.0331	-0.0035
492.2326	0.001
492.432	0.0033
492.6315	0.0065
492.8309	-0.0011
493.0303	-0.0049
493.2297	-0.0032
493.4291	0.0055
493.6284	0.008
493.8278	0.0031
494.0271	0.0106
494.2264	-0.0077
494.4257	0.0059
494.625	-0.0041
494.8243	-0.0037
495.0236	0.0056
495.2228	0.0067
495.422	0.0007
495.6213	0.0008
495.8205	-0.0006
496.0196	0.0025
496.2188	-0.0009
496.418	0.0016
496.6171	0.0037
496.8162	-0.0045
497.0153	0.01
497.2144	0.0014
497.4135	0.0036
497.6126	0.0039
497.8116	-0.0005
498.0107	0.0034
498.2097	0.0009
498.4087	0.0012
498.6077	-0.0089
498.8067	0.0044
499.0056	-0.0015
499.2046	0.0067
499.4035	-0.0047
499.6024	-0.0094
499.8013	0.0071
500.0002	0.0051
500.199	0.0111
500.3979	-0.0086
500.5967	0.0048
500.7956	0.0013
500.9944	0.0029
501.1932	0.0061
501.3919	0.0006
501.5907	0.0041
501.7895	0.0015
501.9882	0.0006
502.1869	0.0067
502.3856	0.0031
502.5843	-0.003
502.783	-0.0027
502.9816	0.0033
503.1803	-0.0002
503.3789	0.0093
503.5775	-0.0057
503.7761	0.0029
503.9747	-0.0046
504.1732	-0.0073
504.3718	0.0061
504.5703	-0.0011
504.7689	-0.0133
504.9674	0.0029
505.1658	-0.0017
505.3643	0.0035
505.5628	0.009
505.7612	0.009
505.9597	-0.0026
506.1581	-0.0033
506.3565	-0.0006
506.5549	-0.001
506.7532	-0.0175
506.9516	-0.0079
507.1499	-0.0056
507.3482	0.0037
507.5465	0.0019
507.7448	0.0046
507.9431	0.006
508.1414	-0.0018
508.3396	-0.0019
508.5379	0.0015
508.7361	0.0057
508.9343	-0.0038
509.1325	0.0044
509.3306	-0.0026
509.5288	-0.0122
509.7269	0.0057
509.9251	0.0016
510.1232	0.0033
510.3213	-0.0049
510.5193	-0.0017
510.7174	-0.0091
510.9154	0.0001
511.1135	-0.0024
511.3115	-0.0029
511.5095	-0.0006
511.7075	-0.0048
511.9055	0.0028
512.1034	-0.0036
512.3014	-0.0027
512.4993	0.0025
512.6972	-0.0013
512.8951	0.0038
513.093	-0.0091
513.2908	0.0088
513.4887	0.002
513.6865	0.001
513.8844	-0.0038
514.0822	-0.0039
514.2799	-0.0058
514.4777	-0.0079
514.6755	0.0016
514.8732	-0.008
515.0709	-0.0005
515.2687	-0.0009
515.4664	0.0024
515.664	0.01
515.8617	0.0053
516.0594	0.006
516.257	0.0061
516.4546	0.0128
516.6522	-0.0032
516.8498	0.0006
517.0474	-0.0053
517.2449	-0.0058
517.4425	-0.0034
517.64	-0.0011
517.8375	0.0016
518.035	-0.0059
518.2325	-0.0077
518.43	-0.0026
518.6274	-0.0005
518.8249	-0.0065
519.0223	0.007
519.2197	-0.0108
519.4171	-0.0103
519.6145	-0.0018
519.8118	-0.0127
520.0092	-0.0041
520.2065	-0.0001
520.4038	-0.0162
520.6011	0.0063
520.7984	0.0088
520.9956	-0.0007
521.1929	-0.0009
521.3901	0.0014
521.5874	0.0002
521.7846	-0.0067
521.9818	-0.0032
522.1789	-0.0101
522.3761	0.0071
522.5732	-0.0029
522.7704	-0.0061
522.9675	-0.0089
523.1646	-0.0026
523.3617	0.0016
523.5587	-0.0057
523.7558	0.0061
523.9528	0.0061
524.1498	0.0004
524.3468	0.0035
524.5438	-0.0092
524.7408	-0.0058
524.9378	0.0104
525.1347	0.0092
525.3316	-0.0046
525.5285	0.0003
525.7254	0.0046
525.9223	0.0028
526.1192	0.0005
526.316	0.0031
526.5129	0.0023
526.7097	-0.0078
526.9065	-0.0003
527.1033	-0.004
527.3	-0.0039
527.4968	0.0019
527.6935	-0.0156
527.8903	0.0017
528.087	0
528.2837	0.0072
528.4804	-0.0041
528.677	-0.0057
528.8737	-0.0011
529.0703	-0.0017
529.2669	0.006
529.4635	-0.0036
529.6601	-0.01
529.8567	-0.0001
530.0532	0.0033
530.2498	0.0062
530.4463	-0.0165
530.6428	0.0041
530.8393	0.0033
531.0358	0.0079
531.2322	-0.0056
531.4287	-0.0042
531.6251	-0.0137
531.8215	-0.0059
532.0179	0.0021
532.2143	-0.0029
532.4107	0.0081
532.607	-0.0054
532.8034	-0.0066
532.9997	-0.0012
533.196	-0.0046
533.3923	0.0042
533.5886	-0.0048
533.7848	-0.0044
533.9811	-0.0008
534.1773	-0.0041
534.3735	0.0012
534.5697	-0.001
534.7659	0.0004
534.9621	-0.0036
535.1582	0.0002
535.3544	-0.0005
535.5505	0.0014
535.7466	0.0005
535.9427	-0.0091
536.1387	-0.0018
536.3348	0.0117
536.5308	-0.0084
536.7269	-0.0036
536.9229	-0.002
537.1189	0.0126
537.3148	0.0018
537.5108	-0.0018
537.7068	0.01
537.9027	-0.015
538.0986	0.0043
538.2945	-0.0078
538.4904	-0.0056
538.6863	-0.0053
538.8821	-0.0031
539.078	-0.0049
539.2738	-0.0013
539.4696	-0.005
539.6654	0.0036
539.8611	0.0039
540.0569	0.0005
540.2526	0.0109
540.4484	-0.0153
540.6441	-0.0012
540.8398	0.0012
541.0355	-0.0103
541.2311	0.0025
541.4268	0.0097
541.6224	0.0089
541.818	0.0037
542.0136	0.0004
542.2092	-0.0001
542.4048	0.0005
542.6003	-0.0085
542.7959	0.0095
542.9914	0.0002
543.1869	0.0007
543.3824	0.0032
543.5779	0.0023
543.7734	0.0118
543.9688	0.0056
544.1642	-0.0009
544.3596	0.0099
544.555	0.0028
544.7504	0.0056
544.9458	-0.0037
545.1411	0.0016
545.3365	-0.0039
545.5318	0.007
545.7271	-0.0044
545.9224	0.0022
546.1177	0.0076
546.3129	0.001
546.5081	-0.0049
546.7034	0.0015
546.8986	0.0043
547.0938	0.0012
547.289	0.0037
547.4841	-0.0047
547.6793	-0.0051
547.8744	-0.0008
548.0695	-0.0091
548.2646	0.0079
548.4597	-0.003
548.6548	0.0095
548.8498	0.0093
549.0448	0.003
549.2399	0.0103
549.4349	-0.0001
549.6298	0.0062
549.8248	-0.006
550.0198	0.0026
550.2147	-0.0015
550.4096	0.0018
550.6045	0.0021
550.7994	0.0022
550.9943	-0.0034
551.1892	-0.0126
551.384	0.0051
551.5788	0.0025
551.7737	0.0034
551.9685	0.0001
552.1632	-0.0085
552.358	0.0029
552.5528	0.0086
552.7475	-0.0017
552.9422	0.0054
553.1369	0.0163
553.3316	0.0056
553.5263	0.0076
553.7209	-0.002
553.9156	-0.0015
554.1102	0.0007
554.3048	-0.017
554.4994	0.0039
554.694	0.0016
554.8885	-0.0004
555.0831	0.0055
555.2776	0.0018
555.4721	0.0009
555.6666	0.0023
555.8611	0.0003
556.0555	0.0049
556.25	0.0092
556.4444	0.0026
556.6388	-0.011
556.8332	0.0034
557.0276	-0.0009
557.222	-0.0093
557.4163	-0.0007
557.6107	0.0022
557.805	-0.0074
557.9993	-0.0016
558.1936	-0.0093
558.3879	-0.0055
558.5821	-0.0038
558.7764	-0.0082
558.9706	0.0085
559.1648	0.0106
559.359	-0.0123
559.5532	-0.0039
559.7473	0.0056
559.9415	0.0032
560.1356	0.004
560.3297	-0.0018
560.5238	0.0026
560.7179	0.001
560.9119	-0.0008
561.106	-0.0017
561.3	-0.0028
561.494	-0.0041
561.688	0.0027
561.882	0.0014
562.076	-0.0014
562.2699	-0.0016
562.4639	0.0104
562.6578	0.0062
562.8517	0.0007
563.0456	0.0025
563.2395	0.0016
563.4333	0.006
563.6272	0.0031
563.821	0.0059
564.0148	-0.0002
564.2086	0.0002
564.4024	0.0069
564.5961	0.0034
564.7899	0.014
564.9836	-0.0006
565.1773	0.01
565.371	-0.003
565.5647	0.0039
565.7584	0.0094
565.952	0.0055
566.1456	0.0042
566.3393	-0.0003
566.5329	0.0014
566.7264	0.0091
566.92	0.0048
567.1136	0.0005
567.3071	-0.0056
567.5006	0.0135
567.6941	0.003
567.8876	0.0026
568.0811	0.0238
568.2745	-0.0051
568.468	0.001
568.6614	0.0063
568.8548	0.0022
569.0482	0.0055
569.2416	-0.0041
569.4349	0.0056
569.6283	0.0042
569.8216	0.0075
570.0149	0.0008
570.2082	0.0118
570.4015	0.0038
570.5947	0.004
570.788	0.0052
570.9812	0.0025
571.1744	0.0066
571.3676	0.005
571.5608	0.0045
571.754	0.0092
571.9471	0.0084
572.1402	0.0058
572.3333	0.0056
572.5264	0.0033
572.7195	0.005
572.9126	0.0018
573.1057	0.0054
573.2987	0.0017
573.4917	0.0016
573.6847	0.0017
573.8777	0.0086
574.0707	0.0017
574.2636	0.0014
574.4566	0.0022
574.6495	0.0029
574.8424	0.0086
575.0353	0.0042
575.2281	0.0084
575.421	0.0017
575.6138	0.0016
575.8067	0.0066
575.9995	-0.0026
576.1923	0.0052
576.385	0.0019
576.5778	0.0049
576.7706	0.0015
576.9633	0.0075
577.156	-0.0012
577.3487	0.0027
577.5414	0.0041
577.734	-0.0002
577.9267	0.003
578.1193	0.0047
578.3119	0.0004
578.5045	0.0042
578.6971	0.0002
578.8897	0.0027
579.0822	0.0039
579.2747	0.0014
579.4673	0.0019
579.6598	0.0059
579.8522	0.0008
580.0447	0.0085
580.2372	0.0093
580.4296	0.0075
580.622	0.0003
580.8144	0.0052
581.0068	0.0046
581.1992	0.0059
581.3915	-0
581.5839	0.0055
581.7762	0.0012
581.9685	0.0027
582.1608	0.0033
582.353	0.0031
582.5453	0.0085
582.7375	0.0057
582.9298	0.0025
583.122	0.0024
583.3142	0.0063
583.5063	0.0008
583.6985	0.0009
583.8906	0.0031
584.0827	0.0081
584.2749	0.0006
584.4669	0.0021
584.659	0.0041
584.8511	0.0098
585.0431	0.005
585.2352	0.0042
585.4272	0.0063
585.6192	0.0019
585.8111	0.0039
586.0031	0.0017
586.195	0.0011
586.387	0.0049
586.5789	0.0073
586.7708	0.0032
586.9627	0.0027
587.1545	0.0067
587.3464	0.0018
587.5382	0.0031
587.73	0.005
587.9218	0.0001
588.1136	0
588.3053	0.0011
588.4971	0.0014
588.6888	0.0009
588.8805	-0.0024
589.0722	0.0089
589.2639	0.0068
589.4556	0.0052
589.6472	0.0083
589.8389	0.0101
590.0305	-0.0004
590.2221	0.0077
590.4137	0.0031
590.6052	-0.0013
590.7968	0.0043
590.9883	0.0026
591.1798	0.0011
591.3713	0.0022
591.5628	0.0028
591.7543	-0.0003
591.9458	0.0026
592.1372	0.008
592.3286	0.0024
592.52	0.0052
592.7114	0.0075
592.9028	0.0059
593.0941	0.0007
593.2855	0.0002
593.4768	0.0097
593.6681	0.0043
593.8594	0.0049
594.0506	0.0038
594.2419	0.004
594.4331	0.0083
594.6244	0.0018
594.8156	-0.003
595.0067	0.0012
595.1979	0.0039
595.3891	0.005
595.5802	0.0081
595.7713	0.0034
595.9624	0.0001
596.1535	0.0055
596.3446	-0.0027
596.5357	0.0068
596.7267	0.0035
596.9177	0.0059
597.1087	-0.0016
597.2997	0.0081
597.4907	0.0014
597.6817	0.0053
597.8726	0.0127
598.0635	0.0033
598.2544	0.0059
598.4453	0.0005
598.6362	0.0016
598.827	0.0056
599.0179	0.0065
599.2087	0.0071
599.3995	0.0064
599.5903	0.0127
599.7811	0.0085
599.9718	-0.0009
600.1626	0.0016
600.3533	0.0024
600.544	0.0077
600.7347	0.0057
600.9254	0.0076
601.116	0.0105
601.3067	0.0027
601.4973	0.0042
601.6879	0.0015
601.8785	0.0114
602.0691	0.0044
602.2596	0.0041
602.4502	0.0051
602.6407	0.0085
602.8312	0.0061
603.0217	0.004
603.2122	0.0056
603.4027	0.0016
603.5931	-0.0019
603.7835	0.0035
603.9739	0.0029
604.1643	0.009
604.3547	0.0026
604.5451	0.0091
604.7354	-0.0011
604.9257	0.0018
605.116	0.0032
605.3063	0.0048
605.4966	0.0011
605.6869	0.0075
605.8771	0.006
606.0673	0.0039
606.2575	0.0021
606.4477	0.0077
606.6379	-0.0014
606.8281	0.003
607.0182	0.0023
607.2083	0.0022
607.3985	0.0002
607.5885	0.001
607.7786	0.0045
607.9687	0.0028
608.1587	0.0051
608.3488	0.0051
608.5388	0.0027
608.7288	0.0056
608.9187	0.0032
609.1087	0.0053
609.2986	0.0059
609.4886	-0.0023
609.6785	0.0056
609.8684	-0.002
610.0582	0.001
610.2481	-0.0076
610.4379	0.0094
610.6278	0.0055
610.8176	0.0146
611.0074	0.0104
611.1971	0.0078
611.3869	0.0083
611.5766	0.0004
611.7664	0.0076
611.9561	0.0029
612.1458	0.0043
612.3354	0.003
612.5251	0.0053
612.7147	0.0099
612.9044	-0.0023
613.094	0.0056
613.2836	-0.005
613.4731	0.009
613.6627	0.0076
613.8522	0.0059
614.0417	0.0026
614.2313	-0.0003
614.4207	0.0057
614.6102	0.006
614.7997	0.0137
614.9891	0.0067
615.1785	-0.0043
615.3679	0.0037
615.5573	0.0067
615.7467	-0.0036
615.9361	0.0056
616.1254	0.0117
616.3147	0.001
616.504	0.0067
616.6933	0.0087
616.8826	0.0008
617.0718	0.0152
617.2611	0.0009
617.4503	-0.0003
617.6395	-0.0017
617.8287	0.0118
618.0179	0.0051
618.207	0.0077
618.3961	-0.0028
618.5853	0.0016
618.7744	0.008
618.9634	0.0053
619.1525	-0.0061
619.3416	0.0057
619.5306	0.0102
619.7196	0.0166
619.9086	0.008
620.0976	-0.0077
620.2866	0.0076
620.4755	-0.0002
620.6645	0.0029
620.8534	0.0028
621.0423	0.0018
621.2312	0.0022
621.42	0.0007
621.6089	0.005
621.7977	0.0038
621.9865	-0.0002
622.1753	-0.0062
622.3641	-0.0035
622.5529	0.003
622.7416	0.0005
622.9303	0.0015
623.1191	0.0017
623.3078	0.0062
623.4964	0.0123
623.6851	0.0098
623.8737	0.005
624.0624	-0.0124
624.251	-0.0001
624.4396	0.0085
624.6282	0.0051
624.8167	-0.0011
625.0053	0.0051
625.1938	0.0034
625.3823	0.0114
625.5708	0.0005
625.7593	0.0003
625.9477	0.0013
626.1362	-0.0038
626.3246	0.0025
626.513	0.0124
626.7014	0.0036
626.8898	0.0098
627.0781	0.0045
627.2665	0.0103
627.4548	-0.0027
627.6431	0.0054
627.8314	0.0127
628.0197	0.0163
628.2079	0.0023
628.3962	-0.0103
628.5844	-0.0019
628.7726	-0.0063
628.9608	0.008
629.1489	0.0061
629.3371	0.0028
629.5252	0.0024
629.7134	-0.0032
629.9015	0.0018
630.0895	-0.0173
630.2776	0.0115
630.4657	-0.0019
630.6537	0.0073
630.8417	-0.015
631.0297	0.0154
631.2177	0.0121
631.4057	0.003
631.5936	0.003
631.7815	0
631.9695	0.025
632.1574	0.0088
632.3452	0.0049
632.5331	-0.0016
632.7209	0.0187
632.9088	-0.0045
633.0966	0.0273
633.2844	-0.0063
633.4722	0.0088
633.6599	0.0209
633.8477	0.0081
634.0354	0.0024
634.2231	-0.012
634.4108	0.0113
634.5985	0.0007
634.7861	-0.0094
634.9738	-0.0079
635.1614	-0.0032
635.349	0.0054
635.5366	0.0114
635.7242	0.0051
635.9117	0.0024
636.0993	0.0042
636.2868	0.0043
636.4743	0.0071
636.6618	-0.0028
636.8492	0.0042
637.0367	0.0013
637.2241	-0.0057
637.4115	0.0264
637.5989	-0.0018
637.7863	0.0216
637.9737	0.0178
638.161	0.0021
638.3484	-0.0048
638.5357	-0.0023
638.723	0.0102
638.9103	-0.012
639.0975	0.0036
639.2848	0.0078
639.472	0.0173
639.6592	-0.0151
639.8464	-0.0216
640.0336	0.0075
640.2208	-0.0017
640.4079	-0.0136
640.595	-0.0133
640.7821	0.0215
640.9692	-0.0031
641.1563	0.0175
641.3434	0.0149
641.5304	0.0227
641.7174	0.022
641.9044	0.0074
642.0914	0.0133
642.2784	-0.0131
642.4653	0.0032
642.6523	0.0097
642.8392	-0.0109
643.0261	-0.0019
643.213	0.0033
643.3999	0.0115
643.5867	0.0082
643.7735	-0.0036
643.9604	0.0127
644.1472	0.0044
644.3339	0.0033
644.5207	-0.0135
644.7075	-0.0136
644.8942	-0.0114
645.0809	-0.0114
645.2676	-0.0167
645.4543	-0.0086
645.6409	0.0046
645.8276	0.0186
646.0142	-0.0024
646.2008	0.0088
646.3874	0.0095
646.574	-0.0193
646.7605	0.0112
646.9471	-0.0036
647.1336	-0.0243
647.3201	-0.0053
647.5066	0.0065
647.6931	-0.0114
647.8795	-0.002
648.0659	-0.0025
648.2524	0.0152
648.4388	0.0058
648.6252	0.0074
648.8115	0.0064
648.9979	0.0116
649.1842	0.0016
649.3705	0.0002
649.5568	-0.0155
649.7431	0.0085
649.9294	-0.0009
650.1156	-0.0167
650.3018	0.0049
650.488	0.0141
650.6742	0.0249
650.8604	-0.0193
651.0466	-0.0029
651.2327	0.001
651.4188	-0.0258
651.6049	0.016
651.791	0.0121
651.9771	0.0228
652.1632	0.027
652.3492	-0.0002
652.5352	0.0147
652.7212	-0.0157
652.9072	-0.0108
653.0932	-0.0021
653.2791	0.0063
653.465	0.0149
653.651	-0.0002
653.8369	0.0111
654.0227	-0.0017
654.2086	0.0112
654.3944	0.0064
654.5803	0.0086
654.7661	0.0013
654.9519	-0.0027
655.1377	-0
655.3234	-0
655.5092	-0
655.6949	-0
655.8806	-0
656.0663	-0
656.2519	-0
656.4376	-0
656.6232	-0
656.8088	-0
656.9945	-0
657.18	-0
657.3656	-0
657.5511	-0
657.7367	-0
657.9222	-0
658.1077	-0
658.2932	-0
658.4786	-0
658.6641	-0
658.8495	-0
659.0349	-0
659.2203	-0
659.4057	-0
659.591	0.1345
659.7764	0.0126
659.9617	0.0118
660.147	0.0072
660.3323	-0.0037
660.5176	0.0075
660.7028	-0.0157
660.888	0.0229
661.0733	0.017
661.2585	0.0025
661.4436	0.0134
661.6288	0.0146
661.8139	0.0025
661.9991	-0.0151
662.1842	-0.0137
662.3693	0.0156
662.5544	0.01
662.7394	0.0058
662.9245	0.0017
663.1095	0.0026
663.2945	-0.0089
663.4795	-0.0102
663.6644	-0.0068
663.8494	0.0213
664.0343	0.0172
664.2193	0.0088
664.4042	0.0083
664.589	0.0157
664.7739	0.0183
664.9587	-0.0054
665.1436	0.0074
665.3284	0.001
665.5132	-0.0125
665.698	0.0178
665.8827	0.0117
666.0675	-0.0096
666.2522	0.0302
666.4369	0
666.6216	0.0262
666.8063	-0.0054
666.9909	0.0014
667.1756	-0.0181
667.3602	-0.0113
667.5448	-0.0067
667.7294	0.0263
667.9139	-0.0232
668.0985	-0.007
668.283	-0.0107
668.4675	0.0248
668.652	-0.0064
668.8365	-0.0134
669.0209	0.0003
669.2054	-0.0075
669.3898	-0.0069
669.5742	0.0351
669.7586	-0.005
669.943	0.0149
670.1273	-0.009
670.3117	0.014
670.496	-0.0013
670.6803	0.0134
670.8646	-0.0402
671.0488	0.0188
671.2331	-0.003
671.4173	0.0103
671.6015	0.0055
671.7857	0.0089
671.9699	0.0034
672.1541	0.0033
672.3382	-0.0029
672.5223	0.0118
672.7064	0.0152
672.8905	-0.003
673.0746	0.011
673.2587	0.0323
673.4427	0.0125
673.6267	0.0209
673.8107	0.0376
673.9947	0.0055
674.1787	0.0074
674.3626	0.0118
674.5465	0.0319
674.7304	-0.0099
674.9143	-0.006
675.0982	0.0164
675.2821	-0.0017
675.4659	-0.0122
675.6497	0.0012
675.8335	0.0152
676.0173	-0.0109
676.2011	0.0245
676.3849	0.0119
676.5686	0.0023
676.7523	0
676.936	0.0024
677.1197	-0.0116
677.3034	0.021
677.487	0.004
677.6706	0.0167
677.8542	0.0041
678.0378	0.0038
678.2214	-0.0016
678.405	0.0127
678.5885	0.0166
678.772	-0.0081
678.9555	-0.0019
679.139	0.007
679.3225	0.003
679.5059	-0.0068
679.6894	0.0033
679.8728	-0.0018
680.0562	0.0045
680.2395	-0.0095
680.4229	0.0106
680.6062	0.0137
680.7896	0.0052
680.9729	-0.0089
681.1562	0.003
681.3394	-0.0069
681.5227	0.008
681.7059	0.002
681.8891	0.0089
682.0723	-0.0029
682.2555	0.0019
682.4387	-0.0079
682.6218	0.0148
682.805	0.0099
682.9881	-0.0005
683.1712	0.013
683.3542	0.0106
683.5373	-0.0128
683.7203	0.0036
683.9034	-0.0061
684.0864	-0.0065
684.2694	-0.0006
684.4523	0.0159
684.6353	-0.0033
684.8182	-0.0055
685.0011	0.0118
685.184	0.0152
685.3669	0.0264
685.5498	-0.0101
685.7326	-0.006
685.9154	0.0086
686.0982	0.0181
686.281	-0.0147
686.4638	0.0036
686.6465	0.0056
686.8293	-0.0133
687.012	0.0029
687.1947	0.004
687.3774	-0.0102
687.56	-0.0155
687.7427	-0.0044
687.9253	-0.0029
688.1079	-0.0079
688.2905	-0.0154
688.4731	0.0468
688.6556	-0.0003
688.8382	-0.0354
689.0207	0.0122
689.2032	0.0138
689.3857	-0.0091
689.5681	-0.0057
689.7506	0.0315
689.933	-0.004
690.1154	0.0153
690.2978	0.0107
690.4802	0.0228
690.6626	0.0103
690.8449	0.0177
691.0272	-0.0074
691.2095	-0.0097
691.3918	0.0097
691.5741	0.0009
691.7563	0.0016
691.9386	0.0177
692.1208	0.0122
692.303	0.0086
692.4852	0
692.6673	-0.0053
692.8495	-0.0068
693.0316	0.0201
693.2137	0.0173
693.3958	0.0178
693.5778	0.0024
693.7599	-0.0081
693.9419	0.006
694.1239	0.0185
694.3059	0.0197
694.4879	-0.0059
694.6699	-0.0014
694.8518	0.012
695.0337	0.0044
695.2157	0.047
695.3975	-0.0019
695.5794	-0.0026
695.7613	0.0028
695.9431	-0.0237
696.1249	0.0057
696.3067	-0.0083
696.4885	0.024
696.6703	-0.0081
696.852	0.0036
697.0337	0.0155
697.2154	0.0052
697.3971	0.0141
697.5788	0.0097
697.7605	-0.0107
697.9421	0.0188
698.1237	0.0187
698.3053	-0.0322
698.4869	0.003
698.6685	0.0137
698.85	0.0132
699.0315	0.0019
699.213	0.0127
699.3945	-0.0023
699.576	0.0069
699.7575	-0.0054
699.9389	-0.0164
700.1203	0.0024
700.3017	0.0185
700.4831	0.0348
700.6645	0.0417
700.8458	0.0154
701.0271	0.0031
701.2084	0.0099
701.3897	0.0114
701.571	-0.0049
701.7523	0.0274
701.9335	0.0082
702.1147	0.0024
702.2959	-0.0091
702.4771	-0.0062
702.6583	0.0045
702.8394	-0.0204
703.0205	-0.0072
703.2016	-0.0032
703.3827	0.002
703.5638	-0.0078
703.7449	0.0119
703.9259	0.0234
704.1069	-0.0327
704.2879	0.0127
704.4689	0.0031
704.6499	0.021
704.8308	0.0071
705.0117	0.0041
705.1927	0.001
705.3735	-0.0146
705.5544	0.0073
705.7353	-0.028
705.9161	-0.032
706.0969	-0.0011
706.2777	-0.0026
706.4585	0.0087
706.6393	0.0238
706.82	0.0032
707.0007	-0.006
707.1815	0.0026
707.3621	0.0307
707.5428	0.0036
707.7235	0.0047
707.9041	0.0023
708.0847	-0.0028
708.2653	0.0054
708.4459	0.0155
708.6265	-0.0056
708.807	-0.0068
708.9875	-0.0115
709.168	-0.0063
709.3485	0.0185
709.529	0.009
709.7095	-0.0102
709.8899	0.0017
710.0703	0.0161
710.2507	-0.0055
710.4311	-0.0244
710.6115	0.0145
710.7918	0.0086
710.9721	-0.001
711.1524	0.0008
711.3327	-0.0093
711.513	-0.0098
711.6932	0.0043
711.8735	0.0366
712.0537	-0.0268
712.2339	-0.0008
712.4141	0.0125
712.5942	0.0004
712.7744	0.0063
712.9545	0.0163
713.1346	-0.0156
713.3147	-0.0111
713.4947	-0.0022
713.6748	0.0045
713.8548	0.0181
714.0348	0.0256
714.2148	0.0042
714.3948	-0.009
714.5748	-0.0017
714.7547	0.027
714.9346	-0.0013
715.1145	0.0098
715.2944	0.0041
715.4743	0.0206
715.6541	-0.0047
715.834	0.0218
716.0138	0.0235
716.1936	0.0049
716.3733	0.0051
716.5531	0.0055
716.7328	0.0223
716.9126	0.0102
717.0923	-0.0096
717.2719	-0.0018
717.4516	0.0117
717.6312	-0.0094
717.8109	0.0235
717.9905	0.0156
718.1701	0.0169
718.3496	-0.0184
718.5292	-0.0007
718.7087	-0.0063
718.8882	0.0079
719.0677	0.0264
719.2472	-0.0103
719.4267	0
719.6061	-0.0269
719.7856	0.0232
719.965	0.0279
720.1443	0.0012
720.3237	-0.0147
720.5031	-0.0071
720.6824	-0.0142
720.8617	0.0042
721.041	0.0132
721.2203	-0.0154
721.3995	0.007
721.5788	-0.0128
721.758	0.008
721.9372	0.0123
722.1164	-0.0298
722.2956	0.0193
722.4747	0.0147
722.6538	0.0022
722.8329	0.0303
723.012	0.0187
723.1911	0.0064
723.3702	0.0097
723.5492	-0.0126
723.7282	0.0109
723.9072	0.0304
724.0862	-0.0075
724.2652	-0.0184
724.4441	-0.0261
724.623	0.0208
724.8019	0.0072
724.9808	0.0178
725.1597	0.0238
725.3385	-0.004
725.5174	0.0226
725.6962	0.0128
725.875	0.0221
726.0538	-0.002
726.2325	0.0091
726.4112	-0.033
726.59	-0.0106
726.7687	0.0034
726.9474	0.0237
727.126	0.019
727.3047	0.0004
727.4833	0.0208
727.6619	-0.0053
727.8405	0.0042
728.0191	0.022
728.1976	0.0173
728.3762	0.0336
728.5547	-0.005
728.7332	0.0187
728.9116	0.0014
729.0901	0.0054
729.2686	-0.009
729.447	-0.0158
729.6254	0.0226
729.8038	-0.005
729.9821	0.0038
730.1605	0.012
730.3388	-0.0021
730.5171	0.0072
730.6954	-0.0039
730.8737	0.0082
731.0519	0.0005
731.2302	0.0042
731.4084	-0.0141
731.5866	0.0032
731.7648	0.0109
731.9429	-0.0037
732.1211	0.003
732.2992	0.0247
732.4773	0.006
732.6554	-0.0231
732.8335	0.012
733.0115	0.0161
733.1896	-0.0103
733.3676	0.0095
733.5456	0.0046
733.7235	-0.0157
733.9015	0.0168
734.0794	-0.0082
734.2574	-0.0121
734.4353	0.0106
734.6131	-0.0137
734.791	0.0054
734.9689	-0.0067
735.1467	0.0014
735.3245	0.0245
735.5023	0.0082
735.68	0.0097
735.8578	0.0109
736.0355	0.0016
736.2132	-0.0026
736.3909	0.0078
736.5686	0.0019
736.7463	-0.0053
736.9239	0.0216
737.1015	0.0108
737.2791	-0.0069
737.4567	0.0201
737.6343	0.025
737.8118	0.0228
737.9894	-0.0114
738.1669	-0.0131
738.3444	0.0173
738.5218	-0.0196
738.6993	0.0047
738.8767	0.0145
739.0541	0.0015
739.2315	-0.0039
739.4089	0.0174
739.5863	0.0119
739.7636	-0.0129
739.9409	0.0033
740.1182	-0.0007
740.2955	0.0256
740.4728	-0.0269
740.65	-0.0137
740.8272	0.0305
741.0044	-0.0276
741.1816	-0.001
741.3588	-0.0312
741.5359	0.0117
741.7131	-0.013
741.8902	-0.0053
742.0673	-0.0077
742.2444	0.0337
742.4214	0.0261
742.5985	-0.0123
742.7755	0.0057
742.9525	-0.0243
743.1295	-0.0362
743.3064	-0.0176
743.4834	-0.0088
743.6603	0.0487
743.8372	-0.042
744.0141	0.0194
744.191	0.0306
744.3678	-0.0115
744.5446	0.0152
744.7215	0.014
744.8982	0.0117
745.075	0.0593
745.2518	0.0134
745.4285	0.0366
745.6052	-0.0187
745.7819	0.0038
745.9586	0.0041
746.1353	-0.01
746.3119	0.0033
746.4885	-0.0058
746.6651	0.0127
746.8417	0.0026
747.0183	0.0189
747.1948	-0.0013
747.3714	0.0062
747.5479	0.025
747.7244	-0.0496
747.9008	-0.0169
748.0773	0.0043
748.2537	0.0146
748.4301	0.0169
748.6065	-0.0076
748.7829	-0.0219
748.9593	0.0337
749.1356	-0.0024
749.3119	0.0129
749.4882	0.0039
749.6645	-0.0048
749.8408	0.014
750.017	0.0136
750.1933	-0.0205
750.3695	0.0113
750.5457	-0.0006
750.7218	-0.0076
750.898	-0.0187
751.0741	0.0023
751.2502	0.005
751.4263	0.0041
751.6024	0.0312
751.7784	-0.01
751.9545	-0.004
752.1305	0.0015
752.3065	0.0315
752.4825	0.0073
752.6584	-0.0073
752.8344	-0.0094
753.0103	-0.0193
753.1862	0.0035
753.3621	-0.0042
753.5379	-0.0196
753.7138	0.0176
753.8896	0
754.0654	-0.004
754.2412	0.0109
754.417	0.0288
754.5927	0.0107
754.7685	0.0129
754.9442	0.0123
755.1199	0.0242
755.2956	0.016
755.4712	-0.0044
755.6469	-0.0085
755.8225	0.0122
755.9981	0.0183
756.1736	0.012
756.3492	0.0104
756.5248	0.0046
756.7003	-0.0028
756.8758	0
757.0513	0.0108
757.2267	0.0074
757.4022	-0.025
757.5776	-0.0057
757.753	0.0202
757.9284	0.0083
758.1038	-0.0073
758.2791	0.0175
758.4545	-0.0111
758.6298	-0.0105
758.8051	0.021
758.9803	0.0022
759.1556	-0.0183
759.3308	-0.0177
759.506	-0.0039
759.6812	-0.0006
759.8564	0.0106
760.0316	0.0035
760.2067	0.039
760.3819	0.0088
760.557	0.0051
760.732	0.0163
760.9071	0.0158
761.0821	-0.0271
761.2572	-0.0079
761.4322	0.0087
761.6072	-0.013
761.7821	-0.031
761.9571	0.0277
762.132	0.0042
762.3069	0.0318
762.4818	0.034
762.6567	0.0078
762.8316	0.0152
763.0064	0.0307
763.1812	0.019
763.356	-0.0083
763.5308	0.0248
763.7055	0.0104
763.8803	0.0079
764.055	-0.007
764.2297	-0.0093
764.4044	-0.0092
764.579	-0.0144
764.7537	0.0019
764.9283	0.0171
765.1029	0.0028
765.2775	0.0192
765.4521	0.0243
765.6266	-0.0003
765.8011	0.0184
765.9756	0.0196
766.1501	0.0077
766.3246	0
766.4991	-0.0014
766.6735	0.0366
766.8479	0.0197
767.0223	0.0173
767.1967	-0.0078
767.371	0.0115
767.5454	0.0129
767.7197	0.0182
767.894	-0.006
768.0683	0.0095
768.2425	0.0242
768.4168	-0.0049
768.591	0.0082
768.7652	-0.006
768.9394	-0.0223
769.1135	0.004
769.2877	0.0449
769.4618	0.0334
769.6359	0.0051
769.81	0.015
769.984	-0.0045
770.1581	0.0137
770.3321	0.0122
770.5061	-0.006
770.6801	0.0194
770.8541	-0.0132
771.028	0.0243
771.202	0.0272
771.3759	-0.0019
771.5498	0.0268
771.7236	0.0137
771.8975	0.0292
772.0713	-0.0183
772.2451	-0.0287
772.4189	-0.0048
772.5927	-0.0495
772.7665	0.0226
772.9402	0.0112
773.1139	-0.0199
773.2876	-0.0076
773.4613	0.0256
773.635	0.0426
773.8086	0.0488
773.9822	0.0091
774.1558	0.0323
774.3294	-0.0173
774.503	0.0141
774.6765	0.0174
774.8501	0.0007
775.0236	0.0209
775.1971	-0.0022
775.3705	0.0191
775.544	-0.0258
775.7174	-0.0064
775.8908	-0.0069
776.0642	0.0117
776.2376	0.0026
776.4109	0.0248
776.5843	-0.0103
776.7576	-0.0016
776.9309	0.0102
777.1041	0.0045
777.2774	-0.0194
777.4506	0.0367
777.6238	0.0045
777.797	0.0057
777.9702	0.0001
778.1434	0.0019
778.3165	-0.0354
778.4896	-0.0235
778.6627	0.0249
778.8358	0.0275
779.0089	-0.0284
779.1819	0.0131
779.3549	-0.0034
779.5279	-0.0165
779.7009	0.0323
779.8739	0.0565
780.0468	0.0029
780.2197	0.0383
780.3926	-0.0649
780.5655	0.0322
780.7384	0.0078
780.9112	0.0182
781.0841	0.0322
781.2569	0.0279
781.4297	0.0181
781.6024	0.021
781.7752	0.0193
781.9479	0.0144
782.1206	-0.0047
782.2933	0.0018
782.466	0.0437
782.6386	-0.0173
782.8113	-0.0114
782.9839	0.0261
783.1565	0.0434
783.329	0.0251
783.5016	0.0234
783.6741	-0.0191
783.8466	0.0553
784.0191	-0.002
784.1916	-0.0413
784.3641	-0.0405
784.5365	0.0116
784.7089	-0.0413
784.8813	0.0595
785.0537	-0.0161
785.2261	0.0001
785.3984	-0.002
785.5707	-0.0374
785.743	0.0142
785.9153	0.0068
786.0876	0.0001
786.2598	-0.0189
786.432	-0.0109
786.6042	-0.0127
786.7764	-0.0366
786.9486	-0.0209
787.1207	0.0732
787.2928	0.0308
787.4649	-0.0025
787.637	-0.0093
787.8091	0.0291
787.9811	0.025
788.1532	0.0402
788.3252	-0.0109
788.4972	0.0112
788.6691	0.0131
788.8411	-0.0095
789.013	0.0212
789.1849	-0.0153
789.3568	-0.0214
789.5287	0.0937
789.7005	-0.0439
789.8723	-0.0289
790.0442	0.0122
790.2159	-0.025
790.3877	0.0381
790.5595	0.0403
790.7312	-0.0166
790.9029	-0.018
791.0746	0.0104
791.2463	-0.0068
791.4179	-0.0144
791.5896	0.0468
791.7612	0.0387
791.9328	-0.0098
792.1044	-0.0044
792.2759	-0.0157
792.4474	-0.0114
792.619	-0.0306
792.7905	0.0001
792.9619	0.0202
793.1334	0.0581
793.3048	0.0553
793.4762	0.0103
793.6476	-0.0541
793.819	-0.0277
793.9904	-0.0486
794.1617	-0.0146
794.333	0.0035
794.5043	0.0279
794.6756	0.0153
794.8469	0.0403
795.0181	-0.0136
795.1893	0.0146
795.3605	0.0245
795.5317	-0.0231
795.7029	-0.0408
795.874	-0.0128
796.0452	0.0135
796.2163	0.0744
796.3873	0.1256
796.5584	-0.0248
796.7294	0.0342
796.9005	-0.0391
797.0715	-0.0518
797.2425	0.1196
797.4134	0.0379
797.5844	0.0698
797.7553	-0.0989
797.9262	0.0447
798.0971	0.0257
798.2679	0.0341
798.4388	0.0173
798.6096	0.0312
798.7804	-0.0143
798.9512	0.0265
799.122	0.0252
799.2927	-0.0092
799.4635	-0.0747
799.6342	-0.0029
799.8049	0.0612
799.9755	-0.0533
800.1462	0.0254
800.3168	0.1002
800.4874	-0.0529
800.658	0.0149
800.8286	0.0159
800.9991	0.1044
801.1696	0.0119
801.3402	-0.0194
801.5106	-0.0785
801.6811	-0.0138
801.8516	0.0214
802.022	-0.053
802.1924	0.0304
802.3628	0.0795
802.5332	0.056
802.7035	0.0065
802.8739	0.02
803.0442	0.0311
803.2145	0.0413
803.3847	0.0634
803.555	-0.0127
803.7252	-0.0485
803.8954	-0.0361
804.0656	-0.0416
804.2358	-0.0142
804.4059	0.0441
804.5761	-0.0165
804.7462	-0.0363
804.9163	-0.0168
805.0864	-0.0085
805.2564	0.0215
805.4264	0.0398
805.5965	0.0262
805.7665	-0.0541
805.9364	0.0241
806.1064	0.018
806.2763	0.0184
806.4462	-0.0118
806.6161	0.0482
806.786	-0.0147
806.9559	-0.018
807.1257	-0.0109
807.2955	-0.0397
807.4653	0.0374
807.6351	0.0026
807.8048	0.0401
807.9746	-0.0311
808.1443	-0.0448
808.314	0.0808
808.4837	0.0837
808.6533	-0.0227
808.8229	0.0043
808.9926	0.0111
809.1622	-0.0348
809.3317	-0.0033
809.5013	0.015
809.6708	0.0188
809.8403	0.0552
810.0098	0.049
810.1793	-0.0986
810.3488	-0.0541
810.5182	0.0866
810.6876	-0.0759
810.857	-0.0338
811.0264	-0.0452
811.1958	0.1825
811.3651	-0.0652
811.5344	0.0211
811.7037	0.0905
811.873	0.0808
812.0422	-0.0845
812.2115	-0.0356
812.3807	-0.1541
812.5499	-0.0602
812.7191	-0.1695
812.8882	-0.0718
813.0574	-0.0202
813.2265	0.0197
813.3956	0.0371
813.5646	0.0456
813.7337	0.0056
813.9027	-0.1035
814.0718	-0.0151
814.2407	-0.0368
814.4097	0.087
814.5787	0.0717
814.7476	0.1031
814.9165	-0.0059
815.0854	-0.0055
815.2543	0.0243
815.4232	0.0267
815.592	0.248
815.7608	-0.0772
815.9296	-0.0108
816.0984	0.0606
816.2671	-0.1392
816.4359	0.093
816.6046	-0.0147
816.7733	-0.0198
816.942	0.0393
817.1106	0.0945
817.2793	-0.0488
817.4479	-0.0466
817.6165	0.058
817.785	0.021
817.9536	-0.0431
818.1221	0.0458
818.2906	-0.1292
818.4591	-0.054
818.6276	0.0254
818.7961	0.0508
818.9645	-0.0293
819.1329	0.2194
819.3013	-0.1187
819.4697	-0.1141
819.638	0.0956
819.8064	-0.0433
819.9747	0.1034
820.143	-0.0922
820.3113	0.0465
820.4795	0.0431
820.6477	0.0387
820.816	-0.0324
820.9842	0.2595
821.1523	0.0389
821.3205	0.0317
821.4886	-0.0646
821.6567	-0.0707
821.8248	0.1707
821.9929	-0.1129
822.1609	-0.0162
822.329	-0.0056
822.497	0.0723
822.665	-0.0093
822.833	-0.1611
823.0009	-0.0619
823.1688	-0.0663
823.3367	-0.1892
823.5046	-0.0746
823.6725	-0.091
823.8404	-0.0184
824.0082	-0.0169
824.176	-0.056
824.3438	0.2266
824.5116	-0.1219
824.6793	0.0197
824.847	0.2146
825.0147	0.1337
825.1824	-0.0571
825.3501	-0.094
825.5177	0.056
825.6854	-0.1715
825.853	-0.1413
826.0206	0.1059
826.1881	-0.0379
826.3557	-0.0744
826.5232	0.1013
826.6907	-0.0508
826.8582	-0.0123
827.0257	0.2388
827.1931	-0.0265
827.3605	-0.0669
827.528	-0.0199
827.6953	-0.1996
827.8627	-0.0147
828.03	0.0367
828.1974	0.0003
828.3647	0.0968
828.532	-0.1145
828.6992	0.0544
828.8665	-0.2419
829.0337	-0.0786
829.2009	-0.1071
829.3681	0.2137
829.5352	-0.3501
829.7024	0.2385
829.8695	0.2234
830.0366	-0.0498
830.2037	0.1098
830.3707	-0.0028
830.5378	-0.0264
830.7048	-0.1477
830.8718	-0.0248
831.0388	0.2083
831.2057	0.5188
831.3727	-0.3107
831.5396	-0.1028
831.7065	-1.1047
831.8734	0.3047
832.0402	0.3528
832.2071	-0.4345
832.3739	-0.1452
832.5407	-1.4244
832.7075	-0.3107
832.8742	-0.0588
833.041	-0.096
833.2077	0.2088
833.3744	0.0343
833.541	0.3746
833.7077	-0.0633
833.8743	0.0131
834.0409	0.0508
834.2075	0.0854
834.3741	-0.1575
834.5407	-0.0364
834.7072	-0.0765
834.8737	0.0912
835.0402	0.5609
835.2067	0.3185
835.3731	-0.1332
835.5395	-0.1129
835.706	-0.2189
835.8723	-0.131
836.0387	0.1223
836.2051	0.0257
836.3714	0.0145
836.5377	0.0513
836.704	-0.051
836.8703	-0.2711
837.0365	-0.8234
837.2027	-0.0657
837.3689	0.2557
837.5351	0.2846
837.7013	-0.064
837.8674	-0.3878
838.0335	-0.0149
838.1997	-0.2853
838.3657	-0
838.5318	1.4008
838.6978	0.0157
838.8639	-0.4673
839.0299	-0.026
839.1958	0.0192
839.3618	-0
839.5277	0.1879
839.6937	-0.0095
839.8596	-0.2638
840.0254	0.127
840.1913	-0.0937
840.3571	-0.0553
840.523	-0.9243
840.6888	-0.0116
840.8545	-0.632
841.0203	-0.0049
841.186	-0.1792
841.3517	0.1432
841.5174	0.1141
841.6831	-0.1236
841.8488	-0.1232
842.0144	-0.2288
842.18	0.5774
842.3456	-0.6286
842.5112	-1.272
842.6767	-0.0956
842.8422	0.0008
843.0077	-0.1286
843.1732	-0.4754
843.3387	-0
843.5042	-0
843.6696	1.7571
843.835	0.3775
844.0004	-0.2711
844.1657	-1.2553
844.3311	1.4937
844.4964	-0.5914
844.6617	0.3203
844.827	-0
844.9923	0.1634
845.1575	-0.1702
845.3227	-0.433
845.4879	-0.2861
845.6531	0.01
845.8183	0.1396
845.9834	0.4013
846.1485	0.2738
846.3136	-0.0431
846.4787	-0
846.6438	-0.1154
846.8088	-0.064
846.9738	-0.2139
847.1388	0.211
847.3038	-0
847.4687	0.4033
847.6337	-0.1367
847.7986	0.0012
847.9635	0.0461
848.1284	-0
848.2932	-0
848.458	-0
848.6228	-0
848.7876	-0
848.9524	-0
849.1172	-2.0436
849.2819	-1.0831
849.4466	0.5026
849.6113	0.2171
849.7759	-0.236
849.9406	-0.0553
850.1052	-1.4185
850.2698	-0
850.4344	-0.7968
850.599	-0.2602
850.7635	0.3518
850.928	0.4225
851.0925	0.5505
851.257	0.2458
851.4215	-0
851.5859	0.1481
851.7503	-0
851.9147	-0
852.0791	0.0007
852.2434	0.4001
852.4078	-0
852.5721	0.3657
852.7364	-0.1628
852.9007	-0.2315
853.0649	-0
853.2291	-0.0351
853.3934	-0
853.5575	-0.3362
853.7217	0.1614
853.8859	-0.3986
854.05	-0.4582
854.2141	-0
854.3782	-0.4757
854.5423	-0.4582
854.7063	0.1563
854.8703	-0.0356
855.0343	-0.1188
855.1983	0.2101
855.3623	0.5511
855.5262	-0.0022
855.6901	0.2925
855.854	-0.0054
856.0179	0.4629
856.1818	0.4317
856.3456	0.0763
856.5094	-0.0441
856.6732	-0.6668
856.837	-0.8053
857.0008	-0
857.1645	1.1158
857.3282	-0.0265
857.4919	-0.1662
857.6556	-0.1942
857.8192	-0.0205
857.9828	-0.1954
858.1465	-0.1772
858.31	-0
858.4736	-0
858.6372	-0.2687
858.8007	0.0406
858.9642	1.0655
859.1277	1.1186
859.2911	-0.3057
859.4546	-0
859.618	0.3058
859.7814	-0
859.9448	-0
860.1081	-0
860.2715	-0
860.4348	-0.241
860.5981	0.4229
860.7614	0.5198
860.9246	0.0278
861.0879	-0
861.2511	-0
861.4143	-0.9243
861.5774	-0.4637
861.7406	-0.4821
861.9037	-0.0792
862.0668	-0.5002
862.2299	-0
862.393	-0
862.556	-0.4985
862.7191	0.132
862.8821	-0.0515
863.0451	-0.3817
863.208	-0
863.371	-0.2567
863.5339	0.0719
863.6968	0.0461
863.8597	-0.3452
864.0225	-0.1984
864.1854	0.1803
864.3482	-0.5655
864.511	-0.0635
864.6737	0.2526
864.8365	0.7176
864.9992	-0
865.1619	-0.2139
865.3246	-0
865.4873	-0.4912
865.65	0.191
865.8126	-0.012
865.9752	-0.4575
866.1378	-0.1849
866.3004	0.085
866.4629	-1.5241
866.6254	-0.0331
866.7879	0.2923
866.9504	-0.4942
867.1129	-0.5219
867.2753	-0.1308
867.4377	0.0496
867.6001	-0.0526
867.7625	0.4361
867.9249	-0
868.0872	-0.3601
868.2495	0.7846
868.4118	0.1578
868.5741	-0.2277
868.7363	-0.4876
868.8986	-0.5732
869.0608	-0.4597
869.223	-0.7507
869.3851	-0
869.5473	0.2342
869.7094	-0
869.8715	-0.4669
870.0336	-0.051
870.1957	-0.5967
870.3577	0.1947
870.5197	0.0241
870.6817	-0.849
870.8437	-0.4256
871.0057	-0.2364
871.1676	0.1117
871.3295	-0.11
871.4914	-0
871.6533	-0.2956
871.8151	0.276
871.977	-0.5516
872.1388	0.4168
872.3006	-0.7295
872.4623	-0.7438
872.6241	-0
872.7858	-0.2429
872.9475	-0
873.1092	0.3289
873.2709	0.705
873.4325	-0.632
873.5941	-0
873.7557	-0
873.9173	0.7307
874.0789	0.3612
874.2404	-0
874.4019	0.0006
874.5634	-0
874.7249	-0
874.8863	0.5006
875.0478	-0.5061
875.2092	-0
875.3706	0.1403
875.5319	-0
875.6933	0.2183
875.8546	-0.3612
876.0159	-0.1366
876.1772	-0
876.3385	-0
876.4997	0.4783
876.6609	0.0015
876.8221	-0
876.9833	-0.1997
877.1445	0.122
877.3056	-1.0427
877.4667	-0
877.6278	1.35
877.7889	-0
877.9499	0.3227
878.111	-0.7365
878.272	0.2632
878.433	0.1551
878.5939	-0.0326
878.7549	0.7478
878.9158	-0
879.0767	0.2082
879.2376	-0.2326
879.3984	-0
879.5593	0.413
879.7201	-0
879.8809	-0
880.0417	-0.3337
880.2024	0.748
880.3632	0.0426
880.5239	-0.3609
880.6846	-0.2277
880.8452	0.0541
881.0059	-0
881.1665	-0.0234
881.3271	1.1207
881.4877	0.3836
881.6483	-1.347
881.8088	-0
881.9693	-0
882.1298	-0
882.2903	-0
