Data from D4ACN5uM440nmA_Absorbance_13-50-25-882.txt Node
Date: Fri Feb 21 13:50:25 GMT 2025
User: LASERRRRR
Spectrometer: FLMT03099
Trigger mode: 0
Integration Time (sec): 1.500000E-2
Scans to average: 1
Electric dark correction enabled: true
Nonlinearity correction enabled: false
Boxcar width: 0
XAxis mode: Wavelengths
Number of Pixels in Spectrum: 3648
>>>>>Begin Spectral Data<<<<<
179.3399	-0.6242
179.5586	-0.6242
179.7771	-0.6242
179.9957	-0.0185
180.2143	-0
180.4329	0.0747
180.6514	-0
180.8699	0.5139
181.0885	-0
181.307	0.1607
181.5255	0.5929
181.744	-0
181.9625	0.1516
182.181	0.1034
182.3994	-0.5978
182.6179	-0
182.8363	-0
183.0547	-0.3238
183.2732	0.4649
183.4916	0.2551
183.71	0.2097
183.9284	0.2399
184.1467	0.6766
184.3651	0.016
184.5835	0.4395
184.8018	0.1043
185.0201	0.1411
185.2385	0.2795
185.4568	0.0121
185.6751	0.227
185.8934	0.2757
186.1117	-0.0076
186.3299	0.0842
186.5482	0.0741
186.7664	0.0614
186.9847	0.0126
187.2029	0.1987
187.4211	0.0327
187.6393	0.0493
187.8575	0.1979
188.0757	0.2457
188.2939	0.1711
188.512	0.3732
188.7302	0.1683
188.9483	0.2621
189.1665	0.5818
189.3846	0.8554
189.6027	0.1713
189.8208	0.2394
190.0389	0.1951
190.257	0.2136
190.475	-0.0381
190.6931	-0.074
190.9111	0.2601
191.1292	0.222
191.3472	0.1731
191.5652	0.5951
191.7832	0.3414
192.0012	0.1464
192.2192	0.1198
192.4371	0.1486
192.6551	0.135
192.873	0.1474
193.091	0.2336
193.3089	0.1501
193.5268	0.3254
193.7447	0.1881
193.9626	0.334
194.1805	0.337
194.3984	0.2357
194.6162	0.2959
194.8341	0.3775
195.0519	0.1935
195.2697	0.3008
195.4875	0.3451
195.7054	0.306
195.9231	0.2926
196.1409	0.3422
196.3587	0.3105
196.5765	0.2939
196.7942	0.3297
197.012	0.339
197.2297	0.3289
197.4474	0.3952
197.6651	0.3234
197.8828	0.3637
198.1005	0.4725
198.3182	0.4279
198.5358	0.4207
198.7535	0.3389
198.9711	0.4275
199.1888	0.3719
199.4064	0.3606
199.624	0.3704
199.8416	0.4184
200.0592	0.4058
200.2767	0.4432
200.4943	0.4243
200.7119	0.4224
200.9294	0.4083
201.1469	0.4259
201.3645	0.4348
201.582	0.3687
201.7995	0.4312
202.017	0.3994
202.2344	0.426
202.4519	0.3836
202.6694	0.4489
202.8868	0.3906
203.1042	0.4375
203.3217	0.4216
203.5391	0.3586
203.7565	0.4056
203.9739	0.3813
204.1913	0.3687
204.4086	0.3602
204.626	0.3544
204.8433	0.3638
205.0607	0.3411
205.278	0.3811
205.4953	0.3593
205.7126	0.335
205.9299	0.3271
206.1472	0.3187
206.3644	0.3561
206.5817	0.3189
206.7989	0.336
207.0162	0.3173
207.2334	0.3455
207.4506	0.3224
207.6678	0.2943
207.885	0.3198
208.1022	0.3072
208.3194	0.2984
208.5365	0.2985
208.7537	0.3157
208.9708	0.2974
209.1879	0.2877
209.405	0.2708
209.6222	0.2798
209.8392	0.3161
210.0563	0.2806
210.2734	0.2575
210.4905	0.2566
210.7075	0.28
210.9245	0.2739
211.1416	0.2606
211.3586	0.2618
211.5756	0.2473
211.7926	0.266
212.0096	0.2583
212.2265	0.2507
212.4435	0.2571
212.6604	0.2398
212.8774	0.2544
213.0943	0.2484
213.3112	0.2556
213.5281	0.242
213.745	0.2377
213.9619	0.2372
214.1788	0.2582
214.3956	0.2435
214.6125	0.2452
214.8293	0.2553
215.0461	0.2496
215.2629	0.2496
215.4798	0.2434
215.6965	0.2256
215.9133	0.2351
216.1301	0.2379
216.3469	0.2453
216.5636	0.237
216.7803	0.2488
216.9971	0.2596
217.2138	0.24
217.4305	0.2332
217.6472	0.2324
217.8639	0.2384
218.0805	0.2532
218.2972	0.2408
218.5138	0.2629
218.7305	0.2667
218.9471	0.2509
219.1637	0.2643
219.3803	0.2634
219.5969	0.252
219.8135	0.2659
220.0301	0.2487
220.2466	0.257
220.4632	0.2342
220.6797	0.2438
220.8962	0.2568
221.1127	0.2531
221.3292	0.273
221.5457	0.2643
221.7622	0.2485
221.9787	0.2805
222.1951	0.273
222.4116	0.2721
222.628	0.2951
222.8444	0.2919
223.0608	0.2693
223.2772	0.2831
223.4936	0.2824
223.71	0.2879
223.9264	0.2894
224.1427	0.2769
224.3591	0.2853
224.5754	0.2957
224.7917	0.2802
225.008	0.2999
225.2243	0.2956
225.4406	0.2956
225.6569	0.3059
225.8732	0.3065
226.0894	0.3088
226.3057	0.3117
226.5219	0.3195
226.7381	0.3155
226.9543	0.3077
227.1705	0.3156
227.3867	0.3195
227.6029	0.3013
227.8191	0.3358
228.0352	0.3391
228.2513	0.3361
228.4675	0.3408
228.6836	0.3383
228.8997	0.3441
229.1158	0.3584
229.3319	0.3621
229.548	0.3427
229.764	0.3563
229.9801	0.3752
230.1961	0.3636
230.4121	0.3775
230.6282	0.3803
230.8442	0.3912
231.0602	0.3862
231.2761	0.3836
231.4921	0.3915
231.7081	0.392
231.924	0.4059
232.14	0.4026
232.3559	0.4047
232.5718	0.4092
232.7877	0.4141
233.0036	0.4035
233.2195	0.413
233.4353	0.416
233.6512	0.4158
233.867	0.4221
234.0829	0.4275
234.2987	0.4257
234.5145	0.4319
234.7303	0.4338
234.9461	0.4321
235.1619	0.4451
235.3776	0.428
235.5934	0.4282
235.8091	0.4462
236.0249	0.4519
236.2406	0.4405
236.4563	0.454
236.672	0.4382
236.8877	0.4486
237.1034	0.4418
237.319	0.4506
237.5347	0.4541
237.7503	0.4499
237.966	0.4606
238.1816	0.455
238.3972	0.4624
238.6128	0.4635
238.8284	0.465
239.0439	0.4589
239.2595	0.4726
239.475	0.46
239.6906	0.4584
239.9061	0.4574
240.1216	0.463
240.3371	0.4599
240.5526	0.458
240.7681	0.455
240.9836	0.4521
241.199	0.4538
241.4145	0.4503
241.6299	0.445
241.8453	0.4417
242.0607	0.4438
242.2761	0.4315
242.4915	0.429
242.7069	0.4228
242.9223	0.4217
243.1376	0.4077
243.353	0.4037
243.5683	0.3963
243.7836	0.3853
243.9989	0.3765
244.2142	0.3764
244.4295	0.379
244.6448	0.3764
244.86	0.3597
245.0753	0.3496
245.2905	0.3459
245.5057	0.3331
245.721	0.3422
245.9362	0.3273
246.1514	0.317
246.3665	0.3133
246.5817	0.3004
246.7969	0.3035
247.012	0.2844
247.2271	0.2958
247.4423	0.2884
247.6574	0.2824
247.8725	0.2718
248.0876	0.2684
248.3026	0.2659
248.5177	0.2572
248.7328	0.2609
248.9478	0.2537
249.1628	0.2546
249.3779	0.2413
249.5929	0.2385
249.8079	0.2386
250.0228	0.2268
250.2378	0.233
250.4528	0.226
250.6677	0.226
250.8827	0.2163
251.0976	0.2103
251.3125	0.2146
251.5274	0.2146
251.7423	0.2067
251.9572	0.206
252.172	0.2098
252.3869	0.2016
252.6017	0.2003
252.8166	0.2013
253.0314	0.194
253.2462	0.1964
253.461	0.2007
253.6758	0.1943
253.8906	0.1928
254.1053	0.1926
254.3201	0.1937
254.5348	0.1828
254.7496	0.1816
254.9643	0.1901
255.179	0.1873
255.3937	0.19
255.6083	0.1867
255.823	0.185
256.0377	0.1795
256.2523	0.1838
256.467	0.1899
256.6816	0.1831
256.8962	0.1826
257.1108	0.1886
257.3254	0.1821
257.54	0.1807
257.7545	0.1811
257.9691	0.1773
258.1836	0.178
258.3981	0.1795
258.6127	0.1687
258.8272	0.1828
259.0417	0.1779
259.2561	0.1769
259.4706	0.1731
259.6851	0.1796
259.8995	0.1743
260.114	0.1774
260.3284	0.1795
260.5428	0.1679
260.7572	0.1753
260.9716	0.1872
261.186	0.1786
261.4003	0.1769
261.6147	0.178
261.829	0.1803
262.0433	0.1773
262.2577	0.1765
262.472	0.1792
262.6863	0.1819
262.9005	0.1741
263.1148	0.1783
263.3291	0.1803
263.5433	0.1763
263.7576	0.1824
263.9718	0.1791
264.186	0.1833
264.4002	0.1822
264.6144	0.1854
264.8286	0.1843
265.0427	0.1887
265.2569	0.1884
265.471	0.1809
265.6851	0.1831
265.8993	0.1813
266.1134	0.1828
266.3275	0.1825
266.5415	0.1892
266.7556	0.1857
266.9697	0.1905
267.1837	0.1829
267.3978	0.182
267.6118	0.1768
267.8258	0.184
268.0398	0.1805
268.2538	0.1882
268.4677	0.178
268.6817	0.1825
268.8957	0.1773
269.1096	0.1774
269.3235	0.1775
269.5374	0.1842
269.7514	0.1832
269.9652	0.1769
270.1791	0.1738
270.393	0.1801
270.6068	0.1795
270.8207	0.1768
271.0345	0.1778
271.2483	0.1706
271.4622	0.1794
271.676	0.178
271.8897	0.1761
272.1035	0.1828
272.3173	0.1776
272.531	0.1795
272.7448	0.1741
272.9585	0.1722
273.1722	0.1701
273.3859	0.176
273.5996	0.1838
273.8133	0.1788
274.0269	0.1755
274.2406	0.1773
274.4542	0.1808
274.6679	0.1834
274.8815	0.186
275.0951	0.1849
275.3087	0.1853
275.5223	0.1792
275.7358	0.185
275.9494	0.1864
276.1629	0.1891
276.3765	0.1855
276.59	0.1819
276.8035	0.1785
277.017	0.1963
277.2305	0.1803
277.444	0.1859
277.6574	0.1891
277.8709	0.1902
278.0843	0.1882
278.2978	0.1929
278.5112	0.1917
278.7246	0.1871
278.938	0.1869
279.1513	0.1854
279.3647	0.1857
279.5781	0.1853
279.7914	0.1872
280.0047	0.1879
280.2181	0.1837
280.4314	0.184
280.6447	0.1913
280.8579	0.183
281.0712	0.1871
281.2845	0.1929
281.4977	0.1883
281.711	0.1811
281.9242	0.1832
282.1374	0.1876
282.3506	0.1827
282.5638	0.1842
282.7769	0.1839
282.9901	0.1865
283.2033	0.1807
283.4164	0.182
283.6295	0.1824
283.8426	0.1842
284.0557	0.1865
284.2688	0.1824
284.4819	0.1816
284.695	0.19
284.908	0.182
285.1211	0.186
285.3341	0.177
285.5471	0.1856
285.7601	0.1844
285.9731	0.1836
286.1861	0.1876
286.3991	0.1874
286.612	0.186
286.825	0.192
287.0379	0.1871
287.2508	0.1856
287.4637	0.1899
287.6766	0.1818
287.8895	0.1817
288.1024	0.1925
288.3152	0.196
288.5281	0.1816
288.7409	0.1933
288.9538	0.1891
289.1666	0.189
289.3794	0.1819
289.5922	0.1909
289.8049	0.1919
290.0177	0.19
290.2304	0.1849
290.4432	0.189
290.6559	0.1913
290.8686	0.1875
291.0813	0.1876
291.294	0.1929
291.5067	0.1846
291.7194	0.1908
291.932	0.1829
292.1447	0.1883
292.3573	0.1882
292.5699	0.1915
292.7825	0.1851
292.9951	0.1864
293.2077	0.1838
293.4203	0.183
293.6328	0.1852
293.8454	0.1886
294.0579	0.186
294.2704	0.1908
294.4829	0.1901
294.6954	0.189
294.9079	0.188
295.1204	0.1815
295.3328	0.1893
295.5453	0.1855
295.7577	0.1903
295.9701	0.1914
296.1825	0.1955
296.3949	0.19
296.6073	0.1877
296.8197	0.1862
297.0321	0.1914
297.2444	0.1882
297.4567	0.1883
297.6691	0.1854
297.8814	0.1875
298.0937	0.1899
298.306	0.1854
298.5182	0.1914
298.7305	0.1933
298.9428	0.1908
299.155	0.1845
299.3672	0.1891
299.5794	0.1893
299.7916	0.1832
300.0038	0.1891
300.216	0.1871
300.4282	0.1836
300.6403	0.193
300.8525	0.1831
301.0646	0.1919
301.2767	0.1856
301.4888	0.1899
301.7009	0.1902
301.913	0.1909
302.125	0.19
302.3371	0.1884
302.5491	0.1905
302.7612	0.1907
302.9732	0.1975
303.1852	0.1887
303.3972	0.1887
303.6092	0.1918
303.8211	0.1838
304.0331	0.1846
304.245	0.186
304.457	0.1899
304.6689	0.1836
304.8808	0.1836
305.0927	0.1815
305.3046	0.1828
305.5164	0.1801
305.7283	0.1802
305.9401	0.1752
306.152	0.1789
306.3638	0.1773
306.5756	0.1821
306.7874	0.172
306.9992	0.1762
307.2109	0.1722
307.4227	0.1722
307.6344	0.1733
307.8462	0.1692
308.0579	0.1703
308.2696	0.1699
308.4813	0.1624
308.693	0.1625
308.9046	0.1636
309.1163	0.1599
309.328	0.1576
309.5396	0.1576
309.7512	0.1523
309.9628	0.1552
310.1744	0.1478
310.386	0.148
310.5976	0.148
310.8091	0.1516
311.0207	0.1442
311.2322	0.1432
311.4437	0.1461
311.6552	0.1447
311.8667	0.1487
312.0782	0.1453
312.2897	0.1452
312.5012	0.1446
312.7126	0.14
312.924	0.1438
313.1355	0.1416
313.3469	0.1366
313.5583	0.1371
313.7696	0.1375
313.981	0.1453
314.1924	0.1309
314.4037	0.1365
314.6151	0.1288
314.8264	0.1363
315.0377	0.138
315.249	0.1302
315.4603	0.1272
315.6716	0.1307
315.8828	0.131
316.0941	0.1366
316.3053	0.1243
316.5165	0.1286
316.7277	0.1307
316.9389	0.1292
317.1501	0.1267
317.3613	0.129
317.5724	0.1278
317.7836	0.1227
317.9947	0.1255
318.2058	0.1275
318.417	0.1257
318.6281	0.1229
318.8391	0.13
319.0502	0.127
319.2613	0.1261
319.4723	0.1277
319.6834	0.1261
319.8944	0.1274
320.1054	0.132
320.3164	0.1242
320.5274	0.1244
320.7383	0.1256
320.9493	0.1225
321.1602	0.1254
321.3712	0.1234
321.5821	0.1212
321.793	0.1327
322.0039	0.1212
322.2148	0.1266
322.4257	0.1197
322.6365	0.1257
322.8474	0.1289
323.0582	0.1258
323.269	0.1296
323.4798	0.1274
323.6906	0.1289
323.9014	0.1211
324.1122	0.1222
324.3229	0.1288
324.5337	0.1315
324.7444	0.1269
324.9551	0.1294
325.1658	0.1278
325.3765	0.1381
325.5872	0.1312
325.7979	0.1338
326.0085	0.1285
326.2192	0.1272
326.4298	0.1348
326.6404	0.1337
326.851	0.1302
327.0616	0.1345
327.2722	0.1356
327.4828	0.1329
327.6933	0.1342
327.9039	0.1332
328.1144	0.1401
328.3249	0.1364
328.5354	0.1368
328.7459	0.1361
328.9564	0.1402
329.1669	0.1391
329.3773	0.1382
329.5878	0.1329
329.7982	0.1426
330.0086	0.1369
330.219	0.1332
330.4294	0.1385
330.6398	0.1452
330.8502	0.1448
331.0605	0.1386
331.2708	0.1395
331.4812	0.1452
331.6915	0.1399
331.9018	0.1352
332.1121	0.1408
332.3224	0.1417
332.5326	0.1355
332.7429	0.1416
332.9531	0.1447
333.1633	0.1364
333.3735	0.1385
333.5837	0.1398
333.7939	0.1416
334.0041	0.1416
334.2143	0.1406
334.4244	0.1488
334.6346	0.1423
334.8447	0.1383
335.0548	0.15
335.2649	0.1451
335.475	0.1434
335.685	0.1427
335.8951	0.1444
336.1051	0.1495
336.3152	0.1454
336.5252	0.1435
336.7352	0.1373
336.9452	0.1444
337.1552	0.1447
337.3652	0.1416
337.5751	0.1375
337.7851	0.1431
337.995	0.139
338.2049	0.1431
338.4148	0.146
338.6247	0.1435
338.8346	0.1422
339.0445	0.1398
339.2543	0.1476
339.4642	0.1422
339.674	0.1369
339.8838	0.1456
340.0936	0.1454
340.3034	0.1441
340.5132	0.1389
340.7229	0.1458
340.9327	0.1521
341.1424	0.1425
341.3522	0.1419
341.5619	0.1476
341.7716	0.1555
341.9813	0.1538
342.1909	0.1585
342.4006	0.1544
342.6102	0.1535
342.8199	0.1511
343.0295	0.1444
343.2391	0.1519
343.4487	0.1514
343.6583	0.1581
343.8679	0.1548
344.0774	0.1521
344.287	0.1524
344.4965	0.1628
344.706	0.1549
344.9155	0.1574
345.125	0.1543
345.3345	0.1682
345.544	0.1653
345.7534	0.1592
345.9629	0.1645
346.1723	0.1621
346.3817	0.1673
346.5911	0.1622
346.8005	0.1733
347.0099	0.1612
347.2193	0.1711
347.4286	0.1756
347.638	0.1712
347.8473	0.1783
348.0566	0.167
348.2659	0.1682
348.4752	0.1733
348.6845	0.1713
348.8937	0.1708
349.103	0.1731
349.3122	0.1725
349.5214	0.1763
349.7306	0.1825
349.9398	0.1801
350.149	0.1753
350.3582	0.179
350.5674	0.1799
350.7765	0.1851
350.9856	0.1778
351.1948	0.182
351.4039	0.1804
351.613	0.1875
351.822	0.1825
352.0311	0.1764
352.2402	0.1819
352.4492	0.1839
352.6582	0.1769
352.8672	0.1803
353.0762	0.1836
353.2852	0.1841
353.4942	0.1874
353.7032	0.1775
353.9121	0.1845
354.1211	0.1828
354.33	0.1904
354.5389	0.1829
354.7478	0.18
354.9567	0.1873
355.1655	0.181
355.3744	0.1812
355.5833	0.1785
355.7921	0.1881
356.0009	0.189
356.2097	0.1834
356.4185	0.1877
356.6273	0.1845
356.8361	0.1882
357.0448	0.1889
357.2536	0.1852
357.4623	0.1877
357.671	0.1931
357.8797	0.1923
358.0884	0.1905
358.2971	0.1877
358.5057	0.1951
358.7144	0.1916
358.923	0.1946
359.1316	0.2007
359.3402	0.194
359.5488	0.1936
359.7574	0.2015
359.966	0.1985
360.1746	0.1922
360.3831	0.2063
360.5916	0.2034
360.8002	0.2108
361.0087	0.1952
361.2172	0.1975
361.4256	0.2027
361.6341	0.2115
361.8426	0.2033
362.051	0.2043
362.2594	0.2056
362.4678	0.2081
362.6762	0.2116
362.8846	0.2078
363.093	0.2066
363.3014	0.2105
363.5097	0.2087
363.718	0.21
363.9264	0.2112
364.1347	0.2138
364.343	0.2098
364.5513	0.213
364.7595	0.2213
364.9678	0.2143
365.176	0.2296
365.3842	0.2217
365.5925	0.2151
365.8007	0.227
366.0089	0.2264
366.217	0.2265
366.4252	0.2251
366.6333	0.2245
366.8415	0.2268
367.0496	0.2223
367.2577	0.2343
367.4658	0.229
367.6739	0.2196
367.882	0.2238
368.09	0.2281
368.2981	0.2335
368.5061	0.2322
368.7141	0.2325
368.9221	0.2351
369.1301	0.2366
369.3381	0.2338
369.5461	0.2383
369.754	0.241
369.962	0.2362
370.1699	0.2387
370.3778	0.2433
370.5857	0.2365
370.7936	0.2394
371.0015	0.2506
371.2093	0.2364
371.4172	0.2434
371.625	0.2437
371.8328	0.2404
372.0406	0.2516
372.2484	0.2488
372.4562	0.2498
372.664	0.2482
372.8717	0.2431
373.0795	0.2651
373.2872	0.2519
373.4949	0.253
373.7026	0.2414
373.9103	0.2483
374.118	0.2543
374.3256	0.2673
374.5333	0.2465
374.7409	0.2548
374.9485	0.2518
375.1561	0.2571
375.3637	0.2544
375.5713	0.258
375.7789	0.2564
375.9864	0.2564
376.194	0.26
376.4015	0.2528
376.609	0.2652
376.8165	0.2637
377.024	0.2702
377.2315	0.2564
377.4389	0.2572
377.6464	0.2638
377.8538	0.263
378.0612	0.2698
378.2686	0.2556
378.476	0.2716
378.6834	0.2691
378.8908	0.2668
379.0981	0.2759
379.3055	0.2686
379.5128	0.2718
379.7201	0.2771
379.9274	0.2704
380.1347	0.2716
380.342	0.2823
380.5492	0.2713
380.7565	0.269
380.9637	0.2818
381.1709	0.2687
381.3781	0.2826
381.5853	0.2757
381.7925	0.2717
381.9997	0.2812
382.2068	0.2888
382.4139	0.2793
382.6211	0.2805
382.8282	0.2757
383.0353	0.2897
383.2424	0.2824
383.4494	0.2888
383.6565	0.284
383.8635	0.2857
384.0706	0.2866
384.2776	0.2818
384.4846	0.2918
384.6916	0.2879
384.8986	0.2909
385.1055	0.2986
385.3125	0.2911
385.5194	0.2831
385.7263	0.2809
385.9333	0.2959
386.1402	0.2868
386.347	0.2794
386.5539	0.2962
386.7608	0.2863
386.9676	0.2755
387.1744	0.2836
387.3813	0.2806
387.5881	0.2818
387.7948	0.2846
388.0016	0.2899
388.2084	0.2882
388.4151	0.2869
388.6219	0.2785
388.8286	0.2952
389.0353	0.2802
389.242	0.2806
389.4487	0.2789
389.6553	0.2692
389.862	0.2777
390.0686	0.2762
390.2753	0.284
390.4819	0.2768
390.6885	0.2834
390.8951	0.2857
391.1016	0.2707
391.3082	0.2792
391.5147	0.2655
391.7213	0.2753
391.9278	0.2608
392.1343	0.2777
392.3408	0.2722
392.5473	0.2711
392.7537	0.2704
392.9602	0.2654
393.1666	0.2676
393.373	0.2614
393.5794	0.2565
393.7858	0.2568
393.9922	0.2652
394.1986	0.2625
394.4049	0.2605
394.6113	0.2556
394.8176	0.2563
395.0239	0.2551
395.2302	0.2548
395.4365	0.2671
395.6428	0.2449
395.8491	0.2532
396.0553	0.2502
396.2615	0.2481
396.4678	0.2566
396.674	0.2433
396.8802	0.2548
397.0863	0.2513
397.2925	0.2525
397.4987	0.2388
397.7048	0.2532
397.9109	0.2382
398.117	0.245
398.3231	0.2495
398.5292	0.2338
398.7353	0.2397
398.9413	0.2423
399.1474	0.2441
399.3534	0.2486
399.5594	0.2522
399.7654	0.2421
399.9714	0.2415
400.1774	0.2375
400.3833	0.2362
400.5893	0.2418
400.7952	0.2449
401.0011	0.2383
401.207	0.2461
401.4129	0.2415
401.6188	0.2436
401.8247	0.2442
402.0305	0.2364
402.2364	0.2471
402.4422	0.2461
402.648	0.253
402.8538	0.2466
403.0596	0.2335
403.2654	0.2441
403.4711	0.2388
403.6768	0.2391
403.8826	0.2435
404.0883	0.235
404.294	0.2448
404.4997	0.2401
404.7054	0.2496
404.911	0.2471
405.1167	0.2453
405.3223	0.2399
405.5279	0.2424
405.7335	0.2402
405.9391	0.2372
406.1447	0.2489
406.3502	0.2442
406.5558	0.2402
406.7613	0.2411
406.9668	0.2394
407.1724	0.2306
407.3778	0.2324
407.5833	0.2321
407.7888	0.2472
407.9942	0.2262
408.1997	0.2433
408.4051	0.2407
408.6105	0.2445
408.8159	0.2303
409.0213	0.2447
409.2267	0.235
409.432	0.2399
409.6374	0.2441
409.8427	0.2448
410.048	0.2397
410.2533	0.2363
410.4586	0.2314
410.6639	0.2471
410.8691	0.2252
411.0744	0.2373
411.2796	0.2425
411.4848	0.2407
411.69	0.2299
411.8952	0.2425
412.1004	0.2366
412.3056	0.2296
412.5107	0.235
412.7158	0.2471
412.921	0.2398
413.1261	0.232
413.3312	0.2436
413.5362	0.2423
413.7413	0.2359
413.9464	0.2278
414.1514	0.2353
414.3564	0.226
414.5614	0.2291
414.7664	0.232
414.9714	0.234
415.1764	0.2372
415.3813	0.2331
415.5863	0.2546
415.7912	0.2349
415.9961	0.2339
416.201	0.2422
416.4059	0.2335
416.6108	0.2319
416.8156	0.2454
417.0205	0.2297
417.2253	0.2269
417.4301	0.2307
417.6349	0.2264
417.8397	0.2306
418.0445	0.2297
418.2492	0.223
418.454	0.2337
418.6587	0.2339
418.8634	0.2376
419.0681	0.2316
419.2728	0.231
419.4775	0.2365
419.6822	0.2206
419.8868	0.2275
420.0915	0.2212
420.2961	0.2134
420.5007	0.2284
420.7053	0.2274
420.9099	0.2254
421.1144	0.2198
421.319	0.2228
421.5235	0.217
421.728	0.2322
421.9325	0.2242
422.137	0.2173
422.3415	0.2137
422.546	0.204
422.7504	0.2106
422.9549	0.2259
423.1593	0.1999
423.3637	0.2131
423.5681	0.2085
423.7725	0.2079
423.9769	0.2194
424.1812	0.2053
424.3856	0.2108
424.5899	0.209
424.7942	0.2037
424.9985	0.2074
425.2028	0.2161
425.4071	0.2113
425.6113	0.2036
425.8156	0.2051
426.0198	0.2118
426.224	0.2128
426.4282	0.1924
426.6324	0.2003
426.8366	0.1998
427.0407	0.1963
427.2449	0.1992
427.449	0.1943
427.6531	0.2079
427.8572	0.1928
428.0613	0.2053
428.2654	0.1911
428.4694	0.1835
428.6735	0.1953
428.8775	0.1902
429.0815	0.1883
429.2855	0.1812
429.4895	0.183
429.6935	0.1781
429.8975	0.1702
430.1014	0.1758
430.3053	0.1902
430.5093	0.1708
430.7132	0.1721
430.9171	0.1743
431.1209	0.1813
431.3248	0.1653
431.5286	0.1739
431.7325	0.1798
431.9363	0.1707
432.1401	0.1589
432.3439	0.1605
432.5477	0.1632
432.7514	0.1601
432.9552	0.1596
433.1589	0.1523
433.3627	0.159
433.5664	0.1526
433.7701	0.1596
433.9737	0.1619
434.1774	0.1529
434.3811	0.142
434.5847	0.144
434.7883	0.1546
434.9919	0.134
435.1955	0.1473
435.3991	0.1362
435.6027	0.1395
435.8062	0.1571
436.0098	0.1331
436.2133	0.137
436.4168	0.1301
436.6203	0.1283
436.8238	0.1244
437.0272	0.1288
437.2307	0.122
437.4341	0.1315
437.6375	0.1274
437.841	0.1172
438.0443	0.1219
438.2477	0.1081
438.4511	0.1101
438.6545	0.1126
438.8578	0.1174
439.0611	0.1171
439.2644	0.1114
439.4677	0.1144
439.671	0.1082
439.8743	0.1115
440.0775	0.107
440.2808	0.1023
440.484	0.1026
440.6872	0.1002
440.8904	0.0939
441.0936	0.1009
441.2967	0.0867
441.4999	0.087
441.703	0.0873
441.9062	0.095
442.1093	0.1022
442.3124	0.0889
442.5155	0.0891
442.7185	0.0887
442.9216	0.0835
443.1246	0.0818
443.3276	0.0891
443.5307	0.071
443.7337	0.0851
443.9366	0.0775
444.1396	0.0763
444.3426	0.0636
444.5455	0.0758
444.7484	0.068
444.9513	0.0769
445.1542	0.0755
445.3571	0.0718
445.56	0.0685
445.7628	0.061
445.9657	0.0727
446.1685	0.0712
446.3713	0.0673
446.5741	0.0672
446.7769	0.0742
446.9797	0.0576
447.1824	0.0607
447.3852	0.0421
447.5879	0.066
447.7906	0.0484
447.9933	0.0531
448.196	0.0585
448.3986	0.0512
448.6013	0.0495
448.8039	0.0538
449.0066	0.0621
449.2092	0.0579
449.4118	0.0418
449.6143	0.0573
449.8169	0.048
450.0195	0.0439
450.222	0.05
450.4245	0.0491
450.627	0.0388
450.8295	0.0498
451.032	0.0423
451.2345	0.0398
451.4369	0.0336
451.6394	0.0488
451.8418	0.0419
452.0442	0.0457
452.2466	0.0403
452.449	0.039
452.6513	0.0319
452.8537	0.0308
453.056	0.03
453.2583	0.0361
453.4607	0.0258
453.663	0.0334
453.8652	0.0364
454.0675	0.039
454.2697	0.0309
454.472	0.0306
454.6742	0.032
454.8764	0.034
455.0786	0.0292
455.2808	0.023
455.4829	0.0333
455.6851	0.0289
455.8872	0.0129
456.0893	0.0288
456.2915	0.0263
456.4935	0.0319
456.6956	0.0254
456.8977	0.0234
457.0997	0.0265
457.3018	0.0257
457.5038	0.0278
457.7058	0.0291
457.9078	0.0313
458.1098	0.0224
458.3117	0.0257
458.5137	0.005
458.7156	0.0153
458.9175	0.022
459.1194	0.0106
459.3213	0.0147
459.5232	0.0267
459.725	0.0196
459.9269	0.0213
460.1287	0.0112
460.3305	0.0231
460.5323	0.016
460.7341	0.0202
460.9359	0.0145
461.1376	0.0184
461.3394	0.0146
461.5411	0.0232
461.7428	0.0196
461.9445	0.0148
462.1462	0.0157
462.3479	0.0201
462.5495	0.0045
462.7512	0.0247
462.9528	0.0131
463.1544	0.0107
463.356	0.0124
463.5576	0.0228
463.7592	0.0151
463.9607	0.0163
464.1623	0.0178
464.3638	0.0044
464.5653	0.0109
464.7668	0.0164
464.9683	0.0162
465.1697	0.009
465.3712	0.0056
465.5726	0.0199
465.7741	0.0085
465.9755	0.003
466.1769	0.0043
466.3782	0.0096
466.5796	0.0127
466.7809	0.0226
466.9823	0.0128
467.1836	0.006
467.3849	0.0094
467.5862	-0.0048
467.7875	0.0068
467.9887	0.0089
468.19	0.0079
468.3912	0.0208
468.5924	0.0137
468.7936	0.0072
468.9948	-0.0015
469.196	0.0084
469.3972	0.002
469.5983	0.0031
469.7994	0.0244
470.0006	0.0188
470.2017	0.0098
470.4027	0.0208
470.6038	0.0114
470.8049	0.011
471.0059	0.017
471.2069	0.0081
471.408	0.0097
471.6089	0.0177
471.8099	-0.0004
472.0109	0.0135
472.2119	0.0223
472.4128	0.0073
472.6137	0.0105
472.8146	0.0155
473.0155	0.0118
473.2164	0.0019
473.4173	0.0085
473.6181	0.0045
473.819	0.0098
474.0198	0.0009
474.2206	-0.0013
474.4214	0.0053
474.6222	-0.0033
474.8229	-0.0023
475.0237	0.0177
475.2244	0.0063
475.4251	0.0041
475.6258	0.0051
475.8265	0.0124
476.0272	0.0077
476.2278	0.0052
476.4285	0.0037
476.6291	0.0018
476.8297	0.012
477.0303	0.0082
477.2309	0.0105
477.4315	0.0058
477.632	0.0073
477.8326	0.008
478.0331	0.0134
478.2336	0.0048
478.4341	0.0157
478.6346	0.0047
478.8351	0.0042
479.0355	0.0107
479.236	0.005
479.4364	0.0059
479.6368	0.0032
479.8372	0.0107
480.0376	0.0113
480.2379	0.0066
480.4383	0.0063
480.6386	-0.0026
480.8389	0.0012
481.0392	0.0127
481.2395	0.0143
481.4398	0.0022
481.6401	0.006
481.8403	0.009
482.0405	0.0079
482.2408	0.0099
482.441	0.0063
482.6411	0.0057
482.8413	0.0036
483.0415	0.0088
483.2416	-0.0004
483.4417	0.0088
483.6419	-0.0022
483.8419	0.0005
484.042	0.0014
484.2421	-0.0022
484.4422	0.0062
484.6422	0.0007
484.8422	0.0082
485.0422	0.0084
485.2422	0.0002
485.4422	0.0005
485.6422	0.0063
485.8421	0.003
486.042	0.0138
486.242	0.0073
486.4419	0.0014
486.6417	0.0009
486.8416	0.0071
487.0415	0.0019
487.2413	-0.0041
487.4411	0.0049
487.641	-0.0022
487.8408	0.0079
488.0405	0.0125
488.2403	0.0058
488.4401	0.005
488.6398	0.0088
488.8395	0.0026
489.0392	0.0081
489.2389	0.0045
489.4386	0.0001
489.6383	0.0063
489.8379	-0.0041
490.0376	0.0046
490.2372	0.0053
490.4368	-0.0033
490.6364	-0.0016
490.836	0.0024
491.0355	-0.0044
491.2351	0.0116
491.4346	0.0056
491.6341	-0.0076
491.8336	0.0114
492.0331	0.005
492.2326	0.0106
492.432	0.0021
492.6315	0.0059
492.8309	0.011
493.0303	0.0063
493.2297	0.0085
493.4291	-0.0033
493.6284	0.0126
493.8278	0.0022
494.0271	0.0054
494.2264	0.0007
494.4257	0.0171
494.625	-0.0038
494.8243	-0.0013
495.0236	0.0071
495.2228	0.0085
495.422	0.0023
495.6213	0.0031
495.8205	0.013
496.0196	0.0063
496.2188	0.0031
496.418	0.0026
496.6171	0.0017
496.8162	0.0074
497.0153	0.0028
497.2144	0.0049
497.4135	0.0015
497.6126	0.0038
497.8116	-0.0024
498.0107	0.0147
498.2097	0.0056
498.4087	0.0025
498.6077	-0.0016
498.8067	0.0081
499.0056	-0.0046
499.2046	0.0109
499.4035	0.0076
499.6024	-0.0038
499.8013	0.0097
500.0002	0.0086
500.199	0.0177
500.3979	0.0004
500.5967	0.0037
500.7956	0.0038
500.9944	0.003
501.1932	0.0076
501.3919	0.0136
501.5907	0.0155
501.7895	0.0063
501.9882	0.0097
502.1869	0.0117
502.3856	0.0062
502.5843	0.0053
502.783	0.0077
502.9816	0.0095
503.1803	-0.0001
503.3789	0.0056
503.5775	0.0015
503.7761	0.0061
503.9747	0.0049
504.1732	0.004
504.3718	0.0122
504.5703	0.0089
504.7689	-0.0012
504.9674	0.0003
505.1658	0.0012
505.3643	0.0088
505.5628	0.0143
505.7612	0.0097
505.9597	-0.0022
506.1581	0.0027
506.3565	0.0054
506.5549	-0.0013
506.7532	-0.0017
506.9516	0.0087
507.1499	0.0056
507.3482	-0.0035
507.5465	0.0041
507.7448	0.002
507.9431	0.0065
508.1414	0.0053
508.3396	-0
508.5379	0.0053
508.7361	0.0066
508.9343	0.0064
509.1325	0.0106
509.3306	0.0061
509.5288	-0.0073
509.7269	0.0081
509.9251	0.0143
510.1232	0.0088
510.3213	0.013
510.5193	0.0028
510.7174	0.0036
510.9154	0.0128
511.1135	0.0013
511.3115	0.006
511.5095	0.009
511.7075	0.0082
511.9055	0.0014
512.1034	0.0046
512.3014	0.0011
512.4993	-0
512.6972	0.0045
512.8951	0.0071
513.093	0.0029
513.2908	0.0111
513.4887	0.0038
513.6865	0.0093
513.8844	0.0075
514.0822	0.01
514.2799	0.0032
514.4777	-0.0027
514.6755	0.0052
514.8732	0.001
515.0709	0.0035
515.2687	0.0024
515.4664	0.0148
515.664	0.0057
515.8617	0.0162
516.0594	-0.0011
516.257	0.0081
516.4546	0.0189
516.6522	0.0082
516.8498	0.0125
517.0474	-0.0011
517.2449	0.0012
517.4425	0.0049
517.64	0.001
517.8375	0.0049
518.035	0.0031
518.2325	-0.0031
518.43	0.0032
518.6274	0.0035
518.8249	0.0006
519.0223	0.0104
519.2197	0.0109
519.4171	0.0052
519.6145	0.02
519.8118	-0.0075
520.0092	0.0051
520.2065	0.0147
520.4038	0.0056
520.6011	0.0144
520.7984	0.0043
520.9956	0.0209
521.1929	0.0074
521.3901	0.004
521.5874	0.0163
521.7846	0.0011
521.9818	0.0037
522.1789	0.0001
522.3761	0.0139
522.5732	0.0054
522.7704	-0.0057
522.9675	-0.002
523.1646	-0.0033
523.3617	0.0144
523.5587	0.0028
523.7558	0.0022
523.9528	0.0125
524.1498	0.0032
524.3468	0.0031
524.5438	0.0109
524.7408	0.003
524.9378	0.0168
525.1347	0.0055
525.3316	-0.0008
525.5285	-0.0128
525.7254	0.0058
525.9223	0.0191
526.1192	0.0139
526.316	0.0043
526.5129	0.0044
526.7097	-0.0056
526.9065	0.0042
527.1033	0.0063
527.3	-0.0034
527.4968	0.0067
527.6935	0.0058
527.8903	-0.0036
528.087	0.0009
528.2837	0.0207
528.4804	0.0038
528.677	0.0005
528.8737	0.0079
529.0703	0.0025
529.2669	0.0142
529.4635	0.0001
529.6601	-0.009
529.8567	0.0008
530.0532	0.0078
530.2498	0.0078
530.4463	0.0002
530.6428	0.0068
530.8393	0.0144
531.0358	0.006
531.2322	-0.0052
531.4287	-0.0038
531.6251	0.0069
531.8215	-0.001
532.0179	0.0104
532.2143	0.0067
532.4107	0.0107
532.607	0.0012
532.8034	-0.0058
532.9997	0.0021
533.196	0.002
533.3923	0.0057
533.5886	0.0032
533.7848	0.0056
533.9811	0.001
534.1773	0.0101
534.3735	0.018
534.5697	0.0034
534.7659	0.0021
534.9621	0.0025
535.1582	0.0076
535.3544	0.007
535.5505	-0.0053
535.7466	0.0109
535.9427	0.0004
536.1387	-0.0028
536.3348	0.0058
536.5308	-0.0028
536.7269	-0.0019
536.9229	0.0053
537.1189	0.0132
537.3148	0.0032
537.5108	0.0085
537.7068	0.014
537.9027	-0.0062
538.0986	0.0067
538.2945	0.0033
538.4904	-0.0022
538.6863	0.0075
538.8821	0.0085
539.078	0.0079
539.2738	0.0101
539.4696	0.0049
539.6654	0.0066
539.8611	0.0098
540.0569	-0.0028
540.2526	0.0027
540.4484	-0.0025
540.6441	0.0085
540.8398	0.0206
541.0355	0.0059
541.2311	0.0028
541.4268	0.0053
541.6224	0.0138
541.818	0.0086
542.0136	0.0098
542.2092	0.0078
542.4048	0.0056
542.6003	0.0054
542.7959	0.0031
542.9914	0.0085
543.1869	0.0016
543.3824	0.0053
543.5779	0.0093
543.7734	0.0171
543.9688	0.0082
544.1642	-0.0014
544.3596	0.0017
544.555	0.0099
544.7504	0.0202
544.9458	0.0069
545.1411	0.003
545.3365	0.0028
545.5318	0.0059
545.7271	0.0212
545.9224	-0.0081
546.1177	0.0083
546.3129	0.0097
546.5081	0.0045
546.7034	0.005
546.8986	0.0035
547.0938	0.0173
547.289	0.0101
547.4841	0.0092
547.6793	0.0116
547.8744	0.0084
548.0695	-0.0025
548.2646	0.0063
548.4597	0.0018
548.6548	0.0147
548.8498	0.0006
549.0448	-0.0001
549.2399	0.0127
549.4349	0.0091
549.6298	0.0062
549.8248	0.003
550.0198	0.0029
550.2147	0.0125
550.4096	0.0041
550.6045	0.0042
550.7994	0.0151
550.9943	0.0157
551.1892	-0.0136
551.384	0.0093
551.5788	0.007
551.7737	0.0029
551.9685	0.0095
552.1632	0.0035
552.358	0.0102
552.5528	0.0045
552.7475	0.0111
552.9422	0.011
553.1369	0.0144
553.3316	0.0127
553.5263	0.0121
553.7209	0.0042
553.9156	0.0049
554.1102	0.0063
554.3048	-0.0068
554.4994	0.0072
554.694	0.0067
554.8885	0.0007
555.0831	0.0072
555.2776	0.0099
555.4721	0.0048
555.6666	-0.002
555.8611	0.0053
556.0555	0.0005
556.25	0.0102
556.4444	0.0042
556.6388	0.0034
556.8332	0.0009
557.0276	0.0158
557.222	0.0009
557.4163	0.0046
557.6107	0.0034
557.805	-0.002
557.9993	0.0064
558.1936	-0.0101
558.3879	0.0092
558.5821	-0.002
558.7764	-0.0023
558.9706	0.0078
559.1648	0.0033
559.359	-0.0015
559.5532	-0.0065
559.7473	0.0001
559.9415	0.0038
560.1356	0.0134
560.3297	-0.0043
560.5238	0.0098
560.7179	-0.0011
560.9119	0.0027
561.106	0.0042
561.3	0.0067
561.494	-0.0097
561.688	0.0046
561.882	0.0044
562.076	0.0028
562.2699	0.0129
562.4639	0.0215
562.6578	0.0153
562.8517	0.0122
563.0456	0.008
563.2395	0.0041
563.4333	0.0073
563.6272	0.0057
563.821	0.002
564.0148	0.0029
564.2086	0.01
564.4024	0.0072
564.5961	0.0138
564.7899	0.0086
564.9836	0.0039
565.1773	0.0153
565.371	0.0011
565.5647	0.0109
565.7584	0.0149
565.952	-0.0015
566.1456	0.0023
566.3393	0.001
566.5329	0.0081
566.7264	0.0055
566.92	-0
567.1136	0.0017
567.3071	-0.0031
567.5006	0.0052
567.6941	0.0019
567.8876	-0.0004
568.0811	0.0201
568.2745	0.0024
568.468	0.0025
568.6614	0.0066
568.8548	0.0056
569.0482	-0.001
569.2416	0.0023
569.4349	0.005
569.6283	0.0048
569.8216	0.0103
570.0149	0.0039
570.2082	0.0106
570.4015	0.005
570.5947	0.0064
570.788	0.0054
570.9812	0.0047
571.1744	0.006
571.3676	0.0054
571.5608	0.0012
571.754	0.0115
571.9471	0.0059
572.1402	0.0048
572.3333	-0.0005
572.5264	0.0088
572.7195	0.0062
572.9126	0.007
573.1057	0.0099
573.2987	0.0018
573.4917	0.0029
573.6847	0.0029
573.8777	0.0059
574.0707	0.0052
574.2636	0.0043
574.4566	0.0021
574.6495	0.0013
574.8424	0.0107
575.0353	0.0066
575.2281	0.0052
575.421	-0.0011
575.6138	0.0025
575.8067	0.0054
575.9995	0.0054
576.1923	0.0063
576.385	0.0065
576.5778	0.0123
576.7706	0.0051
576.9633	0.0013
577.156	-0.0011
577.3487	0.0017
577.5414	0.0022
577.734	0.004
577.9267	0.0008
578.1193	0.0105
578.3119	0.0008
578.5045	0.0001
578.6971	-0.0001
578.8897	0.0043
579.0822	0.0088
579.2747	0.0037
579.4673	0.0043
579.6598	0.0042
579.8522	0.0028
580.0447	0.0092
580.2372	0.0104
580.4296	0.0113
580.622	0.0044
580.8144	0.0049
581.0068	0.0034
581.1992	0.0066
581.3915	0.0002
581.5839	0.0053
581.7762	0.0032
581.9685	0.0064
582.1608	0.005
582.353	0.0034
582.5453	0.0068
582.7375	0.0073
582.9298	0.0024
583.122	0.0023
583.3142	0.0109
583.5063	-0.0004
583.6985	0.0063
583.8906	0.0037
584.0827	0.0055
584.2749	0.0079
584.4669	0.0032
584.659	0.0067
584.8511	0.0097
585.0431	0.0099
585.2352	0.0045
585.4272	0.0038
585.6192	0.0049
585.8111	0.0043
586.0031	-0.001
586.195	0.0002
586.387	0.0038
586.5789	0.0106
586.7708	0.0105
586.9627	0.0042
587.1545	0.004
587.3464	0.0036
587.5382	0.001
587.73	0.0073
587.9218	-0.0054
588.1136	0.0015
588.3053	0.001
588.4971	0.0057
588.6888	0.0014
588.8805	0.0031
589.0722	0.0077
589.2639	0.0003
589.4556	0.0057
589.6472	0.0066
589.8389	0.0015
590.0305	0.0011
590.2221	0.0076
590.4137	0.0016
590.6052	0.0093
590.7968	0.0078
590.9883	0.0029
591.1798	0.0028
591.3713	0.0014
591.5628	0.0075
591.7543	0.0052
591.9458	0.0026
592.1372	0.0091
592.3286	0.0029
592.52	0.0075
592.7114	0.0012
592.9028	0.0084
593.0941	0.0012
593.2855	0.0036
593.4768	0.0091
593.6681	0.006
593.8594	0.0057
594.0506	0.0036
594.2419	0.0042
594.4331	0.0051
594.6244	0.0013
594.8156	0.0018
595.0067	0.0024
595.1979	0.0032
595.3891	0.001
595.5802	0.0102
595.7713	0.0058
595.9624	0.0018
596.1535	0.0001
596.3446	0
596.5357	0.0048
596.7267	0.0008
596.9177	0.0036
597.1087	0.0043
597.2997	0.0035
597.4907	-0.0064
597.6817	0.0061
597.8726	0.0066
598.0635	-0.0047
598.2544	0.0083
598.4453	0.0023
598.6362	0.0003
598.827	0.0076
599.0179	0.0057
599.2087	0.0064
599.3995	0.0068
599.5903	0.0096
599.7811	0.0085
599.9718	0.0006
600.1626	0.0036
600.3533	0.0079
600.544	0.0055
600.7347	0.0056
600.9254	0.0111
601.116	0.0053
601.3067	0.0046
601.4973	0.0106
601.6879	-0.0001
601.8785	0.0083
602.0691	-0.0004
602.2596	0.0054
602.4502	0.0083
602.6407	0.0078
602.8312	0.0039
603.0217	0.0052
603.2122	0.0052
603.4027	0.004
603.5931	0.0074
603.7835	-0.0013
603.9739	0.0005
604.1643	0.0081
604.3547	0.0045
604.5451	0.0134
604.7354	-0.0025
604.9257	0.0018
605.116	0.001
605.3063	0.0088
605.4966	0.0052
605.6869	0.0106
605.8771	0.0064
606.0673	0.0034
606.2575	0.0012
606.4477	0.0116
606.6379	0.0025
606.8281	0.0006
607.0182	0.0036
607.2083	0.0056
607.3985	0.0018
607.5885	-0.0039
607.7786	0.0052
607.9687	0.0044
608.1587	0.004
608.3488	0.0083
608.5388	0.0021
608.7288	0.003
608.9187	0.0028
609.1087	0.0084
609.2986	0.0052
609.4886	0.006
609.6785	0.0068
609.8684	-0.0025
610.0582	-0.001
610.2481	-0.0063
610.4379	0.0041
610.6278	0.0024
610.8176	0.0124
611.0074	0.005
611.1971	-0.0009
611.3869	0.003
611.5766	-0.0069
611.7664	0.0057
611.9561	0.0039
612.1458	0.0048
612.3354	0.0045
612.5251	0.0059
612.7147	0.007
612.9044	0.0001
613.094	0.0098
613.2836	0.0014
613.4731	-0.0011
613.6627	0.0101
613.8522	0.0126
614.0417	0.014
614.2313	0.0038
614.4207	-0.0009
614.6102	0.0065
614.7997	0.0068
614.9891	0.0071
615.1785	0.0014
615.3679	0.0089
615.5573	0.0044
615.7467	0.004
615.9361	0.0063
616.1254	0.0078
616.3147	0.0021
616.504	0.0073
616.6933	0.0063
616.8826	0.0003
617.0718	0.0041
617.2611	0.0054
617.4503	0.0018
617.6395	0.0015
617.8287	0.0114
618.0179	0.0042
618.207	0.013
618.3961	-0.002
618.5853	0.0011
618.7744	0.0108
618.9634	0.014
619.1525	0.0059
619.3416	-0.0048
619.5306	0.0042
619.7196	0.0138
619.9086	0.0076
620.0976	-0.0012
620.2866	0.0122
620.4755	0.0098
620.6645	0.0056
620.8534	0.0074
621.0423	0.0001
621.2312	0.006
621.42	0.0056
621.6089	0.0036
621.7977	0.0102
621.9865	0.0039
622.1753	-0.0043
622.3641	-0.0025
622.5529	0.0004
622.7416	0.0022
622.9303	-0.0037
623.1191	0.0142
623.3078	0.0021
623.4964	0.0076
623.6851	0.0043
623.8737	0.0013
624.0624	-0.0059
624.251	0.0054
624.4396	-0.0013
624.6282	0.0051
624.8167	0.0024
625.0053	0.0093
625.1938	0.002
625.3823	0.0067
625.5708	0.0035
625.7593	0.0053
625.9477	0.0097
626.1362	-0.0017
626.3246	0.0053
626.513	0.0112
626.7014	0.0105
626.8898	0.0036
627.0781	0.0112
627.2665	0.0022
627.4548	-0.0066
627.6431	0.0169
627.8314	0.016
628.0197	0.0113
628.2079	0.015
628.3962	0.0049
628.5844	0.0067
628.7726	-0.004
628.9608	-0.0002
629.1489	-0.0004
629.3371	-0.0062
629.5252	-0.0003
629.7134	-0.0017
629.9015	0.0045
630.0895	-0.0066
630.2776	0.0068
630.4657	0.002
630.6537	0.0068
630.8417	-0.0042
631.0297	0.0046
631.2177	0.0041
631.4057	0.0193
631.5936	-0.0035
631.7815	0.0011
631.9695	0.0166
632.1574	0.0064
632.3452	0.0093
632.5331	0.0232
632.7209	0.0074
632.9088	0.0075
633.0966	0.0217
633.2844	0.0123
633.4722	0.0137
633.6599	0.0192
633.8477	-0.0027
634.0354	0.0129
634.2231	-0.0127
634.4108	0.0006
634.5985	0.01
634.7861	-0.0021
634.9738	0.0012
635.1614	0.0059
635.349	0.0035
635.5366	0.0155
635.7242	0.0023
635.9117	0.0103
636.0993	0.0047
636.2868	0.0004
636.4743	-0.0005
636.6618	-0.0132
636.8492	0.0168
637.0367	0.0021
637.2241	-0.0015
637.4115	0.0112
637.5989	0.0005
637.7863	0.0367
637.9737	0.014
638.161	0.0167
638.3484	-0.0021
638.5357	-0.0042
638.723	0.0193
638.9103	-0.0138
639.0975	-0.0038
639.2848	0.0028
639.472	0.0061
639.6592	-0.0161
639.8464	0.0053
640.0336	0.0136
640.2208	0.0031
640.4079	-0.001
640.595	-0.015
640.7821	0.0062
640.9692	0.0014
641.1563	-0.0021
641.3434	0.0212
641.5304	0.0334
641.7174	0.0103
641.9044	0.0038
642.0914	0.0304
642.2784	-0.0055
642.4653	-0.0131
642.6523	0.0148
642.8392	-0.0108
643.0261	0.0094
643.213	0.0111
643.3999	0.009
643.5867	-0.0022
643.7735	0.0102
643.9604	0.011
644.1472	-0.0017
644.3339	0.0048
644.5207	-0.01
644.7075	0.0064
644.8942	0.0018
645.0809	-0.001
645.2676	-0.0069
645.4543	0.0053
645.6409	0.0237
645.8276	-0.0039
646.0142	0.013
646.2008	-0.0082
646.3874	-0.0004
646.574	-0.018
646.7605	0.0067
646.9471	-0.0227
647.1336	-0.0099
647.3201	0.0086
647.5066	0.0111
647.6931	0.0044
647.8795	0.0113
648.0659	0.0063
648.2524	0.0065
648.4388	0.0189
648.6252	0.0044
648.8115	0.0081
648.9979	0.0162
649.1842	0.0001
649.3705	0.0071
649.5568	-0.0061
649.7431	0.0077
649.9294	0.0063
650.1156	0.0004
650.3018	0.0043
650.488	-0.0087
650.6742	-0.002
650.8604	0.0196
651.0466	-0.0037
651.2327	0.0193
651.4188	-0.0012
651.6049	0.0119
651.791	-0.0048
651.9771	-0.0052
652.1632	0.0017
652.3492	0.0039
652.5352	0.0109
652.7212	0.0138
652.9072	0.0044
653.0932	-0.0005
653.2791	0.0073
653.465	-0.004
653.651	0.0051
653.8369	0.0051
654.0227	-0.0108
654.2086	-0.008
654.3944	-0.0018
654.5803	-0.0071
654.7661	0.0027
654.9519	-0.0008
655.1377	0.0002
655.3234	0.0002
655.5092	0.0002
655.6949	0.0002
655.8806	0.0002
656.0663	0.0002
656.2519	0.0002
656.4376	0.0002
656.6232	0.0002
656.8088	0.0002
656.9945	0.0002
657.18	0.0002
657.3656	0.0002
657.5511	0.0002
657.7367	0.0002
657.9222	0.0002
658.1077	0.0002
658.2932	0.0002
658.4786	0.0002
658.6641	0.0002
658.8495	0.0002
659.0349	0.0002
659.2203	0.0002
659.4057	0.0002
659.591	0.1515
659.7764	0.0349
659.9617	0.0149
660.147	-0.0118
660.3323	0.0027
660.5176	-0.0106
660.7028	-0.005
660.888	0.0166
661.0733	0.0207
661.2585	-0.0076
661.4436	-0.008
661.6288	0.0222
661.8139	0.0019
661.9991	-0.01
662.1842	0.0012
662.3693	0.0075
662.5544	0.0057
662.7394	0.0111
662.9245	0.032
663.1095	-0.0077
663.2945	-0.0043
663.4795	-0.0154
663.6644	0.0093
663.8494	0.012
664.0343	0.002
664.2193	0.002
664.4042	0.0148
664.589	0.0034
664.7739	-0.0037
664.9587	-0.0016
665.1436	-0.0011
665.3284	0.0149
665.5132	-0.0142
665.698	0.024
665.8827	0.0316
666.0675	-0.0095
666.2522	0.0247
666.4369	-0.0098
666.6216	0.0064
666.8063	-0.0177
666.9909	0.0009
667.1756	-0.0044
667.3602	-0.0184
667.5448	0.0071
667.7294	-0.0064
667.9139	-0.0046
668.0985	0.0175
668.283	-0.0138
668.4675	0.0102
668.652	0.0044
668.8365	0.0042
669.0209	-0.0011
669.2054	0.0281
669.3898	0.0012
669.5742	0.0092
669.7586	0.0127
669.943	0.0054
670.1273	0.0117
670.3117	0.0098
670.496	0.0009
670.6803	-0.0068
670.8646	-0.0337
671.0488	0.0164
671.2331	-0.0117
671.4173	0.0041
671.6015	-0.0019
671.7857	0.0268
671.9699	0.0193
672.1541	-0.0053
672.3382	-0.0027
672.5223	-0.011
672.7064	0.0006
672.8905	-0.0021
673.0746	0.0122
673.2587	0.0009
673.4427	0.0083
673.6267	0.008
673.8107	0.0123
673.9947	0.0216
674.1787	-0.0037
674.3626	0.0068
674.5465	0.0237
674.7304	0.0104
674.9143	-0.0036
675.0982	-0.0013
675.2821	-0.0021
675.4659	0.0064
675.6497	0.0094
675.8335	0.0014
676.0173	-0.0068
676.2011	0.0011
676.3849	0.0082
676.5686	0.0232
676.7523	0.0106
676.936	-0.0097
677.1197	-0.0125
677.3034	0.0241
677.487	0.0115
677.6706	0.0139
677.8542	0.009
678.0378	0.0102
678.2214	0.0013
678.405	0.005
678.5885	0.0073
678.772	0.0051
678.9555	0.0069
679.139	0.0076
679.3225	0.0178
679.5059	0.0057
679.6894	0.0046
679.8728	-0.0033
680.0562	0.0001
680.2395	0.0066
680.4229	-0.0193
680.6062	0.0065
680.7896	0.0058
680.9729	0.0325
681.1562	0.0036
681.3394	-0.0136
681.5227	-0.0075
681.7059	0.0089
681.8891	0.022
682.0723	0.0088
682.2555	0.0036
682.4387	-0.0008
682.6218	0.0121
682.805	-0.0131
682.9881	0.0227
683.1712	-0.0016
683.3542	0.0125
683.5373	-0.0035
683.7203	0.0046
683.9034	-0.0086
684.0864	-0.008
684.2694	0.0055
684.4523	0.0017
684.6353	0.0001
684.8182	-0.0029
685.0011	0.0072
685.184	0.0006
685.3669	0.0172
685.5498	-0.007
685.7326	-0.0105
685.9154	-0.004
686.0982	0.0084
686.281	-0.0061
686.4638	0.0082
686.6465	-0.009
686.8293	-0.0193
687.012	0.0167
687.1947	-0.0125
687.3774	0.0036
687.56	0.0048
687.7427	-0.0066
687.9253	-0.0206
688.1079	0.0052
688.2905	-0.0181
688.4731	0.0228
688.6556	-0.0084
688.8382	-0.0213
689.0207	0.0098
689.2032	0.0066
689.3857	0.0007
689.5681	-0.0113
689.7506	0.0329
689.933	0.0058
690.1154	0.0259
690.2978	0.0033
690.4802	0.0147
690.6626	-0.0005
690.8449	-0.0022
691.0272	-0.0038
691.2095	-0.0205
691.3918	0.0058
691.5741	-0.003
691.7563	-0.0058
691.9386	0.0079
692.1208	0.0063
692.303	-0.0154
692.4852	0.0033
692.6673	-0.0056
692.8495	-0.0042
693.0316	-0.0022
693.2137	0.0035
693.3958	0.0127
693.5778	-0.0117
693.7599	-0.0089
693.9419	-0.0178
694.1239	0.0047
694.3059	0.0012
694.4879	0.0005
694.6699	-0.0132
694.8518	0.0091
695.0337	-0.0057
695.2157	0.019
695.3975	-0.0017
695.5794	-0.0115
695.7613	0.0239
695.9431	-0.0327
696.1249	0.0422
696.3067	-0.0096
696.4885	0.0274
696.6703	-0.0037
696.852	-0.0071
697.0337	0.015
697.2154	0.003
697.3971	-0.0065
697.5788	0.0124
697.7605	-0.0082
697.9421	0.0116
698.1237	0.0165
698.3053	-0.004
698.4869	-0.007
698.6685	-0.0179
698.85	0.0005
699.0315	-0.0217
699.213	0.0177
699.3945	0.0225
699.576	0.0006
699.7575	0.0128
699.9389	-0.0143
700.1203	0.0079
700.3017	0.015
700.4831	0.0109
700.6645	0.0101
700.8458	0.0152
701.0271	0.0178
701.2084	0.0113
701.3897	0.0319
701.571	0.0052
701.7523	-0.0039
701.9335	0.0225
702.1147	0.0206
702.2959	-0.0219
702.4771	0.0197
702.6583	0.0002
702.8394	-0.0176
703.0205	0.0281
703.2016	-0.0253
703.3827	-0.0036
703.5638	-0.0065
703.7449	0.0272
703.9259	-0.0001
704.1069	-0.0279
704.2879	0.0456
704.4689	0.0132
704.6499	0.0256
704.8308	0.0207
705.0117	0.0044
705.1927	0.0088
705.3735	-0.0139
705.5544	-0.0019
705.7353	-0.0084
705.9161	-0.0234
706.0969	0.0137
706.2777	0.0101
706.4585	0.0037
706.6393	0.0094
706.82	0.0118
707.0007	0.0048
707.1815	-0.0132
707.3621	0.0329
707.5428	0.0174
707.7235	-0.0074
707.9041	0.0191
708.0847	-0.0111
708.2653	0.0212
708.4459	-0.0054
708.6265	-0.0025
708.807	0.0023
708.9875	0.0039
709.168	-0.004
709.3485	0.0277
709.529	0.0024
709.7095	-0.0209
709.8899	0.0128
710.0703	-0.0072
710.2507	-0.0056
710.4311	-0.0257
710.6115	0.0071
710.7918	0.0166
710.9721	-0.0118
711.1524	-0.0263
711.3327	-0.0178
711.513	0.0104
711.6932	0.0079
711.8735	0.0282
712.0537	-0.0142
712.2339	0.0084
712.4141	0.017
712.5942	-0.0073
712.7744	-0.0021
712.9545	0.0086
713.1346	0.0237
713.3147	-0.0167
713.4947	-0.0126
713.6748	-0.0046
713.8548	0.015
714.0348	0.0286
714.2148	0.001
714.3948	0.0141
714.5748	0.0287
714.7547	0.0192
714.9346	0.0259
715.1145	0.0168
715.2944	-0.0424
715.4743	0.02
715.6541	-0.0061
715.834	0.0235
716.0138	0.0188
716.1936	-0.0023
716.3733	-0.0101
716.5531	-0.0288
716.7328	0.0077
716.9126	0.01
717.0923	-0.0233
717.2719	0.0118
717.4516	0.0255
717.6312	-0.0176
717.8109	0.0279
717.9905	0.025
718.1701	0.0039
718.3496	0.0003
718.5292	0.0075
718.7087	0.0074
718.8882	0.0023
719.0677	-0.0009
719.2472	-0.0157
719.4267	-0.0168
719.6061	0.0016
719.7856	0.0189
719.965	-0.0014
720.1443	0.007
720.3237	-0.006
720.5031	-0.0009
720.6824	-0.0103
720.8617	0.0029
721.041	-0.0067
721.2203	-0.0279
721.3995	0.019
721.5788	-0.0005
721.758	0.0108
721.9372	-0.0077
722.1164	0.0068
722.2956	-0.0032
722.4747	-0.0045
722.6538	0.0119
722.8329	0.0165
723.012	0.0128
723.1911	-0.0151
723.3702	0.0043
723.5492	0.0007
723.7282	-0.028
723.9072	0.002
724.0862	0.0227
724.2652	-0.0069
724.4441	-0.0022
724.623	0.0132
724.8019	-0.0061
724.9808	0.0134
725.1597	0.0116
725.3385	0.0077
725.5174	0.0074
725.6962	0.0092
725.875	-0.0021
726.0538	0.0237
726.2325	0.0062
726.4112	-0.0458
726.59	-0.0156
726.7687	-0.0136
726.9474	0.0015
727.126	0.0157
727.3047	-0.0044
727.4833	0.0075
727.6619	0.0053
727.8405	-0.0103
728.0191	0.0211
728.1976	0.0066
728.3762	0.0145
728.5547	-0.007
728.7332	0.0346
728.9116	0.0158
729.0901	0.0021
729.2686	-0.0051
729.447	0.0223
729.6254	-0.0017
729.8038	-0.0029
729.9821	-0.006
730.1605	0.0215
730.3388	-0.0158
730.5171	0.0059
730.6954	-0.006
730.8737	0.0152
731.0519	-0.0111
731.2302	0.0157
731.4084	-0.0089
731.5866	-0.003
731.7648	0.0081
731.9429	0.0034
732.1211	0.0071
732.2992	0.0005
732.4773	-0.0032
732.6554	-0.0167
732.8335	0.0026
733.0115	0.0182
733.1896	-0.0051
733.3676	0.0058
733.5456	-0.0023
733.7235	0.0069
733.9015	0.0113
734.0794	-0.0058
734.2574	-0.0119
734.4353	0.0174
734.6131	0.0112
734.791	-0.0029
734.9689	0.0173
735.1467	-0.0185
735.3245	0.0261
735.5023	0.0136
735.68	0.009
735.8578	0.0021
736.0355	0.0145
736.2132	0.0039
736.3909	-0.0009
736.5686	-0.0234
736.7463	-0.0165
736.9239	0.0212
737.1015	0.0164
737.2791	0.0111
737.4567	-0.0047
737.6343	0.0049
737.8118	0.0219
737.9894	-0.0129
738.1669	0.0144
738.3444	0.0225
738.5218	-0.0252
738.6993	0.0163
738.8767	-0.0043
739.0541	0.0019
739.2315	0.0114
739.4089	0.0141
739.5863	0.0008
739.7636	-0.0059
739.9409	0.0102
740.1182	0.0131
740.2955	0.0065
740.4728	0.0007
740.65	-0.0389
740.8272	0.0138
741.0044	-0.0059
741.1816	0.0239
741.3588	-0.0249
741.5359	0.0044
741.7131	-0.02
741.8902	0.0019
742.0673	0.0053
742.2444	0.0097
742.4214	0.0037
742.5985	-0.0072
742.7755	0.0193
742.9525	-0.0129
743.1295	-0.0279
743.3064	-0.015
743.4834	0.0165
743.6603	0.0327
743.8372	-0.0273
744.0141	0.0149
744.191	0.0151
744.3678	-0.0367
744.5446	-0.0113
744.7215	0.0066
744.8982	-0.0034
745.075	0.0596
745.2518	-0.0006
745.4285	0.0094
745.6052	-0.0161
745.7819	0.0017
745.9586	0.0136
746.1353	-0.0372
746.3119	0.0022
746.4885	0.0461
746.6651	0.0007
746.8417	-0.0081
747.0183	0.0187
747.1948	-0.0108
747.3714	0.0289
747.5479	0.0034
747.7244	0.0212
747.9008	-0.0035
748.0773	0.0527
748.2537	-0.0067
748.4301	0.0501
748.6065	0.0003
748.7829	-0.0153
748.9593	-0.0081
749.1356	0.0075
749.3119	-0.0061
749.4882	0.0275
749.6645	0.0118
749.8408	0.022
750.017	0.0151
750.1933	-0.0025
750.3695	0.0192
750.5457	-0.0008
750.7218	-0.0001
750.898	-0.0211
751.0741	0.0092
751.2502	0.0102
751.4263	0.0008
751.6024	0.0273
751.7784	-0.0064
751.9545	0.0002
752.1305	-0.0124
752.3065	0.0189
752.4825	-0.0283
752.6584	0.0018
752.8344	-0.0142
753.0103	-0.0083
753.1862	-0.0014
753.3621	-0.0066
753.5379	-0.0084
753.7138	0.0267
753.8896	-0.0015
754.0654	-0.0081
754.2412	0.0233
754.417	0.0043
754.5927	0.0155
754.7685	0.0031
754.9442	0.0088
755.1199	0.0014
755.2956	0.011
755.4712	0.0141
755.6469	0.0037
755.8225	0.0152
755.9981	-0.0059
756.1736	0.0114
756.3492	-0.0054
756.5248	0.0175
756.7003	-0.015
756.8758	-0.0018
757.0513	0.0021
757.2267	0.0009
757.4022	-0.0091
757.5776	0.0029
757.753	0.0337
757.9284	0.0011
758.1038	0.0131
758.2791	0.0063
758.4545	-0.0129
758.6298	0.0207
758.8051	0.0054
758.9803	-0.0001
759.1556	0.0122
759.3308	0.0008
759.506	0.0039
759.6812	0.0083
759.8564	-0.0117
760.0316	0.0047
760.2067	0.0244
760.3819	-0.0098
760.557	0.0121
760.732	0.0013
760.9071	0.0213
761.0821	-0.0207
761.2572	0.0038
761.4322	0.0107
761.6072	0.0119
761.7821	-0.0298
761.9571	0.0196
762.132	0.0142
762.3069	0.0085
762.4818	0.0158
762.6567	0.0054
762.8316	0.0237
763.0064	0.0036
763.1812	0.0077
763.356	-0.0078
763.5308	0.0072
763.7055	-0.0038
763.8803	-0.0081
764.055	-0.0114
764.2297	-0.0101
764.4044	0.0013
764.579	-0.0123
764.7537	0.0023
764.9283	0.0179
765.1029	0.0061
765.2775	0.0107
765.4521	0.0104
765.6266	-0.0004
765.8011	0.0144
765.9756	0.0071
766.1501	0.021
766.3246	0.0095
766.4991	-0.0011
766.6735	0.0433
766.8479	0.0117
767.0223	0.0274
767.1967	0.02
767.371	0.0193
767.5454	-0.0085
767.7197	0.0559
767.894	-0.0217
768.0683	0.0134
768.2425	0.0203
768.4168	0.0063
768.591	-0.006
768.7652	-0.0146
768.9394	0.004
769.1135	0.0064
769.2877	-0.0043
769.4618	0.0297
769.6359	0.0243
769.81	0.0111
769.984	-0.0112
770.1581	0.0139
770.3321	0.0394
770.5061	-0.0258
770.6801	0.009
770.8541	-0.0059
771.028	0.0259
771.202	-0.0102
771.3759	0.0026
771.5498	-0.0035
771.7236	0.0181
771.8975	0.0394
772.0713	0.0054
772.2451	-0.0164
772.4189	0.0207
772.5927	-0.0376
772.7665	-0.0315
772.9402	0.0202
773.1139	0.0015
773.2876	0.0104
773.4613	0.0375
773.635	0.0264
773.8086	0.0004
773.9822	0.0245
774.1558	0.0529
774.3294	-0.0056
774.503	-0.0002
774.6765	-0.0063
774.8501	-0.0267
775.0236	0.0631
775.1971	-0.0153
775.3705	0.0108
775.544	-0.0412
775.7174	0.0047
775.8908	-0.0106
776.0642	0.0114
776.2376	0.0425
776.4109	-0.0003
776.5843	-0.02
776.7576	-0.0169
776.9309	0.0124
777.1041	-0.0278
777.2774	0.0115
777.4506	-0.0104
777.6238	0.0103
777.797	0.0288
777.9702	0.005
778.1434	0.0352
778.3165	-0.0124
778.4896	-0.0249
778.6627	-0.0126
778.8358	-0.0205
779.0089	-0.0079
779.1819	0.0184
779.3549	0.0086
779.5279	-0.0143
779.7009	0.03
779.8739	0.0516
780.0468	0.0062
780.2197	0.016
780.3926	-0.0137
780.5655	-0.0053
780.7384	-0.0058
780.9112	0.0334
781.0841	0.0064
781.2569	0.0076
781.4297	-0.0002
781.6024	0.029
781.7752	0.0311
781.9479	0.0264
782.1206	0.0105
782.2933	0.0125
782.466	-0.007
782.6386	0.0067
782.8113	-0.0054
782.9839	0.0202
783.1565	0.0093
783.329	-0.0031
783.5016	0.0379
783.6741	-0.0063
783.8466	0.0498
784.0191	0.0179
784.1916	-0.0278
784.3641	-0.0506
784.5365	0.0192
784.7089	-0.0019
784.8813	0.0707
785.0537	0.0081
785.2261	0.005
785.3984	-0.0111
785.5707	-0.0281
785.743	0.0408
785.9153	0.0042
786.0876	-0.0108
786.2598	-0.0562
786.432	0.0118
786.6042	0.0438
786.7764	0.0021
786.9486	-0.005
787.1207	0.0226
787.2928	0.0353
787.4649	-0.0009
787.637	0.0069
787.8091	-0.0219
787.9811	0.0354
788.1532	0.0179
788.3252	-0.0179
788.4972	0.0306
788.6691	0.0004
788.8411	-0.0091
789.013	0.0106
789.1849	-0.0257
789.3568	0.0037
789.5287	0.0825
789.7005	0.0016
789.8723	0.0025
790.0442	-0.0411
790.2159	-0.0065
790.3877	0.0132
790.5595	0.0537
790.7312	-0.0449
790.9029	-0.0034
791.0746	0.0122
791.2463	0.0019
791.4179	-0.0004
791.5896	0.0366
791.7612	0.0275
791.9328	0.0711
792.1044	0.0147
792.2759	-0.069
792.4474	-0.0073
792.619	-0.0203
792.7905	0.0489
792.9619	0.069
793.1334	0.0917
793.3048	0.0502
793.4762	0.0091
793.6476	-0.0293
793.819	0.0395
793.9904	-0.044
794.1617	0.0111
794.333	-0.0128
794.5043	0.0191
794.6756	0.008
794.8469	0.0447
795.0181	0.0017
795.1893	0.0436
795.3605	0.0243
795.5317	-0.0242
795.7029	-0.0011
795.874	-0.0248
796.0452	0.0367
796.2163	0.0253
796.3873	0.0533
796.5584	0.0276
796.7294	0.0567
796.9005	0.0205
797.0715	-0.0309
797.2425	0.0804
797.4134	0.023
797.5844	0.081
797.7553	-0.067
797.9262	0.0154
798.0971	0.022
798.2679	-0.0495
798.4388	0.0227
798.6096	-0.0566
798.7804	-0.0332
798.9512	0.045
799.122	0.0009
799.2927	0.0756
799.4635	-0.0561
799.6342	-0.0214
799.8049	0.0173
799.9755	-0.0466
800.1462	-0.0032
800.3168	-0.0004
800.4874	-0.0673
800.658	0.0553
800.8286	0.001
800.9991	-0.0352
801.1696	-0.0701
801.3402	0.0074
801.5106	-0.0369
801.6811	-0.0444
801.8516	0.0075
802.022	0.0265
802.1924	-0.0479
802.3628	0.0133
802.5332	0.0858
802.7035	0.0886
802.8739	0.0212
803.0442	-0.0695
803.2145	0.0212
803.3847	0.0366
803.555	0.0403
803.7252	-0.0111
803.8954	-0.026
804.0656	0.0025
804.2358	-0.0096
804.4059	0.068
804.5761	-0.0386
804.7462	-0.0241
804.9163	0.0303
805.0864	0.0012
805.2564	-0.0455
805.4264	-0.0414
805.5965	-0.0264
805.7665	0.0579
805.9364	-0.0334
806.1064	-0.0275
806.2763	0.0279
806.4462	-0.0157
806.6161	-0.002
806.786	0.0149
806.9559	-0.0193
807.1257	-0.0482
807.2955	0.011
807.4653	-0.0086
807.6351	0.0993
807.8048	0.0455
807.9746	0.0454
808.1443	0.0036
808.314	0.0974
808.4837	0.0653
808.6533	-0.045
808.8229	0.0462
808.9926	-0.0045
809.1622	0.02
809.3317	0.0242
809.5013	-0.0237
809.6708	0.13
809.8403	0.06
810.0098	0.0012
810.1793	0.0597
810.3488	0.0032
810.5182	0.1374
810.6876	0.0419
810.857	0.0659
811.0264	0.0171
811.1958	0.1193
811.3651	0.0623
811.5344	0.0653
811.7037	-0.0145
811.873	0.0881
812.0422	-0.0684
812.2115	-0.019
812.3807	-0.0808
812.5499	0.0572
812.7191	-0.0558
812.8882	0.0084
813.0574	-0.0546
813.2265	-0.0472
813.3956	0.1209
813.5646	-0.0207
813.7337	0.0691
813.9027	-0.038
814.0718	0.0614
814.2407	0.1061
814.4097	-0.0032
814.5787	0.1864
814.7476	-0.0272
814.9165	0.0276
815.0854	0.094
815.2543	-0.0213
815.4232	0.1
815.592	0.1654
815.7608	-0.1294
815.9296	0.0783
816.0984	0.1239
816.2671	-0.1846
816.4359	0.036
816.6046	-0.0247
816.7733	-0.0792
816.942	-0.0788
817.1106	0.0849
817.2793	-0.0626
817.4479	-0.0055
817.6165	0.0384
817.785	-0.0184
817.9536	-0.0084
818.1221	0.0314
818.2906	0.0676
818.4591	0.2424
818.6276	0.0621
818.7961	0.1272
818.9645	0.1149
819.1329	0.177
819.3013	0.0826
819.4697	-0.1402
819.638	0.0611
819.8064	-0.0265
819.9747	0.0294
820.143	-0.1123
820.3113	0.0701
820.4795	-0.0195
820.6477	0.0229
820.816	0.0621
820.9842	0.0222
821.1523	0.0859
821.3205	0.0462
821.4886	0.0312
821.6567	-0.0528
821.8248	0.1359
821.9929	-0.0328
822.1609	0.0229
822.329	0.0592
822.497	-0.0008
822.665	0.0255
822.833	0.0101
823.0009	0.047
823.1688	0.043
823.3367	-0.1497
823.5046	0.1541
823.6725	0.0022
823.8404	-0.0918
824.0082	0.0023
824.176	0.0629
824.3438	0.1119
824.5116	0.0497
824.6793	0.1659
824.847	0.0739
825.0147	0.0205
825.1824	-0.0243
825.3501	-0.0445
825.5177	-0.0566
825.6854	-0.1076
825.853	-0.0346
826.0206	0.0604
826.1881	0.0824
826.3557	0.0395
826.5232	0.0967
826.6907	0.0623
826.8582	0.1042
827.0257	0.0736
827.1931	0.0548
827.3605	0.0967
827.528	-0.0552
827.6953	-0.1126
827.8627	-0.0683
828.03	0.0551
828.1974	-0.0333
828.3647	0.1196
828.532	0.124
828.6992	0.1413
828.8665	-0.2272
829.0337	0.1238
829.2009	-0.1022
829.3681	-0.0166
829.5352	-0.3
829.7024	0.1994
829.8695	0.1353
830.0366	0.3988
830.2037	0.3058
830.3707	0.1271
830.5378	0.3649
830.7048	-0.1524
830.8718	0.3906
831.0388	-0.0174
831.2057	-0
831.3727	-0.4316
831.5396	0.0719
831.7065	-0.9119
831.8734	0.3814
832.0402	0.2445
832.2071	0.2239
832.3739	-0.0774
832.5407	-1.6128
832.7075	-0.3413
832.8742	0.4602
833.041	0.2669
833.2077	0.3115
833.3744	0.1305
833.541	-0.0619
833.7077	-0.0021
833.8743	0.1073
834.0409	0.0849
834.2075	0.1741
834.3741	-0.1692
834.5407	0.1145
834.7072	-0.0092
834.8737	0.1032
835.0402	1.181
835.2067	-0.034
835.3731	-0.0124
835.5395	0.0495
835.706	0.679
835.8723	-0.0413
836.0387	0.2414
836.2051	0.186
836.3714	-0.0654
836.5377	-0.0257
836.704	0.6396
836.8703	-0.1257
837.0365	-0.4194
837.2027	-0
837.3689	0.5537
837.5351	0.5432
837.7013	-0.2235
837.8674	-0.1008
838.0335	-0.0687
838.1997	-0.0369
838.3657	-0
838.5318	0.6349
838.6978	-0
838.8639	-0.1767
839.0299	0.0636
839.1958	0.1438
839.3618	-0
839.5277	0.2351
839.6937	-0.2194
839.8596	-0.0899
840.0254	0.0056
840.1913	-0.1647
840.3571	0.0274
840.523	-0
840.6888	-0.0539
840.8545	0.1675
841.0203	0.188
841.186	-0
841.3517	-0.2063
841.5174	0.1322
841.6831	-0.1849
841.8488	-0.0192
842.0144	-0.0905
842.18	0.646
842.3456	-0.6155
842.5112	-0.4597
842.6767	0.786
842.8422	-0.0131
843.0077	0.1607
843.1732	-0.2537
843.3387	1.5508
843.5042	-0
843.6696	0.7644
843.835	0.1088
844.0004	-0.3481
844.1657	-0
844.3311	-0
844.4964	-0.6336
844.6617	0.0598
844.827	-0
844.9923	1.1123
845.1575	-0.1445
845.3227	-0.6293
845.4879	0.5507
845.6531	0.2988
845.8183	0.2163
845.9834	2.4099
846.1485	0.461
846.3136	-0.0774
846.4787	-0
846.6438	0.0994
846.8088	-0
846.9738	-0
847.1388	0.9799
847.3038	0.2591
847.4687	1.417
847.6337	-0.8261
847.7986	-0.0319
847.9635	0.2482
848.1284	-0
848.2932	1.4624
848.458	-0
848.6228	0.3614
848.7876	-0
848.9524	-0
849.1172	-1.6477
849.2819	-0
849.4466	0.2222
849.6113	0.6909
849.7759	-0
849.9406	-0.1235
850.1052	-0
850.2698	0.7519
850.4344	-0.0187
850.599	-0.4086
850.7635	0.0235
850.928	-0
851.0925	0.5783
851.257	-0.0044
851.4215	-0
851.5859	0.0729
851.7503	-0
851.9147	-0
852.0791	-0.0948
852.2434	0.3775
852.4078	2.2672
852.5721	-0
852.7364	1.026
852.9007	0.1165
853.0649	0.0749
853.2291	-0
853.3934	-0
853.5575	-0.2996
853.7217	0.2886
853.8859	-0.2746
854.05	-0.3102
854.2141	-0.1382
854.3782	0.9431
854.5423	-0.4073
854.7063	-0.0386
854.8703	0.1277
855.0343	-0.2956
855.1983	0.1702
855.3623	0.3338
855.5262	-0
855.6901	0.3789
855.854	0.2996
856.0179	0.0106
856.1818	-0
856.3456	0.6529
856.5094	-0.2682
856.6732	-0
856.837	-0.699
857.0008	-0
857.1645	-0
857.3282	-0.448
857.4919	-0.0253
857.6556	0.4052
857.8192	0.1516
857.9828	-0.066
858.1465	-0
858.31	-0.2314
858.4736	-0.6265
858.6372	-0.3833
858.8007	0.0348
858.9642	0.2458
859.1277	0.2148
859.2911	-0
859.4546	-0
859.618	1.7668
859.7814	-0.1112
859.9448	-0
860.1081	0.1694
860.2715	-0.5166
860.4348	0.2493
860.5981	0.2577
860.7614	-0
860.9246	0.0502
861.0879	0.0824
861.2511	-0
861.4143	-0.1787
861.5774	-0.252
861.7406	0.4356
861.9037	-0
862.0668	-0.45
862.2299	0.684
862.393	-0.1087
862.556	-0.4264
862.7191	0.019
862.8821	0.5793
863.0451	-0.1725
863.208	-0
863.371	-0
863.5339	0.7748
863.6968	0.3091
863.8597	-0.0357
864.0225	-0
864.1854	-0.5378
864.3482	-0
864.511	-0.0576
864.6737	-0
864.8365	0.7968
864.9992	-0
865.1619	-0.3378
865.3246	-1.7042
865.4873	-0.322
865.65	0.2374
865.8126	-0
865.9752	-0.1882
866.1378	0.1197
866.3004	0.418
866.4629	-1.5333
866.6254	-0.3327
866.7879	-0
866.9504	-0
867.1129	-0
867.2753	-0.2653
867.4377	0.6162
867.6001	-0
867.7625	0.0671
867.9249	-0
868.0872	-0
868.2495	-0
868.4118	-0
868.5741	-0
868.7363	-1.0801
868.8986	-0.1916
869.0608	-0
869.223	0.0949
869.3851	-0
869.5473	0.8055
869.7094	-0
869.8715	-0.8422
870.0336	0.2582
870.1957	-0.1725
870.3577	-0
870.5197	-0.2519
870.6817	-0.4099
870.8437	-0.1766
871.0057	0.3845
871.1676	0.3921
871.3295	-0
871.4914	-1.7435
871.6533	0.2774
871.8151	0.0708
871.977	-0
872.1388	-0
872.3006	-0.5428
872.4623	-0.1779
872.6241	0.9058
872.7858	1.2029
872.9475	0.465
873.1092	0.3906
873.2709	0.9968
873.4325	-1.71
873.5941	-0
873.7557	-0
873.9173	0.1718
874.0789	0.1559
874.2404	-0
874.4019	0.2487
874.5634	-0
874.7249	-0
874.8863	0.2374
875.0478	-0.1765
875.2092	0.9237
875.3706	0.4453
875.5319	-0.0957
875.6933	1.2029
875.8546	-0
876.0159	0.2915
876.1772	-0
876.3385	-0
876.4997	-0
876.6609	0.1193
876.8221	-0
876.9833	-0.3825
877.1445	0.1577
877.3056	-1.1182
877.4667	-0.5486
877.6278	0.8345
877.7889	-0.312
877.9499	0.0994
878.111	-0.628
878.272	-0
878.433	0.1708
878.5939	0.0914
878.7549	-0.2634
878.9158	0.3271
879.0767	0.3249
879.2376	-0
879.3984	0.0281
879.5593	-0.0928
879.7201	-1.8961
879.8809	1.2575
880.0417	-0.1904
880.2024	0.4242
880.3632	0.0675
880.5239	0.7274
880.6846	0.242
880.8452	0.6164
881.0059	-0
881.1665	0.2856
881.3271	0.4298
881.4877	0.3961
881.6483	-1.4407
881.8088	-0
881.9693	-1.406
882.1298	-1.406
882.2903	-1.406
