Data from D4ACN5uM440nmA_Absorbance_13-50-25-777.txt Node
Date: Fri Feb 21 13:50:25 GMT 2025
User: LASERRRRR
Spectrometer: FLMT03099
Trigger mode: 0
Integration Time (sec): 1.500000E-2
Scans to average: 1
Electric dark correction enabled: true
Nonlinearity correction enabled: false
Boxcar width: 0
XAxis mode: Wavelengths
Number of Pixels in Spectrum: 3648
>>>>>Begin Spectral Data<<<<<
179.3399	-0
179.5586	-0
179.7771	-0
179.9957	0.0963
180.2143	-1.4244
180.4329	0.6251
180.6514	-0
180.8699	-0.1964
181.0885	-0
181.307	0.1718
181.5255	0.0556
181.744	-0
181.9625	0.1934
182.181	-0
182.3994	-0.3078
182.6179	-0.4959
182.8363	-0.2037
183.0547	0.1408
183.2732	0.0683
183.4916	0.3061
183.71	0.2666
183.9284	0.0799
184.1467	-0
184.3651	-0.0705
184.5835	0.2115
184.8018	0.3265
185.0201	0.1168
185.2385	0.3513
185.4568	0.1837
185.6751	0.1374
185.8934	0.4233
186.1117	-0.0586
186.3299	0.1653
186.5482	0.1549
186.7664	0.3207
186.9847	-0.0178
187.2029	0.6045
187.4211	0.1022
187.6393	0.0881
187.8575	0.1347
188.0757	0.9808
188.2939	0.1195
188.512	0.24
188.7302	0.0959
188.9483	-0
189.1665	0.6877
189.3846	0.2779
189.6027	-0.0104
189.8208	0.2942
190.0389	0.2429
190.257	0.0003
190.475	0.135
190.6931	0.1721
190.9111	0.161
191.1292	0.1817
191.3472	0.1675
191.5652	0.3529
191.7832	0.2303
192.0012	0.2341
192.2192	0.1065
192.4371	0.1894
192.6551	0.1655
192.873	0.0507
193.091	0.2318
193.3089	0.1758
193.5268	0.385
193.7447	0.1705
193.9626	0.3417
194.1805	0.2293
194.3984	0.303
194.6162	0.2534
194.8341	0.4119
195.0519	0.2098
195.2697	0.2616
195.4875	0.3089
195.7054	0.305
195.9231	0.2028
196.1409	0.3448
196.3587	0.3506
196.5765	0.3114
196.7942	0.447
197.012	0.3471
197.2297	0.3197
197.4474	0.383
197.6651	0.3294
197.8828	0.374
198.1005	0.4333
198.3182	0.4099
198.5358	0.4213
198.7535	0.3905
198.9711	0.3843
199.1888	0.3921
199.4064	0.4137
199.624	0.4524
199.8416	0.3676
200.0592	0.3827
200.2767	0.3763
200.4943	0.4237
200.7119	0.3892
200.9294	0.4362
201.1469	0.4043
201.3645	0.4626
201.582	0.3786
201.7995	0.4307
202.017	0.4308
202.2344	0.4627
202.4519	0.3733
202.6694	0.3605
202.8868	0.3988
203.1042	0.4541
203.3217	0.393
203.5391	0.4173
203.7565	0.391
203.9739	0.3728
204.1913	0.3742
204.4086	0.3497
204.626	0.3201
204.8433	0.3856
205.0607	0.3535
205.278	0.3323
205.4953	0.3496
205.7126	0.3231
205.9299	0.3089
206.1472	0.3448
206.3644	0.3376
206.5817	0.3166
206.7989	0.3258
207.0162	0.3109
207.2334	0.3359
207.4506	0.3222
207.6678	0.2995
207.885	0.296
208.1022	0.3033
208.3194	0.2862
208.5365	0.3105
208.7537	0.2921
208.9708	0.3064
209.1879	0.2838
209.405	0.2625
209.6222	0.2427
209.8392	0.3118
210.0563	0.2717
210.2734	0.2567
210.4905	0.3025
210.7075	0.2711
210.9245	0.2672
211.1416	0.2727
211.3586	0.2759
211.5756	0.2305
211.7926	0.2902
212.0096	0.2662
212.2265	0.2687
212.4435	0.2434
212.6604	0.2467
212.8774	0.2258
213.0943	0.2439
213.3112	0.234
213.5281	0.2558
213.745	0.2412
213.9619	0.2358
214.1788	0.242
214.3956	0.2431
214.6125	0.2604
214.8293	0.2422
215.0461	0.2422
215.2629	0.254
215.4798	0.2394
215.6965	0.244
215.9133	0.2368
216.1301	0.2356
216.3469	0.2404
216.5636	0.2518
216.7803	0.2308
216.9971	0.2488
217.2138	0.252
217.4305	0.2532
217.6472	0.2289
217.8639	0.2425
218.0805	0.2436
218.2972	0.2227
218.5138	0.2455
218.7305	0.2596
218.9471	0.2465
219.1637	0.2689
219.3803	0.2528
219.5969	0.2426
219.8135	0.2624
220.0301	0.2517
220.2466	0.2373
220.4632	0.2529
220.6797	0.2672
220.8962	0.2661
221.1127	0.267
221.3292	0.2682
221.5457	0.2744
221.7622	0.2701
221.9787	0.2826
222.1951	0.2648
222.4116	0.2697
222.628	0.2694
222.8444	0.2723
223.0608	0.276
223.2772	0.2841
223.4936	0.2691
223.71	0.2752
223.9264	0.2845
224.1427	0.2852
224.3591	0.2795
224.5754	0.2835
224.7917	0.2896
225.008	0.2981
225.2243	0.3009
225.4406	0.2861
225.6569	0.2986
225.8732	0.3026
226.0894	0.3115
226.3057	0.2989
226.5219	0.3083
226.7381	0.3124
226.9543	0.3099
227.1705	0.3084
227.3867	0.3182
227.6029	0.3218
227.8191	0.3339
228.0352	0.3457
228.2513	0.3403
228.4675	0.3373
228.6836	0.3272
228.8997	0.3374
229.1158	0.3552
229.3319	0.3581
229.548	0.3536
229.764	0.3506
229.9801	0.3705
230.1961	0.3754
230.4121	0.3684
230.6282	0.3825
230.8442	0.3824
231.0602	0.3781
231.2761	0.3865
231.4921	0.3841
231.7081	0.4032
231.924	0.3924
232.14	0.4057
232.3559	0.3942
232.5718	0.4165
232.7877	0.4109
233.0036	0.4136
233.2195	0.4011
233.4353	0.4174
233.6512	0.4128
233.867	0.4176
234.0829	0.4209
234.2987	0.4297
234.5145	0.4471
234.7303	0.4348
234.9461	0.4466
235.1619	0.438
235.3776	0.429
235.5934	0.4373
235.8091	0.4346
236.0249	0.4458
236.2406	0.4419
236.4563	0.4491
236.672	0.435
236.8877	0.4487
237.1034	0.4476
237.319	0.4506
237.5347	0.4522
237.7503	0.4429
237.966	0.4631
238.1816	0.4565
238.3972	0.4604
238.6128	0.4654
238.8284	0.4623
239.0439	0.4529
239.2595	0.4649
239.475	0.449
239.6906	0.456
239.9061	0.4682
240.1216	0.4632
240.3371	0.4604
240.5526	0.4591
240.7681	0.4657
240.9836	0.4545
241.199	0.4604
241.4145	0.4496
241.6299	0.4534
241.8453	0.4397
242.0607	0.4385
242.2761	0.4381
242.4915	0.4282
242.7069	0.4179
242.9223	0.4136
243.1376	0.4085
243.353	0.399
243.5683	0.3919
243.7836	0.3893
243.9989	0.3873
244.2142	0.3686
244.4295	0.3725
244.6448	0.3666
244.86	0.3556
245.0753	0.3545
245.2905	0.3404
245.5057	0.3347
245.721	0.3425
245.9362	0.3324
246.1514	0.3262
246.3665	0.3176
246.5817	0.3087
246.7969	0.2949
247.012	0.2922
247.2271	0.2893
247.4423	0.2887
247.6574	0.283
247.8725	0.2763
248.0876	0.2781
248.3026	0.2733
248.5177	0.2537
248.7328	0.2519
248.9478	0.2518
249.1628	0.2577
249.3779	0.2426
249.5929	0.2377
249.8079	0.242
250.0228	0.2383
250.2378	0.2281
250.4528	0.2328
250.6677	0.2196
250.8827	0.219
251.0976	0.2171
251.3125	0.2188
251.5274	0.2106
251.7423	0.2095
251.9572	0.2091
252.172	0.2047
252.3869	0.2011
252.6017	0.1986
252.8166	0.2027
253.0314	0.1962
253.2462	0.197
253.461	0.1948
253.6758	0.1944
253.8906	0.1925
254.1053	0.1938
254.3201	0.1918
254.5348	0.1808
254.7496	0.1836
254.9643	0.1862
255.179	0.1869
255.3937	0.192
255.6083	0.1897
255.823	0.1874
256.0377	0.1786
256.2523	0.1833
256.467	0.1861
256.6816	0.1771
256.8962	0.1852
257.1108	0.1827
257.3254	0.1777
257.54	0.1751
257.7545	0.1834
257.9691	0.1781
258.1836	0.1762
258.3981	0.1776
258.6127	0.1719
258.8272	0.1754
259.0417	0.1737
259.2561	0.181
259.4706	0.1715
259.6851	0.176
259.8995	0.1751
260.114	0.1777
260.3284	0.1748
260.5428	0.1781
260.7572	0.1752
260.9716	0.1787
261.186	0.1813
261.4003	0.1736
261.6147	0.1719
261.829	0.1711
262.0433	0.179
262.2577	0.1734
262.472	0.1775
262.6863	0.1853
262.9005	0.1774
263.1148	0.1732
263.3291	0.1753
263.5433	0.1803
263.7576	0.1812
263.9718	0.1814
264.186	0.1788
264.4002	0.1777
264.6144	0.1845
264.8286	0.1849
265.0427	0.1846
265.2569	0.1836
265.471	0.1841
265.6851	0.1838
265.8993	0.1852
266.1134	0.1838
266.3275	0.1828
266.5415	0.1847
266.7556	0.1904
266.9697	0.1857
267.1837	0.1802
267.3978	0.1857
267.6118	0.1815
267.8258	0.1828
268.0398	0.1818
268.2538	0.1866
268.4677	0.1859
268.6817	0.1799
268.8957	0.1703
269.1096	0.1743
269.3235	0.1795
269.5374	0.1811
269.7514	0.1824
269.9652	0.1775
270.1791	0.1758
270.393	0.1756
270.6068	0.1804
270.8207	0.1724
271.0345	0.1737
271.2483	0.1665
271.4622	0.1732
271.676	0.1772
271.8897	0.1754
272.1035	0.1818
272.3173	0.1791
272.531	0.172
272.7448	0.1748
272.9585	0.174
273.1722	0.1707
273.3859	0.1742
273.5996	0.1834
273.8133	0.1793
274.0269	0.1701
274.2406	0.1783
274.4542	0.1743
274.6679	0.1821
274.8815	0.1793
275.0951	0.1841
275.3087	0.1794
275.5223	0.1803
275.7358	0.1817
275.9494	0.182
276.1629	0.1833
276.3765	0.1857
276.59	0.1776
276.8035	0.1808
277.017	0.1869
277.2305	0.1889
277.444	0.1908
277.6574	0.1885
277.8709	0.1882
278.0843	0.1839
278.2978	0.1866
278.5112	0.1844
278.7246	0.1855
278.938	0.1875
279.1513	0.1854
279.3647	0.1801
279.5781	0.1881
279.7914	0.1904
280.0047	0.1831
280.2181	0.1861
280.4314	0.1904
280.6447	0.1899
280.8579	0.1757
281.0712	0.186
281.2845	0.1841
281.4977	0.1856
281.711	0.179
281.9242	0.1842
282.1374	0.1825
282.3506	0.1816
282.5638	0.1845
282.7769	0.1813
282.9901	0.1818
283.2033	0.1905
283.4164	0.1829
283.6295	0.1804
283.8426	0.1795
284.0557	0.191
284.2688	0.1877
284.4819	0.1814
284.695	0.1881
284.908	0.1787
285.1211	0.1813
285.3341	0.183
285.5471	0.1806
285.7601	0.1836
285.9731	0.1888
286.1861	0.1832
286.3991	0.19
286.612	0.1876
286.825	0.1897
287.0379	0.1867
287.2508	0.1889
287.4637	0.1869
287.6766	0.1881
287.8895	0.1813
288.1024	0.1878
288.3152	0.1873
288.5281	0.185
288.7409	0.1946
288.9538	0.1886
289.1666	0.1854
289.3794	0.1843
289.5922	0.1866
289.8049	0.1862
290.0177	0.1916
290.2304	0.1936
290.4432	0.1891
290.6559	0.1915
290.8686	0.1866
291.0813	0.192
291.294	0.1906
291.5067	0.1872
291.7194	0.1924
291.932	0.1889
292.1447	0.1889
292.3573	0.1909
292.5699	0.1918
292.7825	0.1837
292.9951	0.1872
293.2077	0.1829
293.4203	0.1886
293.6328	0.1884
293.8454	0.1846
294.0579	0.1856
294.2704	0.1982
294.4829	0.1848
294.6954	0.1878
294.9079	0.1818
295.1204	0.1855
295.3328	0.1936
295.5453	0.1921
295.7577	0.1864
295.9701	0.1916
296.1825	0.187
296.3949	0.1869
296.6073	0.1891
296.8197	0.1885
297.0321	0.1928
297.2444	0.187
297.4567	0.1923
297.6691	0.1852
297.8814	0.1853
298.0937	0.1879
298.306	0.1873
298.5182	0.191
298.7305	0.1874
298.9428	0.1913
299.155	0.1827
299.3672	0.186
299.5794	0.1858
299.7916	0.1888
300.0038	0.1855
300.216	0.1859
300.4282	0.1911
300.6403	0.1911
300.8525	0.1885
301.0646	0.1908
301.2767	0.1898
301.4888	0.1905
301.7009	0.1883
301.913	0.194
302.125	0.1931
302.3371	0.1884
302.5491	0.1917
302.7612	0.195
302.9732	0.1963
303.1852	0.1916
303.3972	0.1935
303.6092	0.1888
303.8211	0.1832
304.0331	0.1883
304.245	0.1894
304.457	0.1859
304.6689	0.1842
304.8808	0.1831
305.0927	0.1902
305.3046	0.1772
305.5164	0.1815
305.7283	0.182
305.9401	0.1737
306.152	0.1779
306.3638	0.1807
306.5756	0.1732
306.7874	0.1722
306.9992	0.1743
307.2109	0.1705
307.4227	0.1715
307.6344	0.176
307.8462	0.1675
308.0579	0.1696
308.2696	0.167
308.4813	0.1645
308.693	0.1636
308.9046	0.162
309.1163	0.1501
309.328	0.1609
309.5396	0.1526
309.7512	0.1605
309.9628	0.1532
310.1744	0.1507
310.386	0.1496
310.5976	0.1499
310.8091	0.1506
311.0207	0.1481
311.2322	0.146
311.4437	0.1485
311.6552	0.1492
311.8667	0.1474
312.0782	0.1439
312.2897	0.1479
312.5012	0.1415
312.7126	0.1397
312.924	0.1405
313.1355	0.1385
313.3469	0.139
313.5583	0.134
313.7696	0.1319
313.981	0.1342
314.1924	0.1321
314.4037	0.1296
314.6151	0.1297
314.8264	0.141
315.0377	0.1284
315.249	0.1338
315.4603	0.1301
315.6716	0.1307
315.8828	0.1344
316.0941	0.1296
316.3053	0.1308
316.5165	0.1327
316.7277	0.127
316.9389	0.1293
317.1501	0.133
317.3613	0.128
317.5724	0.127
317.7836	0.1228
317.9947	0.1263
318.2058	0.131
318.417	0.1243
318.6281	0.1186
318.8391	0.1271
319.0502	0.129
319.2613	0.1271
319.4723	0.1237
319.6834	0.1306
319.8944	0.1271
320.1054	0.1249
320.3164	0.1202
320.5274	0.1269
320.7383	0.1261
320.9493	0.1267
321.1602	0.1235
321.3712	0.1214
321.5821	0.1169
321.793	0.1345
322.0039	0.132
322.2148	0.1247
322.4257	0.1203
322.6365	0.1237
322.8474	0.128
323.0582	0.124
323.269	0.1323
323.4798	0.122
323.6906	0.1261
323.9014	0.1292
324.1122	0.1218
324.3229	0.1278
324.5337	0.1354
324.7444	0.1345
324.9551	0.1268
325.1658	0.1289
325.3765	0.1303
325.5872	0.1337
325.7979	0.1296
326.0085	0.1265
326.2192	0.1293
326.4298	0.1318
326.6404	0.1333
326.851	0.1286
327.0616	0.1336
327.2722	0.1297
327.4828	0.133
327.6933	0.1418
327.9039	0.1311
328.1144	0.1328
328.3249	0.141
328.5354	0.136
328.7459	0.1355
328.9564	0.1347
329.1669	0.1365
329.3773	0.1405
329.5878	0.1357
329.7982	0.1388
330.0086	0.1423
330.219	0.1362
330.4294	0.1422
330.6398	0.1421
330.8502	0.1433
331.0605	0.1413
331.2708	0.1356
331.4812	0.1405
331.6915	0.1388
331.9018	0.1398
332.1121	0.1464
332.3224	0.139
332.5326	0.1328
332.7429	0.1349
332.9531	0.1433
333.1633	0.1345
333.3735	0.1328
333.5837	0.1424
333.7939	0.1373
334.0041	0.1488
334.2143	0.1408
334.4244	0.15
334.6346	0.133
334.8447	0.1385
335.0548	0.1477
335.2649	0.1482
335.475	0.1429
335.685	0.1448
335.8951	0.1365
336.1051	0.1498
336.3152	0.1444
336.5252	0.1472
336.7352	0.1419
336.9452	0.1391
337.1552	0.1431
337.3652	0.1403
337.5751	0.1419
337.7851	0.1434
337.995	0.1415
338.2049	0.1399
338.4148	0.1394
338.6247	0.1494
338.8346	0.1393
339.0445	0.1465
339.2543	0.1419
339.4642	0.1373
339.674	0.1432
339.8838	0.1445
340.0936	0.1489
340.3034	0.1394
340.5132	0.1464
340.7229	0.1461
340.9327	0.1559
341.1424	0.1434
341.3522	0.1459
341.5619	0.1494
341.7716	0.1497
341.9813	0.1498
342.1909	0.1518
342.4006	0.157
342.6102	0.1487
342.8199	0.1529
343.0295	0.1498
343.2391	0.1538
343.4487	0.1503
343.6583	0.1582
343.8679	0.149
344.0774	0.1563
344.287	0.157
344.4965	0.1584
344.706	0.1588
344.9155	0.1509
345.125	0.1573
345.3345	0.178
345.544	0.158
345.7534	0.1587
345.9629	0.1616
346.1723	0.1637
346.3817	0.162
346.5911	0.1697
346.8005	0.1714
347.0099	0.167
347.2193	0.1698
347.4286	0.1719
347.638	0.1672
347.8473	0.1773
348.0566	0.1654
348.2659	0.1702
348.4752	0.17
348.6845	0.1669
348.8937	0.1686
349.103	0.167
349.3122	0.1736
349.5214	0.1721
349.7306	0.1803
349.9398	0.175
350.149	0.172
350.3582	0.1824
350.5674	0.1823
350.7765	0.1749
350.9856	0.1738
351.1948	0.1818
351.4039	0.1765
351.613	0.1821
351.822	0.1855
352.0311	0.1885
352.2402	0.1777
352.4492	0.1728
352.6582	0.1901
352.8672	0.1862
353.0762	0.1859
353.2852	0.1851
353.4942	0.1843
353.7032	0.1829
353.9121	0.18
354.1211	0.1898
354.33	0.1856
354.5389	0.1817
354.7478	0.1795
354.9567	0.1814
355.1655	0.1878
355.3744	0.1825
355.5833	0.1911
355.7921	0.193
356.0009	0.1833
356.2097	0.1808
356.4185	0.1858
356.6273	0.1871
356.8361	0.192
357.0448	0.1839
357.2536	0.1898
357.4623	0.1908
357.671	0.1883
357.8797	0.1898
358.0884	0.1864
358.2971	0.1868
358.5057	0.1951
358.7144	0.1892
358.923	0.1981
359.1316	0.1954
359.3402	0.1849
359.5488	0.1929
359.7574	0.191
359.966	0.1958
360.1746	0.1933
360.3831	0.2018
360.5916	0.1978
360.8002	0.2057
361.0087	0.1948
361.2172	0.2054
361.4256	0.2055
361.6341	0.2053
361.8426	0.198
362.051	0.2096
362.2594	0.2016
362.4678	0.1995
362.6762	0.209
362.8846	0.2117
363.093	0.2116
363.3014	0.2173
363.5097	0.2069
363.718	0.2146
363.9264	0.2181
364.1347	0.2135
364.343	0.22
364.5513	0.215
364.7595	0.2212
364.9678	0.2147
365.176	0.2207
365.3842	0.2157
365.5925	0.2135
365.8007	0.2178
366.0089	0.2312
366.217	0.2242
366.4252	0.2288
366.6333	0.2274
366.8415	0.2265
367.0496	0.2247
367.2577	0.23
367.4658	0.2306
367.6739	0.2237
367.882	0.2403
368.09	0.2232
368.2981	0.2355
368.5061	0.2378
368.7141	0.2279
368.9221	0.2403
369.1301	0.234
369.3381	0.2449
369.5461	0.2414
369.754	0.2419
369.962	0.2338
370.1699	0.2469
370.3778	0.2505
370.5857	0.2381
370.7936	0.2412
371.0015	0.2429
371.2093	0.2441
371.4172	0.2403
371.625	0.2412
371.8328	0.2371
372.0406	0.2478
372.2484	0.2443
372.4562	0.2524
372.664	0.2501
372.8717	0.2445
373.0795	0.2527
373.2872	0.2626
373.4949	0.2557
373.7026	0.2505
373.9103	0.255
374.118	0.2648
374.3256	0.2656
374.5333	0.2583
374.7409	0.2581
374.9485	0.2556
375.1561	0.261
375.3637	0.256
375.5713	0.2652
375.7789	0.2635
375.9864	0.2562
376.194	0.271
376.4015	0.2657
376.609	0.263
376.8165	0.2645
377.024	0.2671
377.2315	0.2618
377.4389	0.2604
377.6464	0.2717
377.8538	0.2718
378.0612	0.2708
378.2686	0.262
378.476	0.2783
378.6834	0.2719
378.8908	0.2685
379.0981	0.2694
379.3055	0.2739
379.5128	0.267
379.7201	0.2759
379.9274	0.2709
380.1347	0.2729
380.342	0.2854
380.5492	0.2785
380.7565	0.2738
380.9637	0.2797
381.1709	0.2814
381.3781	0.2798
381.5853	0.2799
381.7925	0.2787
381.9997	0.2872
382.2068	0.2816
382.4139	0.2784
382.6211	0.2808
382.8282	0.2889
383.0353	0.2892
383.2424	0.2885
383.4494	0.2904
383.6565	0.281
383.8635	0.2832
384.0706	0.2868
384.2776	0.2762
384.4846	0.2913
384.6916	0.2899
384.8986	0.2892
385.1055	0.2899
385.3125	0.295
385.5194	0.2961
385.7263	0.2903
385.9333	0.2985
386.1402	0.2878
386.347	0.286
386.5539	0.2853
386.7608	0.2822
386.9676	0.2894
387.1744	0.2872
387.3813	0.3
387.5881	0.2813
387.7948	0.2963
388.0016	0.2963
388.2084	0.2825
388.4151	0.288
388.6219	0.2788
388.8286	0.2859
389.0353	0.2871
389.242	0.294
389.4487	0.2782
389.6553	0.2765
389.862	0.2721
390.0686	0.285
390.2753	0.2786
390.4819	0.2838
390.6885	0.2832
390.8951	0.2845
391.1016	0.2852
391.3082	0.276
391.5147	0.2753
391.7213	0.2762
391.9278	0.275
392.1343	0.279
392.3408	0.2717
392.5473	0.267
392.7537	0.2779
392.9602	0.2772
393.1666	0.2756
393.373	0.2652
393.5794	0.2712
393.7858	0.2685
393.9922	0.262
394.1986	0.2568
394.4049	0.2582
394.6113	0.264
394.8176	0.2581
395.0239	0.2555
395.2302	0.258
395.4365	0.2638
395.6428	0.2651
395.8491	0.2606
396.0553	0.2525
396.2615	0.255
396.4678	0.266
396.674	0.2448
396.8802	0.2377
397.0863	0.244
397.2925	0.2446
397.4987	0.2476
397.7048	0.2447
397.9109	0.2452
398.117	0.2436
398.3231	0.2457
398.5292	0.2344
398.7353	0.2484
398.9413	0.2458
399.1474	0.241
399.3534	0.242
399.5594	0.2505
399.7654	0.249
399.9714	0.2452
400.1774	0.241
400.3833	0.2404
400.5893	0.2433
400.7952	0.2473
401.0011	0.2369
401.207	0.2493
401.4129	0.2422
401.6188	0.2449
401.8247	0.2439
402.0305	0.2388
402.2364	0.2456
402.4422	0.2454
402.648	0.2396
402.8538	0.2448
403.0596	0.236
403.2654	0.2417
403.4711	0.2368
403.6768	0.2319
403.8826	0.2445
404.0883	0.2419
404.294	0.2458
404.4997	0.2407
404.7054	0.2439
404.911	0.2327
405.1167	0.2443
405.3223	0.2359
405.5279	0.2416
405.7335	0.2415
405.9391	0.2382
406.1447	0.2483
406.3502	0.2373
406.5558	0.2395
406.7613	0.2332
406.9668	0.2421
407.1724	0.2367
407.3778	0.2463
407.5833	0.2333
407.7888	0.2348
407.9942	0.2398
408.1997	0.2416
408.4051	0.2497
408.6105	0.2396
408.8159	0.2449
409.0213	0.2416
409.2267	0.2447
409.432	0.2406
409.6374	0.2449
409.8427	0.2442
410.048	0.247
410.2533	0.2481
410.4586	0.2334
410.6639	0.2418
410.8691	0.2379
411.0744	0.2367
411.2796	0.2392
411.4848	0.2339
411.69	0.2299
411.8952	0.2317
412.1004	0.2423
412.3056	0.2393
412.5107	0.2497
412.7158	0.2526
412.921	0.2347
413.1261	0.2299
413.3312	0.2498
413.5362	0.2485
413.7413	0.2345
413.9464	0.2366
414.1514	0.2409
414.3564	0.2364
414.5614	0.2407
414.7664	0.2281
414.9714	0.2276
415.1764	0.2505
415.3813	0.2353
415.5863	0.2343
415.7912	0.2335
415.9961	0.2356
416.201	0.2319
416.4059	0.2297
416.6108	0.2393
416.8156	0.2361
417.0205	0.2348
417.2253	0.2387
417.4301	0.2431
417.6349	0.234
417.8397	0.2277
418.0445	0.2313
418.2492	0.2291
418.454	0.226
418.6587	0.2405
418.8634	0.2275
419.0681	0.2317
419.2728	0.2248
419.4775	0.2371
419.6822	0.2239
419.8868	0.2217
420.0915	0.2214
420.2961	0.2082
420.5007	0.2372
420.7053	0.2257
420.9099	0.2309
421.1144	0.2202
421.319	0.2246
421.5235	0.2217
421.728	0.2304
421.9325	0.232
422.137	0.2221
422.3415	0.2278
422.546	0.2103
422.7504	0.2132
422.9549	0.2216
423.1593	0.2194
423.3637	0.2191
423.5681	0.2254
423.7725	0.2081
423.9769	0.2227
424.1812	0.2021
424.3856	0.2135
424.5899	0.2034
424.7942	0.2041
424.9985	0.2152
425.2028	0.2195
425.4071	0.2132
425.6113	0.2101
425.8156	0.2006
426.0198	0.2143
426.224	0.2136
426.4282	0.1976
426.6324	0.2072
426.8366	0.1997
427.0407	0.1946
427.2449	0.1946
427.449	0.1938
427.6531	0.2015
427.8572	0.1873
428.0613	0.2027
428.2654	0.1967
428.4694	0.1836
428.6735	0.1909
428.8775	0.1983
429.0815	0.1816
429.2855	0.1886
429.4895	0.1855
429.6935	0.1803
429.8975	0.1744
430.1014	0.1805
430.3053	0.1805
430.5093	0.1769
430.7132	0.1769
430.9171	0.1756
431.1209	0.1698
431.3248	0.1593
431.5286	0.1706
431.7325	0.1707
431.9363	0.1615
432.1401	0.1637
432.3439	0.1651
432.5477	0.1549
432.7514	0.1662
432.9552	0.1557
433.1589	0.1499
433.3627	0.1587
433.5664	0.1456
433.7701	0.1614
433.9737	0.155
434.1774	0.1496
434.3811	0.1468
434.5847	0.1536
434.7883	0.1461
434.9919	0.1395
435.1955	0.1446
435.3991	0.1427
435.6027	0.1351
435.8062	0.1515
436.0098	0.132
436.2133	0.1287
436.4168	0.1335
436.6203	0.1385
436.8238	0.1358
437.0272	0.1261
437.2307	0.1294
437.4341	0.1333
437.6375	0.1297
437.841	0.1195
438.0443	0.1235
438.2477	0.1209
438.4511	0.1126
438.6545	0.1161
438.8578	0.1138
439.0611	0.1199
439.2644	0.1147
439.4677	0.1037
439.671	0.1062
439.8743	0.104
440.0775	0.1117
440.2808	0.1004
440.484	0.1041
440.6872	0.1048
440.8904	0.0908
441.0936	0.1028
441.2967	0.0871
441.4999	0.0956
441.703	0.0987
441.9062	0.1011
442.1093	0.0967
442.3124	0.0911
442.5155	0.089
442.7185	0.0876
442.9216	0.0889
443.1246	0.0821
443.3276	0.0846
443.5307	0.0737
443.7337	0.0882
443.9366	0.0742
444.1396	0.0732
444.3426	0.0724
444.5455	0.0727
444.7484	0.0757
444.9513	0.0701
445.1542	0.0746
445.3571	0.0718
445.56	0.0682
445.7628	0.0663
445.9657	0.073
446.1685	0.0668
446.3713	0.0653
446.5741	0.0755
446.7769	0.0622
446.9797	0.0642
447.1824	0.0605
447.3852	0.0374
447.5879	0.06
447.7906	0.0496
447.9933	0.0529
448.196	0.0565
448.3986	0.0498
448.6013	0.0466
448.8039	0.055
449.0066	0.0562
449.2092	0.0568
449.4118	0.0516
449.6143	0.0508
449.8169	0.0474
450.0195	0.0433
450.222	0.0474
450.4245	0.0526
450.627	0.0499
450.8295	0.0432
451.032	0.0415
451.2345	0.0326
451.4369	0.0387
451.6394	0.0361
451.8418	0.0423
452.0442	0.0505
452.2466	0.0382
452.449	0.039
452.6513	0.0332
452.8537	0.0242
453.056	0.0399
453.2583	0.0285
453.4607	0.0192
453.663	0.0348
453.8652	0.0275
454.0675	0.0391
454.2697	0.0362
454.472	0.0209
454.6742	0.0321
454.8764	0.0314
455.0786	0.0281
455.2808	0.026
455.4829	0.0403
455.6851	0.0302
455.8872	0.0246
456.0893	0.0297
456.2915	0.0233
456.4935	0.0292
456.6956	0.0235
456.8977	0.0263
457.0997	0.0315
457.3018	0.0211
457.5038	0.0303
457.7058	0.0257
457.9078	0.0276
458.1098	0.024
458.3117	0.0297
458.5137	0.0201
458.7156	0.02
458.9175	0.02
459.1194	0.015
459.3213	0.0166
459.5232	0.0255
459.725	0.0189
459.9269	0.0244
460.1287	0.014
460.3305	0.0192
460.5323	0.0241
460.7341	0.0091
460.9359	0.0122
461.1376	0.0222
461.3394	0.0145
461.5411	0.0263
461.7428	0.0225
461.9445	0.0155
462.1462	0.0147
462.3479	0.0112
462.5495	0.0179
462.7512	0.0257
462.9528	0.0116
463.1544	0.0137
463.356	0.0107
463.5576	0.0274
463.7592	0.0175
463.9607	0.0107
464.1623	0.0066
464.3638	0.0131
464.5653	0.0069
464.7668	0.0139
464.9683	0.0129
465.1697	0.0155
465.3712	0.0037
465.5726	0.0081
465.7741	0.0189
465.9755	0.0099
466.1769	0.0061
466.3782	0.011
466.5796	0.015
466.7809	0.0181
466.9823	0.0132
467.1836	0.0057
467.3849	0.0069
467.5862	0.0032
467.7875	0.0121
467.9887	0.0132
468.19	0.0106
468.3912	0.0175
468.5924	0.0064
468.7936	0.0065
468.9948	0.0035
469.196	0.0026
469.3972	0.0028
469.5983	0.0153
469.7994	0.0106
470.0006	0.004
470.2017	0.0152
470.4027	0.0213
470.6038	0.0109
470.8049	0.011
471.0059	0.0113
471.2069	0.0081
471.408	0.0157
471.6089	0.0096
471.8099	0.0157
472.0109	0.006
472.2119	0.0161
472.4128	0.0093
472.6137	0.009
472.8146	0.0082
473.0155	0.0168
473.2164	0.0077
473.4173	-0.0019
473.6181	0.0038
473.819	-0.0004
474.0198	0.0049
474.2206	-0.0005
474.4214	0.0104
474.6222	0.0002
474.8229	0.0067
475.0237	0.0103
475.2244	0.013
475.4251	0.007
475.6258	0.0029
475.8265	0.0107
476.0272	0.0064
476.2278	0.0125
476.4285	0.0032
476.6291	0.006
476.8297	0.012
477.0303	-0.0034
477.2309	0.0032
477.4315	0.0049
477.632	0.009
477.8326	0.0134
478.0331	0.0136
478.2336	0.0011
478.4341	0.0075
478.6346	-0.0009
478.8351	0.0029
479.0355	0.0076
479.236	0.0202
479.4364	0.008
479.6368	0.0017
479.8372	0.0049
480.0376	0.0066
480.2379	0.0087
480.4383	0.012
480.6386	0.0057
480.8389	0.0091
481.0392	0.0093
481.2395	0.0073
481.4398	0.0012
481.6401	0.0109
481.8403	0.0072
482.0405	0.0015
482.2408	0.0098
482.441	0.0121
482.6411	0.0043
482.8413	0.0014
483.0415	0.0082
483.2416	0.0074
483.4417	0.0018
483.6419	0.0014
483.8419	0.0097
484.042	0.0079
484.2421	-0.0088
484.4422	0.0046
484.6422	0.0077
484.8422	0.0063
485.0422	0.0078
485.2422	0.0062
485.4422	0.0053
485.6422	0.0027
485.8421	0.0033
486.042	0.0139
486.242	0.0038
486.4419	0.0047
486.6417	0.0045
486.8416	0.0033
487.0415	0.0021
487.2413	-0.0017
487.4411	0.0082
487.641	0.0057
487.8408	0.0131
488.0405	0.009
488.2403	-0.0061
488.4401	0.0046
488.6398	0.015
488.8395	0.0089
489.0392	0.0089
489.2389	0.0129
489.4386	0.0014
489.6383	0.014
489.8379	0.0027
490.0376	0.0054
490.2372	-0.001
490.4368	0.0032
490.6364	-0.0002
490.836	0.0062
491.0355	0.0085
491.2351	0.0045
491.4346	0.0088
491.6341	0.0013
491.8336	0.0093
492.0331	0.0014
492.2326	0.0051
492.432	0.0128
492.6315	0.0105
492.8309	0.0039
493.0303	0.0148
493.2297	0.011
493.4291	0.0026
493.6284	0.0159
493.8278	-0.0002
494.0271	0.0111
494.2264	0.0012
494.4257	0.0124
494.625	0.0099
494.8243	-0.0089
495.0236	0.0089
495.2228	0.0112
495.422	0.0057
495.6213	0.0056
495.8205	0.007
496.0196	0.005
496.2188	0.0079
496.418	0.0034
496.6171	0.0019
496.8162	0.0086
497.0153	0.0078
497.2144	0.0051
497.4135	0.0049
497.6126	0.0053
497.8116	-0.0056
498.0107	0.0087
498.2097	0.0138
498.4087	0.006
498.6077	0.0014
498.8067	0.0059
499.0056	-0.0036
499.2046	0.0176
499.4035	-0.0012
499.6024	-0.0066
499.8013	0.0081
500.0002	0.0024
500.199	0.0147
500.3979	0.004
500.5967	0.0036
500.7956	0.0056
500.9944	0.0048
501.1932	0.0129
501.3919	0.0075
501.5907	0.0046
501.7895	0.0014
501.9882	0.0076
502.1869	0.0111
502.3856	0.0038
502.5843	0.0039
502.783	0.0062
502.9816	0.0092
503.1803	-0.0004
503.3789	0.0062
503.5775	0.0058
503.7761	0.0011
503.9747	0.0148
504.1732	-0.0003
504.3718	0.0143
504.5703	0.0095
504.7689	-0.01
504.9674	0.0018
505.1658	0.0053
505.3643	0.0105
505.5628	0.0089
505.7612	0.0072
505.9597	0.0058
506.1581	0.0033
506.3565	0.0051
506.5549	0.0028
506.7532	-0.0009
506.9516	0.0063
507.1499	0.0106
507.3482	0.0069
507.5465	0.0083
507.7448	-0.0017
507.9431	0.0124
508.1414	-0.0037
508.3396	0.0138
508.5379	-0.0003
508.7361	0.0091
508.9343	0.0072
509.1325	0.0165
509.3306	0.0023
509.5288	-0.0042
509.7269	0.0093
509.9251	0.0156
510.1232	0.0069
510.3213	0.003
510.5193	0.0027
510.7174	0.0094
510.9154	0.006
511.1135	-0.003
511.3115	0.003
511.5095	0.0004
511.7075	0.0073
511.9055	0.0151
512.1034	0.0044
512.3014	0.0041
512.4993	0.012
512.6972	-0.0087
512.8951	-0.0006
513.093	0.0007
513.2908	0.0131
513.4887	0.0037
513.6865	0.0099
513.8844	0.0109
514.0822	0.0062
514.2799	0.0012
514.4777	0.0002
514.6755	0.0065
514.8732	0.0032
515.0709	0.0019
515.2687	-0.0008
515.4664	0.0104
515.664	0.0062
515.8617	0.013
516.0594	0.0104
516.257	-0.0007
516.4546	0.013
516.6522	0.0082
516.8498	-0.0025
517.0474	0.0048
517.2449	0.0021
517.4425	0.0031
517.64	0.0092
517.8375	0.0152
518.035	0.0038
518.2325	0.0065
518.43	0.003
518.6274	-0.0012
518.8249	0.0041
519.0223	0.0119
519.2197	0.0119
519.4171	0.0004
519.6145	0.0125
519.8118	-0.0101
520.0092	-0.0036
520.2065	0.006
520.4038	0.0012
520.6011	0.0149
520.7984	-0.0003
520.9956	0.0102
521.1929	0.0103
521.3901	0.0107
521.5874	0.0087
521.7846	-0.0079
521.9818	0.0063
522.1789	-0.0147
522.3761	0.0168
522.5732	0.0119
522.7704	0.0009
522.9675	-0.0035
523.1646	-0.0043
523.3617	0.007
523.5587	0.0103
523.7558	0.0089
523.9528	0.0067
524.1498	-0.0028
524.3468	-0.0022
524.5438	-0.0007
524.7408	0.0033
524.9378	0.0074
525.1347	0.0119
525.3316	0.0108
525.5285	0.0015
525.7254	0.0056
525.9223	0.0113
526.1192	0.0103
526.316	0.0257
526.5129	0.0117
526.7097	-0.0026
526.9065	0.014
527.1033	0.014
527.3	0.0098
527.4968	0.0099
527.6935	0.0052
527.8903	0.0095
528.087	-0.0055
528.2837	0.0043
528.4804	-0.0028
528.677	0.0077
528.8737	-0.0008
529.0703	0.0057
529.2669	0.0127
529.4635	0.0004
529.6601	-0.0001
529.8567	0.0024
530.0532	-0.0005
530.2498	-0.0019
530.4463	-0.0122
530.6428	0.0127
530.8393	0.0043
531.0358	0.0007
531.2322	-0.002
531.4287	0.0057
531.6251	-0.0099
531.8215	-0.0107
532.0179	0.0012
532.2143	0.012
532.4107	0.0125
532.607	-0.0037
532.8034	0.0022
532.9997	-0.0028
533.196	-0.005
533.3923	0.0152
533.5886	0.0071
533.7848	-0.0024
533.9811	0.0109
534.1773	0.0048
534.3735	0.0113
534.5697	0.0054
534.7659	0.0059
534.9621	0.0085
535.1582	0
535.3544	0.0102
535.5505	0.0043
535.7466	0.0009
535.9427	0.0117
536.1387	-0.0073
536.3348	0.0113
536.5308	0.0008
536.7269	-0.0016
536.9229	0.013
537.1189	0.0162
537.3148	-0.0024
537.5108	0.0018
537.7068	0.0137
537.9027	-0.0055
538.0986	0.0037
538.2945	-0.0062
538.4904	-0.0017
538.6863	-0.0007
538.8821	0.0113
539.078	0.0061
539.2738	0.0044
539.4696	0.0002
539.6654	0.0035
539.8611	0.0061
540.0569	0.0025
540.2526	0.0063
540.4484	-0.0038
540.6441	0.0056
540.8398	0.0136
541.0355	0.0069
541.2311	0.0011
541.4268	0.006
541.6224	0.015
541.818	0.0083
542.0136	0.0158
542.2092	0.0107
542.4048	0.008
542.6003	0.0065
542.7959	0.0107
542.9914	0.0063
543.1869	0.0042
543.3824	0.0066
543.5779	0.0129
543.7734	0.0078
543.9688	-0.0011
544.1642	0.0059
544.3596	0.013
544.555	0.0027
544.7504	0.0144
544.9458	0.0076
545.1411	-0.0036
545.3365	0.0056
545.5318	0.0142
545.7271	0.0101
545.9224	0.0112
546.1177	0.0034
546.3129	0.0049
546.5081	0.0045
546.7034	0.0136
546.8986	0.0074
547.0938	0.0113
547.289	0.0065
547.4841	0.0059
547.6793	-0.0009
547.8744	0.0154
548.0695	0.0052
548.2646	0.0011
548.4597	0.006
548.6548	0.0112
548.8498	0.0053
549.0448	-0.0005
549.2399	0.0101
549.4349	0.0124
549.6298	0.009
549.8248	-0.0098
550.0198	-0.0009
550.2147	0.0085
550.4096	-0.0039
550.6045	-0.0069
550.7994	0.0046
550.9943	0.005
551.1892	-0.018
551.384	0.0086
551.5788	-0.0011
551.7737	0.0136
551.9685	0.002
552.1632	0.003
552.358	0.0035
552.5528	0.0047
552.7475	0.0052
552.9422	0.0064
553.1369	0.0029
553.3316	0.0082
553.5263	0.0102
553.7209	0.005
553.9156	-0.0043
554.1102	0.0115
554.3048	0.007
554.4994	-0.0005
554.694	0.0054
554.8885	0.0055
555.0831	0.0135
555.2776	0.0112
555.4721	0.0127
555.6666	0.0058
555.8611	0.0057
556.0555	0.0083
556.25	0.014
556.4444	-0.0002
556.6388	0.0044
556.8332	0.0071
557.0276	-0.001
557.222	-0.0034
557.4163	0.0078
557.6107	0.0033
557.805	-0.0026
557.9993	0.0001
558.1936	-0.0021
558.3879	0.0013
558.5821	0.0044
558.7764	-0.014
558.9706	0.0005
559.1648	0.0024
559.359	0.0015
559.5532	-0.0059
559.7473	-0.0017
559.9415	0.0081
560.1356	0.011
560.3297	-0.0019
560.5238	0.0082
560.7179	-0.0002
560.9119	-0.0009
561.106	0.0002
561.3	0.0005
561.494	0.0048
561.688	0.0059
561.882	0.0033
562.076	0.0082
562.2699	0.0182
562.4639	0.0102
562.6578	0.0061
562.8517	-0.0027
563.0456	0.0025
563.2395	0.01
563.4333	0.0001
563.6272	0.0027
563.821	0.0012
564.0148	0.0112
564.2086	0.0081
564.4024	0.0128
564.5961	0.0112
564.7899	0.0131
564.9836	0.0007
565.1773	0.0112
565.371	-0.0022
565.5647	0.0136
565.7584	0.0145
565.952	0.0158
566.1456	-0.0019
566.3393	0.0063
566.5329	-0.0019
566.7264	0.0044
566.92	0.0038
567.1136	0.002
567.3071	-0.0146
567.5006	0.0052
567.6941	0.0072
567.8876	0.0003
568.0811	0.0221
568.2745	-0.0032
568.468	0.0074
568.6614	0.0101
568.8548	0.0091
569.0482	0.0024
569.2416	0.001
569.4349	0.0036
569.6283	0.0035
569.8216	0.0062
570.0149	0.0045
570.2082	0.01
570.4015	0.0033
570.5947	0.0044
570.788	0.0099
570.9812	0.0006
571.1744	0.0043
571.3676	0.0043
571.5608	0.0073
571.754	0.0097
571.9471	0.0089
572.1402	0.0013
572.3333	0.0032
572.5264	0.0071
572.7195	0.0039
572.9126	0.0043
573.1057	0.0067
573.2987	0.01
573.4917	0.0041
573.6847	0.0031
573.8777	0.0046
574.0707	0.0029
574.2636	0.007
574.4566	0.0053
574.6495	-0.0021
574.8424	0.0089
575.0353	0.0064
575.2281	0.0077
575.421	0.0004
575.6138	0.0027
575.8067	0.0102
575.9995	0.0004
576.1923	0.0107
576.385	0.0044
576.5778	0.0071
576.7706	0.0089
576.9633	0.0053
577.156	-0.0053
577.3487	0.0012
577.5414	0.0022
577.734	0.0032
577.9267	0.0076
578.1193	0.0078
578.3119	0.0012
578.5045	0.0062
578.6971	-0.0004
578.8897	0.0021
579.0822	0.01
579.2747	0.0065
579.4673	0.0039
579.6598	0.0041
579.8522	0.0005
580.0447	0.0099
580.2372	0.008
580.4296	0.0082
580.622	0.0039
580.8144	0.0041
581.0068	0.0032
581.1992	0.0069
581.3915	0.0002
581.5839	0.0039
581.7762	0.0045
581.9685	0.0049
582.1608	0.0055
582.353	0.0035
582.5453	0.0054
582.7375	0.0039
582.9298	0.0012
583.122	0.0014
583.3142	0.0102
583.5063	0.0075
583.6985	0.0016
583.8906	-0.0002
584.0827	0.0021
584.2749	0.0005
584.4669	-0.0016
584.659	0.0057
584.8511	0.0066
585.0431	0.0064
585.2352	0.0027
585.4272	0.0062
585.6192	0.0079
585.8111	0.0037
586.0031	0.002
586.195	0.0034
586.387	0.0004
586.5789	0.0049
586.7708	0.0096
586.9627	0.0039
587.1545	0.0043
587.3464	0.0047
587.5382	0.0024
587.73	0.0112
587.9218	0.0026
588.1136	0.0008
588.3053	0.0048
588.4971	0.0041
588.6888	0.0042
588.8805	0.0022
589.0722	0.0135
589.2639	0.001
589.4556	0.0087
589.6472	0.0144
589.8389	0.0082
590.0305	0
590.2221	0.0041
590.4137	0.0029
590.6052	0.0041
590.7968	0.0068
590.9883	0.0077
591.1798	0.0062
591.3713	0.002
591.5628	0.0074
591.7543	0.0036
591.9458	0.003
592.1372	0.0066
592.3286	0.0062
592.52	0.0072
592.7114	0.0012
592.9028	0.0095
593.0941	0.0048
593.2855	0.0026
593.4768	0.0118
593.6681	0.0091
593.8594	0.0053
594.0506	0.0064
594.2419	0.0103
594.4331	0.0082
594.6244	0.0011
594.8156	0.006
595.0067	0.0017
595.1979	0.0027
595.3891	0.0038
595.5802	0.006
595.7713	0.0039
595.9624	0.0083
596.1535	0.0021
596.3446	0.0032
596.5357	0.0091
596.7267	0.006
596.9177	0.0028
597.1087	0.0021
597.2997	0.0056
597.4907	-0.0019
597.6817	0.0066
597.8726	0.0024
598.0635	-0.0016
598.2544	0.0055
598.4453	0.0042
598.6362	0.0015
598.827	0.0063
599.0179	0.0054
599.2087	0.0098
599.3995	0.0095
599.5903	0.0129
599.7811	0.0103
599.9718	0.0026
600.1626	-0.0024
600.3533	-0.0005
600.544	0.0054
600.7347	0.0049
600.9254	0.0122
601.116	0.0071
601.3067	0.0044
601.4973	0.0067
601.6879	0.0028
601.8785	0.0077
602.0691	0.0065
602.2596	0.0093
602.4502	0.0016
602.6407	0.0069
602.8312	0.0034
603.0217	0.0073
603.2122	0.0052
603.4027	0.0079
603.5931	0.0053
603.7835	0.0063
603.9739	0.0022
604.1643	0.0082
604.3547	0.0077
604.5451	0.0077
604.7354	0.0026
604.9257	0.0021
605.116	-0.005
605.3063	0.0062
605.4966	0.0038
605.6869	0.0133
605.8771	0.0078
606.0673	0.0042
606.2575	0.0043
606.4477	0.0063
606.6379	0.0015
606.8281	0.0038
607.0182	0.0065
607.2083	0.0055
607.3985	0.0025
607.5885	0.0094
607.7786	-0.0015
607.9687	0.0146
608.1587	0.0049
608.3488	0.0039
608.5388	0.0023
608.7288	-0.0019
608.9187	0.0022
609.1087	0.0075
609.2986	0.0104
609.4886	0.0023
609.6785	0.0127
609.8684	-0.0009
610.0582	0.0007
610.2481	-0.0039
610.4379	0.0111
610.6278	0.0038
610.8176	0.0117
611.0074	0.0067
611.1971	0.0049
611.3869	0.0075
611.5766	-0.0014
611.7664	0.0106
611.9561	0.0058
612.1458	0.006
612.3354	0.0009
612.5251	0.011
612.7147	0.0114
612.9044	0.0012
613.094	0.0021
613.2836	0.0009
613.4731	0.0076
613.6627	0.0035
613.8522	0.0041
614.0417	0.0017
614.2313	0.0008
614.4207	0.0049
614.6102	0.0063
614.7997	0.0136
614.9891	0.0071
615.1785	0.0003
615.3679	0.0055
615.5573	0.0062
615.7467	0.0018
615.9361	0.008
616.1254	0.0152
616.3147	0.0033
616.504	0.006
616.6933	-0.003
616.8826	-0.0003
617.0718	0.0115
617.2611	0.001
617.4503	-0.002
617.6395	0.0023
617.8287	0.0075
618.0179	0.0053
618.207	0.0059
618.3961	-0.0059
618.5853	0.0034
618.7744	0.0098
618.9634	0.0088
619.1525	0.004
619.3416	-0.0053
619.5306	0.0171
619.7196	0.0069
619.9086	0.0009
620.0976	0.0012
620.2866	0.0068
620.4755	0.0019
620.6645	0.0188
620.8534	0.0105
621.0423	0.0081
621.2312	-0.0005
621.42	-0.0023
621.6089	0.003
621.7977	0.0048
621.9865	0.0061
622.1753	0.001
622.3641	-0.0066
622.5529	0.0033
622.7416	-0.0027
622.9303	0.0024
623.1191	0.0149
623.3078	0.0154
623.4964	0.0072
623.6851	0.0071
623.8737	0.0058
624.0624	-0.0033
624.251	0.0001
624.4396	0.0151
624.6282	0.0095
624.8167	-0.0053
625.0053	0.0112
625.1938	0.003
625.3823	0.0129
625.5708	0.0001
625.7593	0.0012
625.9477	0.0225
626.1362	0.0029
626.3246	0.0092
626.513	0.0057
626.7014	0.0027
626.8898	0.0219
627.0781	0.0018
627.2665	0.0031
627.4548	0.003
627.6431	0.0052
627.8314	0.0215
628.0197	0.0098
628.2079	0.0016
628.3962	0.0017
628.5844	0.0106
628.7726	-0.0041
628.9608	-0.0029
629.1489	0.008
629.3371	-0.0101
629.5252	-0.0007
629.7134	-0.0144
629.9015	0.0169
630.0895	-0.004
630.2776	0.0059
630.4657	0.0071
630.6537	0.0044
630.8417	0.0034
631.0297	-0.0003
631.2177	0.0084
631.4057	0.0062
631.5936	-0.0054
631.7815	0.0033
631.9695	0.0145
632.1574	0.0046
632.3452	0.0063
632.5331	0.0094
632.7209	0.0167
632.9088	-0.0044
633.0966	0.0279
633.2844	0
633.4722	0.0202
633.6599	0.0151
633.8477	0.01
634.0354	0.0033
634.2231	-0.0198
634.4108	-0.0002
634.5985	0.0167
634.7861	0.0038
634.9738	-0.0046
635.1614	0.0058
635.349	-0.0035
635.5366	0.0181
635.7242	0.0016
635.9117	0.015
636.0993	0.016
636.2868	0.0019
636.4743	0.0144
636.6618	-0.0055
636.8492	0.0118
637.0367	0
637.2241	-0.0074
637.4115	0.0137
637.5989	-0.0018
637.7863	0.0166
637.9737	0.0034
638.161	0.0057
638.3484	-0.0162
638.5357	0.0015
638.723	0.0129
638.9103	-0.0075
639.0975	0.0043
639.2848	0.0074
639.472	0.0067
639.6592	-0.0048
639.8464	0.0025
640.0336	0.0042
640.2208	-0.0013
640.4079	-0.001
640.595	-0.0097
640.7821	0.0153
640.9692	-0.0128
641.1563	-0.0018
641.3434	0.0103
641.5304	0.0101
641.7174	0.0123
641.9044	-0.018
642.0914	0.0155
642.2784	-0.0066
642.4653	0.0127
642.6523	0.0022
642.8392	0.0005
643.0261	0.0064
643.213	-0.0057
643.3999	0.0178
643.5867	0.004
643.7735	0.0068
643.9604	0.0104
644.1472	-0.0032
644.3339	-0.0066
644.5207	0.0007
644.7075	0.006
644.8942	-0.0035
645.0809	-0.0049
645.2676	-0.0039
645.4543	0.0044
645.6409	0.013
645.8276	0.0141
646.0142	-0.0096
646.2008	-0.0076
646.3874	-0.0016
646.574	0.0131
646.7605	-0.0042
646.9471	-0.0117
647.1336	-0.017
647.3201	0.0168
647.5066	0.0105
647.6931	0.006
647.8795	0.0096
648.0659	0.0084
648.2524	0.0151
648.4388	-0.0044
648.6252	0.0005
648.8115	-0.0125
648.9979	0.0039
649.1842	-0.0026
649.3705	0.0115
649.5568	-0.0072
649.7431	-0.0036
649.9294	0.0041
650.1156	-0.0276
650.3018	0.0108
650.488	0.008
650.6742	0.0315
650.8604	0.008
651.0466	0.0079
651.2327	-0.003
651.4188	0.0034
651.6049	0.0215
651.791	0.0157
651.9771	0.0094
652.1632	0.0105
652.3492	-0.0047
652.5352	0.0139
652.7212	-0.0027
652.9072	0.0027
653.0932	0.0099
653.2791	0.0113
653.465	0.0032
653.651	-0.0073
653.8369	0.0065
654.0227	0.0045
654.2086	0.011
654.3944	-0.0038
654.5803	0.0048
654.7661	-0.0019
654.9519	-0.0036
655.1377	0.0002
655.3234	0.0002
655.5092	0.0002
655.6949	0.0002
655.8806	0.0002
656.0663	0.0002
656.2519	0.0002
656.4376	0.0002
656.6232	0.0002
656.8088	0.0002
656.9945	0.0002
657.18	0.0002
657.3656	0.0002
657.5511	0.0002
657.7367	0.0002
657.9222	0.0002
658.1077	0.0002
658.2932	0.0002
658.4786	0.0002
658.6641	0.0002
658.8495	0.0002
659.0349	0.0002
659.2203	0.0002
659.4057	0.0002
659.591	0.1487
659.7764	0.0227
659.9617	0.0128
660.147	0.0092
660.3323	0.0061
660.5176	0.0088
660.7028	-0.0089
660.888	0.0069
661.0733	0.0232
661.2585	0
661.4436	0.0049
661.6288	0.0191
661.8139	-0.0047
661.9991	-0.0091
662.1842	-0.007
662.3693	0.0063
662.5544	0.023
662.7394	0.0251
662.9245	0.0019
663.1095	-0.0148
663.2945	-0.0108
663.4795	-0.0121
663.6644	-0.0071
663.8494	0.0026
664.0343	0.0252
664.2193	-0.0116
664.4042	0.019
664.589	0.0255
664.7739	-0.0118
664.9587	-0.0005
665.1436	-0.0019
665.3284	0.012
665.5132	-0.027
665.698	0.0172
665.8827	0.0045
666.0675	-0.0158
666.2522	0.0203
666.4369	-0.0022
666.6216	0.0031
666.8063	-0.001
666.9909	0.001
667.1756	-0.0039
667.3602	0.0123
667.5448	-0.0061
667.7294	0.01
667.9139	0.0035
668.0985	0.0007
668.283	-0.0111
668.4675	-0.0101
668.652	0.0314
668.8365	-0.0036
669.0209	0.0062
669.2054	0.0136
669.3898	-0.0242
669.5742	0.012
669.7586	0.0064
669.943	0.0161
670.1273	0.0003
670.3117	0.0326
670.496	0.0144
670.6803	-0.0124
670.8646	-0.0241
671.0488	0.0263
671.2331	-0.0082
671.4173	0.0109
671.6015	0.0054
671.7857	0.0013
671.9699	0.0049
672.1541	-0.0117
672.3382	-0.0005
672.5223	-0.0023
672.7064	-0.0011
672.8905	0.0151
673.0746	0.0194
673.2587	0.0187
673.4427	0.0122
673.6267	0.017
673.8107	0.0079
673.9947	0.0205
674.1787	0.0068
674.3626	0.0099
674.5465	0.0087
674.7304	-0.0009
674.9143	-0.0013
675.0982	-0.0018
675.2821	-0.0011
675.4659	0.0037
675.6497	0.0086
675.8335	0.0218
676.0173	0.005
676.2011	0
676.3849	-0.0063
676.5686	0.0175
676.7523	0.0007
676.936	0.0057
677.1197	0
677.3034	0.0321
677.487	-0.0002
677.6706	0.0131
677.8542	0.0018
678.0378	-0.0037
678.2214	-0.0111
678.405	-0.0055
678.5885	0.0076
678.772	0.0109
678.9555	-0.0058
679.139	0.0178
679.3225	0.0015
679.5059	0.0037
679.6894	0.0081
679.8728	0.0029
680.0562	0.0093
680.2395	0.0057
680.4229	-0.0015
680.6062	0.0108
680.7896	0.0022
680.9729	0.0185
681.1562	0.0127
681.3394	-0.0067
681.5227	0.0059
681.7059	0.0043
681.8891	0.0054
682.0723	0.0018
682.2555	0.0146
682.4387	-0.0035
682.6218	0.0086
682.805	0.0064
682.9881	0.009
683.1712	-0.0118
683.3542	0.0171
683.5373	-0.0146
683.7203	0.0188
683.9034	-0.0046
684.0864	0.0002
684.2694	0.0034
684.4523	0.0185
684.6353	0.0139
684.8182	-0.0046
685.0011	-0.0031
685.184	0.0045
685.3669	0.0259
685.5498	-0.0011
685.7326	-0.003
685.9154	-0.01
686.0982	0.0088
686.281	0
686.4638	0.0009
686.6465	0.0109
686.8293	0.0019
687.012	0.016
687.1947	0.0214
687.3774	-0.0119
687.56	-0.0019
687.7427	0.0029
687.9253	0.0056
688.1079	-0.0012
688.2905	-0.0086
688.4731	0.0214
688.6556	-0.0028
688.8382	-0.009
689.0207	0.0038
689.2032	0.0176
689.3857	-0.0143
689.5681	0.0112
689.7506	0.0122
689.933	-0.021
690.1154	-0.0025
690.2978	-0.0036
690.4802	0.0131
690.6626	0.0025
690.8449	0.0076
691.0272	-0.0099
691.2095	-0.0275
691.3918	0.0115
691.5741	0.0165
691.7563	-0.0115
691.9386	0.0203
692.1208	0.0042
692.303	-0.0017
692.4852	0.0142
692.6673	0.0092
692.8495	-0.0186
693.0316	0.0017
693.2137	0.0046
693.3958	0.0016
693.5778	0.0186
693.7599	-0.0101
693.9419	-0.0109
694.1239	-0.0007
694.3059	0.021
694.4879	-0.012
694.6699	-0.0031
694.8518	0.0109
695.0337	0.0203
695.2157	0.0215
695.3975	0.0016
695.5794	-0.0121
695.7613	0.0032
695.9431	-0.0219
696.1249	0.0205
696.3067	-0.0151
696.4885	0.0112
696.6703	-0.0002
696.852	-0.0075
697.0337	0.0243
697.2154	0.0052
697.3971	0.0059
697.5788	-0.0022
697.7605	-0.0002
697.9421	0.0214
698.1237	0.0032
698.3053	0.0168
698.4869	0.0108
698.6685	-0.0198
698.85	0.0265
699.0315	-0.0156
699.213	0.0074
699.3945	-0.012
699.576	0.0291
699.7575	0.016
699.9389	-0.0333
700.1203	0.0016
700.3017	0
700.4831	0.0336
700.6645	0.0208
700.8458	-0.0306
701.0271	0.0252
701.2084	-0.0004
701.3897	-0.0059
701.571	-0.0264
701.7523	-0.0192
701.9335	0.0226
702.1147	0.0223
702.2959	-0.0024
702.4771	0.0127
702.6583	-0.0012
702.8394	-0.0281
703.0205	0.0182
703.2016	0.0069
703.3827	-0.0076
703.5638	0.0119
703.7449	-0.0022
703.9259	-0.01
704.1069	-0.0008
704.2879	0.0055
704.4689	0.0062
704.6499	0.0135
704.8308	-0.005
705.0117	0.0514
705.1927	-0.0145
705.3735	0.0212
705.5544	0.0274
705.7353	-0.0079
705.9161	-0.0254
706.0969	0.0228
706.2777	0.014
706.4585	-0.0019
706.6393	0.0075
706.82	0.0142
707.0007	-0.0006
707.1815	0.0018
707.3621	0.0309
707.5428	0.0142
707.7235	-0.0122
707.9041	-0.0023
708.0847	-0.0188
708.2653	0.0345
708.4459	0.0173
708.6265	-0.0184
708.807	-0.0075
708.9875	-0.0172
709.168	-0.007
709.3485	-0.0017
709.529	0.0032
709.7095	-0.0115
709.8899	0.0126
710.0703	0.0097
710.2507	0
710.4311	-0.0075
710.6115	0.0239
710.7918	-0.0006
710.9721	0.0084
711.1524	-0.0051
711.3327	-0.0143
711.513	0.0122
711.6932	0.009
711.8735	0.0208
712.0537	-0.0116
712.2339	0.0025
712.4141	0.0164
712.5942	-0.0272
712.7744	0.0182
712.9545	0.011
713.1346	0.0216
713.3147	0.0273
713.4947	-0.0114
713.6748	0.0067
713.8548	0.0146
714.0348	0.0105
714.2148	0.0122
714.3948	0.0259
714.5748	0.0109
714.7547	0.027
714.9346	0.0206
715.1145	-0.0085
715.2944	-0.0293
715.4743	0.0096
715.6541	-0.0085
715.834	0.0164
716.0138	0.0106
716.1936	0.0022
716.3733	-0.0094
716.5531	0.0027
716.7328	0.0487
716.9126	-0.004
717.0923	-0.0069
717.2719	-0.0013
717.4516	0.0265
717.6312	-0.0151
717.8109	0.0209
717.9905	0.0178
718.1701	0.0176
718.3496	0.0322
718.5292	-0.0033
718.7087	0.0079
718.8882	0.0261
719.0677	0.0074
719.2472	0.0088
719.4267	-0.0174
719.6061	-0.0155
719.7856	0.0278
719.965	0.0137
720.1443	-0.0042
720.3237	-0.0058
720.5031	-0.0015
720.6824	0
720.8617	0
721.041	0.0111
721.2203	0.0004
721.3995	-0.0015
721.5788	-0.0066
721.758	-0.0191
721.9372	0.0106
722.1164	-0.0188
722.2956	-0.0039
722.4747	0.0327
722.6538	0.0085
722.8329	0.0363
723.012	-0.0025
723.1911	-0.0067
723.3702	0.0288
723.5492	0.0026
723.7282	-0.0021
723.9072	0.0169
724.0862	0.0014
724.2652	0.0149
724.4441	-0.0044
724.623	0
724.8019	-0.0049
724.9808	0.0125
725.1597	0.0252
725.3385	0.0031
725.5174	0.0127
725.6962	-0.0023
725.875	-0.0114
726.0538	0.0456
726.2325	0.0118
726.4112	-0.0077
726.59	0.0035
726.7687	-0.0134
726.9474	0.0263
727.126	0.0092
727.3047	-0.0039
727.4833	0.0111
727.6619	-0.0028
727.8405	-0.002
728.0191	0.0056
728.1976	0.0122
728.3762	0.0217
728.5547	-0.0036
728.7332	0.0137
728.9116	0
729.0901	-0.0133
729.2686	0.007
729.447	0.0103
729.6254	0.0025
729.8038	0.008
729.9821	-0.0096
730.1605	0.0083
730.3388	0.0061
730.5171	0.0277
730.6954	-0.0172
730.8737	-0.0026
731.0519	0.0005
731.2302	0.0212
731.4084	-0.0047
731.5866	0.0144
731.7648	0.0045
731.9429	0.0094
732.1211	0.0105
732.2992	0.0076
732.4773	0.006
732.6554	-0.0226
732.8335	0.0397
733.0115	0.02
733.1896	-0.0069
733.3676	0.0146
733.5456	0.0092
733.7235	-0.0105
733.9015	0.0083
734.0794	-0.0032
734.2574	-0.0188
734.4353	0.0175
734.6131	0.0031
734.791	0.01
734.9689	-0.0248
735.1467	-0.0044
735.3245	0.0172
735.5023	0.0093
735.68	-0.0097
735.8578	0.026
736.0355	0.004
736.2132	-0.0047
736.3909	0.0102
736.5686	-0.0181
736.7463	0.0014
736.9239	0.0124
737.1015	-0.0009
737.2791	0.0077
737.4567	0.0146
737.6343	-0.0088
737.8118	0.0314
737.9894	-0.0031
738.1669	-0.0046
738.3444	0.0284
738.5218	-0.0103
738.6993	0.0152
738.8767	0
739.0541	0.0065
739.2315	0.0013
739.4089	0.0128
739.5863	0.0178
739.7636	-0.0162
739.9409	0
740.1182	0.009
740.2955	0.0138
740.4728	-0.0211
740.65	-0.02
740.8272	0.0005
741.0044	-0.0206
741.1816	0.0519
741.3588	-0.0241
741.5359	0.0036
741.7131	0.0195
741.8902	-0.0206
742.0673	-0.0162
742.2444	0.0313
742.4214	0.0178
742.5985	-0.0227
742.7755	0.0066
742.9525	-0.0355
743.1295	-0.023
743.3064	-0.0152
743.4834	-0.0029
743.6603	0.0427
743.8372	-0.0202
744.0141	0.0246
744.191	0.0211
744.3678	-0.0378
744.5446	0.0156
744.7215	-0.0039
744.8982	0.0145
745.075	0.0367
745.2518	-0.0246
745.4285	0.0461
745.6052	-0.0604
745.7819	0.0085
745.9586	0.0251
746.1353	-0.0394
746.3119	-0.0175
746.4885	0.0329
746.6651	0.0031
746.8417	-0.0016
747.0183	0.0313
747.1948	-0.0017
747.3714	-0.0147
747.5479	0.0197
747.7244	-0.0225
747.9008	0
748.0773	0.0417
748.2537	-0.0033
748.4301	0.0179
748.6065	-0.0168
748.7829	-0.0143
748.9593	-0.0015
749.1356	0.0291
749.3119	-0.0063
749.4882	0.0286
749.6645	0.0188
749.8408	-0.0021
750.017	0.0187
750.1933	-0.007
750.3695	0.0046
750.5457	-0.0143
750.7218	0.0023
750.898	-0.0106
751.0741	-0.0057
751.2502	0.0147
751.4263	0.0067
751.6024	-0.0038
751.7784	0.0082
751.9545	-0.013
752.1305	0.0225
752.3065	-0.0111
752.4825	-0.0126
752.6584	0.0135
752.8344	0.0101
753.0103	-0.0221
753.1862	0.0116
753.3621	-0.0003
753.5379	0.0027
753.7138	0.0208
753.8896	-0.0052
754.0654	-0.0047
754.2412	0.0235
754.417	0.013
754.5927	0.0072
754.7685	0.0029
754.9442	0.0111
755.1199	0.0109
755.2956	0.0066
755.4712	0.0015
755.6469	0.0191
755.8225	0.0085
755.9981	-0.0013
756.1736	-0.018
756.3492	0.0151
756.5248	0.023
756.7003	-0.0041
756.8758	0.0009
757.0513	0.0096
757.2267	0.0144
757.4022	-0.0016
757.5776	0.0115
757.753	0.0208
757.9284	0.0223
758.1038	0.0044
758.2791	0.0112
758.4545	-0.015
758.6298	0.0011
758.8051	0.0053
758.9803	0.0128
759.1556	0.0018
759.3308	0.0105
759.506	0.0029
759.6812	0.0037
759.8564	-0.0069
760.0316	0.0002
760.2067	0.0177
760.3819	0.0059
760.557	-0.004
760.732	0.0147
760.9071	0.0126
761.0821	0.0013
761.2572	0.0189
761.4322	-0.005
761.6072	0.0079
761.7821	-0.0297
761.9571	0.0105
762.132	0.014
762.3069	0.0212
762.4818	0.0291
762.6567	-0.0094
762.8316	0.0109
763.0064	0.0322
763.1812	0.0014
763.356	-0.0024
763.5308	0.0049
763.7055	-0.0068
763.8803	-0.0119
764.055	-0.0251
764.2297	-0.0132
764.4044	0.0128
764.579	-0.0052
764.7537	0.0155
764.9283	0.0021
765.1029	0.0134
765.2775	0.0039
765.4521	-0.0092
765.6266	0.0079
765.8011	-0.011
765.9756	0.0139
766.1501	0.0051
766.3246	0.0204
766.4991	0.0112
766.6735	0.0572
766.8479	0.0208
767.0223	0.0139
767.1967	-0.005
767.371	0.0168
767.5454	0.0346
767.7197	0.0208
767.894	-0.0107
768.0683	0.0044
768.2425	0.0089
768.4168	-0.0026
768.591	0.0039
768.7652	-0.0173
768.9394	-0.0458
769.1135	-0.0004
769.2877	0.0166
769.4618	0.0124
769.6359	-0.0095
769.81	0.0042
769.984	-0.0184
770.1581	-0.0103
770.3321	0.0313
770.5061	-0.0247
770.6801	0.0167
770.8541	0.0066
771.028	0.0212
771.202	0.0279
771.3759	0.0074
771.5498	0.0149
771.7236	0.01
771.8975	0.012
772.0713	0.0079
772.2451	-0.0143
772.4189	-0.0048
772.5927	-0.0499
772.7665	-0.0044
772.9402	0.0243
773.1139	-0.0425
773.2876	-0.0209
773.4613	0.0298
773.635	0.042
773.8086	0.025
773.9822	0.0429
774.1558	0.0243
774.3294	-0.0107
774.503	0.0243
774.6765	0.034
774.8501	-0.0147
775.0236	0.0036
775.1971	-0.0053
775.3705	0.024
775.544	-0.0537
775.7174	-0.008
775.8908	0.0355
776.0642	0.0281
776.2376	0.0503
776.4109	0.0558
776.5843	0.0254
776.7576	0.0103
776.9309	0.0059
777.1041	-0.0216
777.2774	-0.0326
777.4506	-0.0167
777.6238	-0.0213
777.797	0.0322
777.9702	-0.0116
778.1434	0.0281
778.3165	-0.0163
778.4896	-0.0292
778.6627	0.0277
778.8358	-0.0057
779.0089	-0.0047
779.1819	0.026
779.3549	0
779.5279	0.0092
779.7009	0.0792
779.8739	0.0856
780.0468	0.0043
780.2197	0.024
780.3926	0.0133
780.5655	0.0359
780.7384	0.0057
780.9112	0.0202
781.0841	-0.0027
781.2569	0.0037
781.4297	0.0172
781.6024	0.012
781.7752	0.0369
781.9479	0.0537
782.1206	-0.0073
782.2933	0.0098
782.466	0.0119
782.6386	-0.0068
782.8113	-0.0176
782.9839	0.0101
783.1565	0.0267
783.329	0.01
783.5016	-0.0034
783.6741	-0.0138
783.8466	0.0077
784.0191	0.0056
784.1916	-0.0222
784.3641	-0.0314
784.5365	0.0008
784.7089	-0.0008
784.8813	0.041
785.0537	-0.0174
785.2261	-0.0202
785.3984	-0.0047
785.5707	-0.0271
785.743	0.0094
785.9153	0.0083
786.0876	-0.0067
786.2598	0.0068
786.432	0.0269
786.6042	0.0273
786.7764	-0.0063
786.9486	-0.0149
787.1207	0.0183
787.2928	0.0067
787.4649	-0.0353
787.637	0.0078
787.8091	0.0424
787.9811	0.0198
788.1532	-0.014
788.3252	0.0118
788.4972	-0.0016
788.6691	0.0006
788.8411	-0.0083
789.013	-0.0086
789.1849	0.0022
789.3568	0.0104
789.5287	0.0611
789.7005	-0.0574
789.8723	-0.0561
790.0442	-0.0232
790.2159	0.0011
790.3877	0.01
790.5595	0.0106
790.7312	0.0122
790.9029	-0.007
791.0746	-0.0209
791.2463	-0.0606
791.4179	-0.0392
791.5896	-0.0135
791.7612	0.08
791.9328	-0.0392
792.1044	-0.0111
792.2759	-0.0252
792.4474	-0.0148
792.619	0.0246
792.7905	-0.0044
792.9619	0.0806
793.1334	0.0224
793.3048	0.0649
793.4762	0.0216
793.6476	-0.0363
793.819	-0.0013
793.9904	-0.0125
794.1617	-0.0146
794.333	-0.0017
794.5043	0.0224
794.6756	-0.0005
794.8469	-0.0132
795.0181	-0.0018
795.1893	0.0032
795.3605	0.0112
795.5317	0.0113
795.7029	-0.0393
795.874	0.0048
796.0452	0.0693
796.2163	0.077
796.3873	0.0952
796.5584	-0.0094
796.7294	0.0137
796.9005	0.0839
797.0715	-0.0683
797.2425	0.0893
797.4134	0.1224
797.5844	0.0626
797.7553	-0.0397
797.9262	0.0352
798.0971	0.0043
798.2679	0.0515
798.4388	0.0604
798.6096	-0.0263
798.7804	0.0278
798.9512	0.0328
799.122	-0.0284
799.2927	0.073
799.4635	0.0046
799.6342	-0.0149
799.8049	0.0283
799.9755	0.005
800.1462	0.0283
800.3168	0.0473
800.4874	-0.1414
800.658	0.1088
800.8286	-0.0916
800.9991	0.0735
801.1696	0.021
801.3402	-0.0252
801.5106	0.0023
801.6811	-0.0121
801.8516	0.0656
802.022	0.0234
802.1924	0.0129
802.3628	0.0348
802.5332	0.1174
802.7035	0.0685
802.8739	-0.0779
803.0442	-0.0408
803.2145	0.0578
803.3847	0.0356
803.555	0.0367
803.7252	-0.0453
803.8954	-0.03
804.0656	-0.0248
804.2358	-0.0089
804.4059	0.1047
804.5761	0.0377
804.7462	0.0054
804.9163	0.0294
805.0864	-0.0268
805.2564	-0.0776
805.4264	-0.0612
805.5965	0.0353
805.7665	0.0518
805.9364	-0.0413
806.1064	0.0024
806.2763	0.0585
806.4462	0.0238
806.6161	0.0328
806.786	0.0453
806.9559	0.02
807.1257	-0.0265
807.2955	0.0464
807.4653	-0.0035
807.6351	0.015
807.8048	0.0239
807.9746	0.035
808.1443	-0.0286
808.314	0.0254
808.4837	0.0898
808.6533	-0.0373
808.8229	0.0407
808.9926	0.066
809.1622	0.0839
809.3317	0.0267
809.5013	-0.0482
809.6708	-0.0015
809.8403	-0.0502
810.0098	0.0756
810.1793	0.068
810.3488	-0.0018
810.5182	0.0846
810.6876	0.0625
810.857	0.116
811.0264	0.0566
811.1958	0.149
811.3651	0.0553
811.5344	0.0147
811.7037	0.1263
811.873	0.0155
812.0422	-0.1102
812.2115	0.0791
812.3807	-0.1609
812.5499	0.0674
812.7191	-0.0119
812.8882	-0.0718
813.0574	-0.0101
813.2265	0.0283
813.3956	0.015
813.5646	-0.0241
813.7337	0.1004
813.9027	-0.0853
814.0718	0.082
814.2407	0.0099
814.4097	0.0938
814.5787	0.1199
814.7476	0.0334
814.9165	0.1041
815.0854	-0.0344
815.2543	0.0267
815.4232	0.1685
815.592	0.1019
815.7608	-0.0905
815.9296	-0.0398
816.0984	0.2257
816.2671	-0.0696
816.4359	0.2154
816.6046	-0.0118
816.7733	-0.0031
816.942	-0.0406
817.1106	0.0723
817.2793	-0.069
817.4479	0.0269
817.6165	0.0475
817.785	0.14
817.9536	-0.1167
818.1221	-0.0039
818.2906	-0.1268
818.4591	0.0253
818.6276	0.0895
818.7961	0.0544
818.9645	0.1163
819.1329	0.1149
819.3013	-0.0912
819.4697	0.1049
819.638	0.1127
819.8064	0.1335
819.9747	-0.0252
820.143	-0.034
820.3113	0.0362
820.4795	0.1404
820.6477	0.0142
820.816	0.0428
820.9842	0.1181
821.1523	-0.018
821.3205	0.0042
821.4886	-0.008
821.6567	0.0224
821.8248	0.1511
821.9929	-0.2246
822.1609	-0.0097
822.329	-0.0284
822.497	0.0334
822.665	0.0856
822.833	0.0315
823.0009	0.0565
823.1688	0.2015
823.3367	-0.0366
823.5046	0.1329
823.6725	-0.055
823.8404	0.3948
824.0082	0.0985
824.176	0.1212
824.3438	0.1497
824.5116	-0.0813
824.6793	0.122
824.847	-0.0982
825.0147	0.1975
825.1824	0.2221
825.3501	-0.0192
825.5177	-0.0134
825.6854	-0.0516
825.853	-0.0365
826.0206	-0.0786
826.1881	0.2614
826.3557	0.095
826.5232	0.1795
826.6907	0.037
826.8582	-0.052
827.0257	0.1855
827.1931	0.2175
827.3605	0.012
827.528	0.0442
827.6953	-0.1731
827.8627	-0.0766
828.03	0.1173
828.1974	-0.0382
828.3647	0.1357
828.532	-0.0246
828.6992	0.0235
828.8665	-0.1163
829.0337	0.1309
829.2009	0.087
829.3681	-0.0392
829.5352	-0.3501
829.7024	0.609
829.8695	0.187
830.0366	0.1541
830.2037	0.177
830.3707	0.0598
830.5378	-0.1238
830.7048	-0.2034
830.8718	0.3741
831.0388	0.0279
831.2057	-0
831.3727	0.2039
831.5396	0.3556
831.7065	-0
831.8734	0.0905
832.0402	0.2696
832.2071	-0.6805
832.3739	-0.1452
832.5407	-1.9287
832.7075	-0.4238
832.8742	-0
833.041	-0.1076
833.2077	0.2184
833.3744	0.1795
833.541	0.2766
833.7077	0.1568
833.8743	-0.008
834.0409	0.0248
834.2075	0.275
834.3741	-0.2379
834.5407	-0.0538
834.7072	0.1089
834.8737	0.1718
835.0402	-0
835.2067	0.0571
835.3731	0.203
835.5395	0.027
835.706	-0.1596
835.8723	-0.1687
836.0387	0.0905
836.2051	0.5387
836.3714	0.2783
836.5377	0.0425
836.704	0.244
836.8703	-0.2985
837.0365	-0.1808
837.2027	0.9241
837.3689	0.1228
837.5351	0.5064
837.7013	-0.1496
837.8674	0.4793
838.0335	-0.1552
838.1997	0.3575
838.3657	-0
838.5318	-0.4625
838.6978	-0
838.8639	-0.1374
839.0299	-0.1988
839.1958	0.0594
839.3618	0.0897
839.5277	0.2984
839.6937	-0.0485
839.8596	0.0461
840.0254	0.0179
840.1913	-0.2478
840.3571	-0.215
840.523	-0
840.6888	0.1454
840.8545	-0.2253
841.0203	0.2441
841.186	0.456
841.3517	-0.0601
841.5174	0.0389
841.6831	1.1702
841.8488	0.2732
842.0144	0.3374
842.18	-0
842.3456	-0.4121
842.5112	-0
842.6767	-0.078
842.8422	-0.1566
843.0077	-0.0129
843.1732	-0.4536
843.3387	-0.0493
843.5042	-0
843.6696	0.085
843.835	0.1678
844.0004	-0.0654
844.1657	-0
844.3311	-0.1398
844.4964	-0.6166
844.6617	0.0308
844.827	0.7964
844.9923	0.1926
845.1575	0.5288
845.3227	1.6351
845.4879	-0.2768
845.6531	0.0008
845.8183	0.1524
845.9834	0.5178
846.1485	0.8252
846.3136	-0.1196
846.4787	-0
846.6438	-0
846.8088	-0
846.9738	-0
847.1388	0.0005
847.3038	-0.0885
847.4687	0.8063
847.6337	-0.2654
847.7986	0.0462
847.9635	-0.1437
848.1284	-0
848.2932	0.3056
848.458	-0
848.6228	-0.0651
848.7876	1.0119
848.9524	-0.4954
849.1172	-1.8307
849.2819	-0
849.4466	1.1144
849.6113	0.5387
849.7759	-0.2088
849.9406	-0.1127
850.1052	-1.6784
850.2698	0.2198
850.4344	-0.7382
850.599	0.8462
850.7635	0.8911
850.928	-0
851.0925	0.0791
851.257	0.4918
851.4215	0.5561
851.5859	0.1019
851.7503	-0
851.9147	-0
852.0791	0.2342
852.2434	0.662
852.4078	-0
852.5721	0.345
852.7364	0.4886
852.9007	-0.1404
853.0649	-0
853.2291	0.316
853.3934	0.6596
853.5575	0.05
853.7217	0.9603
853.8859	-0.4597
854.05	-0.0873
854.2141	-0.0669
854.3782	-0
854.5423	-0.0221
854.7063	0.0502
854.8703	0.6634
855.0343	0.1538
855.1983	-0.0069
855.3623	0.0545
855.5262	-0.1172
855.6901	-0
855.854	0.0779
856.0179	-0
856.1818	0.297
856.3456	0.5534
856.5094	-0.7609
856.6732	-0.2857
856.837	-0.7182
857.0008	-0
857.1645	-0
857.3282	-0.1033
857.4919	-0.0578
857.6556	-0
857.8192	0.0235
857.9828	-0.0316
858.1465	-0.0241
858.31	-0
858.4736	-0.6107
858.6372	0.1388
858.8007	0.2488
858.9642	0.2818
859.1277	0.7141
859.2911	-0.6169
859.4546	-0
859.618	0.486
859.7814	-0.4236
859.9448	-0
860.1081	-0.4904
860.2715	-0
860.4348	0.137
860.5981	-0
860.7614	-0
860.9246	0.0011
861.0879	0.3192
861.2511	-0
861.4143	-0
861.5774	0.0385
861.7406	0.1438
861.9037	-0.0792
862.0668	-0
862.2299	0.4349
862.393	-0.1739
862.556	-0.0331
862.7191	0.5394
862.8821	0.2475
863.0451	-0
863.208	-0.2894
863.371	-0.6286
863.5339	0.322
863.6968	-0
863.8597	-0.0248
864.0225	-0
864.1854	-0.0491
864.3482	-1.4235
864.511	0.1052
864.6737	0.5836
864.8365	0.4779
864.9992	-0
865.1619	-0.1191
865.3246	-1.8035
865.4873	-0.575
865.65	-0
865.8126	-0
865.9752	-0.2951
866.1378	0.0176
866.3004	0.6432
866.4629	-1.6573
866.6254	-0.3427
866.7879	-0.1413
866.9504	-0.4942
867.1129	0.2888
867.2753	0.2264
867.4377	-0
867.6001	-0.5732
867.7625	-0
867.9249	1.6548
868.0872	0.3258
868.2495	-0
868.4118	-0
868.5741	-0
868.7363	-0
868.8986	-0.3866
869.0608	-0.6038
869.223	1.434
869.3851	-0
869.5473	0.0183
869.7094	0.3077
869.8715	-1.1741
870.0336	0.2334
870.1957	-0.5633
870.3577	0.7238
870.5197	0.1799
870.6817	-0.8673
870.8437	-0.0487
871.0057	-0
871.1676	0.5763
871.3295	-0
871.4914	-0
871.6533	-0.2956
871.8151	-0
871.977	-0
872.1388	0.2707
872.3006	0.4466
872.4623	-0.5526
872.6241	0.0235
872.7858	0.8323
872.9475	-0
873.1092	0.2667
873.2709	-0
873.4325	-1.7039
873.5941	-0.0066
873.7557	0.596
873.9173	-0
874.0789	0.2427
874.2404	-0
874.4019	-0.0501
874.5634	-0
874.7249	-0
874.8863	0.0796
875.0478	0.3227
875.2092	-0
875.3706	0.1648
875.5319	-0
875.6933	-0
875.8546	0.6198
876.0159	0.692
876.1772	-0
876.3385	1.8523
876.4997	-0
876.6609	-0
876.8221	-0
876.9833	0.0605
877.1445	0.8262
877.3056	-0.5655
877.4667	-0.7564
877.6278	-0
877.7889	-0.0189
877.9499	-0
878.111	0.6198
878.272	-0
878.433	-0
878.5939	-0
878.7549	-0
878.9158	-0
879.0767	-0
879.2376	-0
879.3984	1.1146
879.5593	-0
879.7201	-1.5458
879.8809	-0
880.0417	-0.0301
880.2024	0.5805
880.3632	-0.2883
880.5239	0.0152
880.6846	-0
880.8452	0.1348
881.0059	-0
881.1665	-0.0114
881.3271	0.262
881.4877	0.2721
881.6483	-1.347
881.8088	-0
881.9693	-0.7238
882.1298	-0.7238
882.2903	-0.7238
