Data from D4ACN5uM440nmA_Absorbance_13-50-25-042.txt Node
Date: Fri Feb 21 13:50:25 GMT 2025
User: LASERRRRR
Spectrometer: FLMT03099
Trigger mode: 0
Integration Time (sec): 1.500000E-2
Scans to average: 1
Electric dark correction enabled: true
Nonlinearity correction enabled: false
Boxcar width: 0
XAxis mode: Wavelengths
Number of Pixels in Spectrum: 3648
>>>>>Begin Spectral Data<<<<<
179.3399	-0
179.5586	-0
179.7771	-0
179.9957	0.116
180.2143	-0
180.4329	0.2454
180.6514	-0
180.8699	-0
181.0885	-0.1579
181.307	0.0833
181.5255	0.2068
181.744	0.1379
181.9625	0.4095
182.181	-0.2508
182.3994	-0.5711
182.6179	-0
182.8363	-0
183.0547	-0
183.2732	0.0686
183.4916	1.6018
183.71	0.2027
183.9284	0.0707
184.1467	0.0246
184.3651	0.0227
184.5835	0.3463
184.8018	0.3272
185.0201	0.0686
185.2385	0.5584
185.4568	0.0711
185.6751	0.0593
185.8934	0.3963
186.1117	-0.0681
186.3299	0.179
186.5482	0.3306
186.7664	0.1801
186.9847	0.0605
187.2029	0.1453
187.4211	0.2894
187.6393	0.3197
187.8575	0.5695
188.0757	0.2489
188.2939	0.1798
188.512	0.4206
188.7302	0.1917
188.9483	0.3663
189.1665	0.4206
189.3846	0.1857
189.6027	0.1537
189.8208	0.3237
190.0389	0.3116
190.257	0.1347
190.475	0.2358
190.6931	0.2101
190.9111	0.7743
191.1292	0.22
191.3472	0.125
191.5652	1.7293
191.7832	0.2698
192.0012	0.1386
192.2192	0.2723
192.4371	0.1554
192.6551	0.2199
192.873	0.1587
193.091	0.3565
193.3089	0.3092
193.5268	0.3589
193.7447	0.1464
193.9626	0.2524
194.1805	0.2543
194.3984	0.1503
194.6162	0.3019
194.8341	0.2435
195.0519	0.2827
195.2697	0.2306
195.4875	0.335
195.7054	0.3571
195.9231	0.3331
196.1409	0.255
196.3587	0.328
196.5765	0.285
196.7942	0.4054
197.012	0.3704
197.2297	0.3588
197.4474	0.4336
197.6651	0.3916
197.8828	0.4098
198.1005	0.4801
198.3182	0.4059
198.5358	0.4439
198.7535	0.3694
198.9711	0.4348
199.1888	0.3934
199.4064	0.3801
199.624	0.4592
199.8416	0.4087
200.0592	0.3959
200.2767	0.4325
200.4943	0.4679
200.7119	0.4429
200.9294	0.4426
201.1469	0.4363
201.3645	0.4931
201.582	0.4655
201.7995	0.4589
202.017	0.4411
202.2344	0.4546
202.4519	0.3909
202.6694	0.4264
202.8868	0.4045
203.1042	0.4107
203.3217	0.381
203.5391	0.3848
203.7565	0.3848
203.9739	0.3913
204.1913	0.3756
204.4086	0.3618
204.626	0.3799
204.8433	0.36
205.0607	0.3701
205.278	0.3657
205.4953	0.3742
205.7126	0.3467
205.9299	0.3492
206.1472	0.3265
206.3644	0.3623
206.5817	0.3498
206.7989	0.3324
207.0162	0.3223
207.2334	0.3372
207.4506	0.2784
207.6678	0.33
207.885	0.296
208.1022	0.3235
208.3194	0.3204
208.5365	0.3334
208.7537	0.2946
208.9708	0.3068
209.1879	0.3188
209.405	0.2752
209.6222	0.2735
209.8392	0.303
210.0563	0.2798
210.2734	0.2635
210.4905	0.2736
210.7075	0.2989
210.9245	0.2663
211.1416	0.2934
211.3586	0.258
211.5756	0.2468
211.7926	0.2818
212.0096	0.2802
212.2265	0.2633
212.4435	0.2501
212.6604	0.2539
212.8774	0.264
213.0943	0.2466
213.3112	0.2645
213.5281	0.2445
213.745	0.2338
213.9619	0.2414
214.1788	0.2679
214.3956	0.2526
214.6125	0.2599
214.8293	0.2443
215.0461	0.2413
215.2629	0.2485
215.4798	0.2408
215.6965	0.2508
215.9133	0.256
216.1301	0.2569
216.3469	0.2474
216.5636	0.2571
216.7803	0.2529
216.9971	0.2557
217.2138	0.2569
217.4305	0.2513
217.6472	0.241
217.8639	0.2472
218.0805	0.2541
218.2972	0.2545
218.5138	0.2567
218.7305	0.2585
218.9471	0.2605
219.1637	0.2733
219.3803	0.2611
219.5969	0.2745
219.8135	0.2667
220.0301	0.2754
220.2466	0.2661
220.4632	0.257
220.6797	0.2704
220.8962	0.2584
221.1127	0.2746
221.3292	0.2618
221.5457	0.2782
221.7622	0.2713
221.9787	0.2889
222.1951	0.28
222.4116	0.2795
222.628	0.2876
222.8444	0.2786
223.0608	0.2948
223.2772	0.2779
223.4936	0.2813
223.71	0.2957
223.9264	0.2831
224.1427	0.2816
224.3591	0.2927
224.5754	0.2912
224.7917	0.3045
225.008	0.2938
225.2243	0.2943
225.4406	0.2908
225.6569	0.3093
225.8732	0.3164
226.0894	0.3084
226.3057	0.3137
226.5219	0.3129
226.7381	0.3121
226.9543	0.3172
227.1705	0.3164
227.3867	0.314
227.6029	0.328
227.8191	0.3336
228.0352	0.3433
228.2513	0.3462
228.4675	0.3345
228.6836	0.3417
228.8997	0.3375
229.1158	0.3472
229.3319	0.3649
229.548	0.3565
229.764	0.3576
229.9801	0.3704
230.1961	0.3581
230.4121	0.3552
230.6282	0.3885
230.8442	0.3825
231.0602	0.3863
231.2761	0.3874
231.4921	0.4022
231.7081	0.3911
231.924	0.3999
232.14	0.4094
232.3559	0.3939
232.5718	0.4081
232.7877	0.4113
233.0036	0.4059
233.2195	0.4134
233.4353	0.422
233.6512	0.4171
233.867	0.427
234.0829	0.4246
234.2987	0.4212
234.5145	0.4292
234.7303	0.4368
234.9461	0.4406
235.1619	0.441
235.3776	0.4303
235.5934	0.4244
235.8091	0.4325
236.0249	0.4447
236.2406	0.4416
236.4563	0.4457
236.672	0.4519
236.8877	0.4547
237.1034	0.4405
237.319	0.4512
237.5347	0.4465
237.7503	0.4483
237.966	0.4612
238.1816	0.4649
238.3972	0.4419
238.6128	0.4729
238.8284	0.4674
239.0439	0.4625
239.2595	0.4547
239.475	0.4649
239.6906	0.4536
239.9061	0.4695
240.1216	0.4584
240.3371	0.4617
240.5526	0.4662
240.7681	0.4638
240.9836	0.4668
241.199	0.4621
241.4145	0.4399
241.6299	0.4523
241.8453	0.4456
242.0607	0.4373
242.2761	0.4355
242.4915	0.4204
242.7069	0.4158
242.9223	0.4163
243.1376	0.4061
243.353	0.408
243.5683	0.3958
243.7836	0.3867
243.9989	0.3752
244.2142	0.3757
244.4295	0.3747
244.6448	0.3634
244.86	0.3547
245.0753	0.3446
245.2905	0.3428
245.5057	0.3352
245.721	0.3329
245.9362	0.3244
246.1514	0.3171
246.3665	0.3085
246.5817	0.3006
246.7969	0.2943
247.012	0.2921
247.2271	0.2938
247.4423	0.2878
247.6574	0.282
247.8725	0.2713
248.0876	0.267
248.3026	0.2743
248.5177	0.2581
248.7328	0.2559
248.9478	0.2529
249.1628	0.2513
249.3779	0.2415
249.5929	0.2337
249.8079	0.2325
250.0228	0.2304
250.2378	0.2362
250.4528	0.2259
250.6677	0.226
250.8827	0.2127
251.0976	0.2105
251.3125	0.215
251.5274	0.209
251.7423	0.2111
251.9572	0.2112
252.172	0.2056
252.3869	0.2046
252.6017	0.1988
252.8166	0.2044
253.0314	0.1971
253.2462	0.1971
253.461	0.2014
253.6758	0.1939
253.8906	0.1968
254.1053	0.1941
254.3201	0.1941
254.5348	0.1825
254.7496	0.1821
254.9643	0.1916
255.179	0.1838
255.3937	0.188
255.6083	0.1934
255.823	0.1901
256.0377	0.1822
256.2523	0.1828
256.467	0.1812
256.6816	0.1846
256.8962	0.1769
257.1108	0.1809
257.3254	0.181
257.54	0.1797
257.7545	0.1889
257.9691	0.182
258.1836	0.1704
258.3981	0.1824
258.6127	0.1719
258.8272	0.1822
259.0417	0.1687
259.2561	0.1747
259.4706	0.1749
259.6851	0.181
259.8995	0.1782
260.114	0.1771
260.3284	0.1768
260.5428	0.1867
260.7572	0.1801
260.9716	0.1822
261.186	0.1738
261.4003	0.1699
261.6147	0.1762
261.829	0.1787
262.0433	0.1769
262.2577	0.1782
262.472	0.1803
262.6863	0.182
262.9005	0.176
263.1148	0.1707
263.3291	0.1783
263.5433	0.1787
263.7576	0.1821
263.9718	0.1819
264.186	0.1815
264.4002	0.1838
264.6144	0.1898
264.8286	0.1799
265.0427	0.1838
265.2569	0.1794
265.471	0.178
265.6851	0.1793
265.8993	0.1775
266.1134	0.178
266.3275	0.1802
266.5415	0.175
266.7556	0.1825
266.9697	0.1792
267.1837	0.1795
267.3978	0.1801
267.6118	0.1757
267.8258	0.1835
268.0398	0.1844
268.2538	0.1842
268.4677	0.1754
268.6817	0.1777
268.8957	0.1693
269.1096	0.1725
269.3235	0.1805
269.5374	0.1816
269.7514	0.174
269.9652	0.1716
270.1791	0.1675
270.393	0.1759
270.6068	0.1716
270.8207	0.1729
271.0345	0.1704
271.2483	0.1709
271.4622	0.1658
271.676	0.1703
271.8897	0.1687
272.1035	0.1793
272.3173	0.1726
272.531	0.17
272.7448	0.173
272.9585	0.1695
273.1722	0.1688
273.3859	0.1704
273.5996	0.1715
273.8133	0.1741
274.0269	0.169
274.2406	0.1719
274.4542	0.1747
274.6679	0.1723
274.8815	0.1737
275.0951	0.1784
275.3087	0.1753
275.5223	0.176
275.7358	0.1784
275.9494	0.1742
276.1629	0.176
276.3765	0.1736
276.59	0.173
276.8035	0.1826
277.017	0.1807
277.2305	0.1794
277.444	0.1803
277.6574	0.1713
277.8709	0.1821
278.0843	0.1851
278.2978	0.1847
278.5112	0.182
278.7246	0.1811
278.938	0.1788
279.1513	0.1772
279.3647	0.1765
279.5781	0.1798
279.7914	0.1794
280.0047	0.1847
280.2181	0.1771
280.4314	0.1788
280.6447	0.1889
280.8579	0.178
281.0712	0.1799
281.2845	0.1832
281.4977	0.1756
281.711	0.1801
281.9242	0.1818
282.1374	0.1854
282.3506	0.1818
282.5638	0.1815
282.7769	0.179
282.9901	0.1881
283.2033	0.1842
283.4164	0.1796
283.6295	0.1839
283.8426	0.1804
284.0557	0.189
284.2688	0.1854
284.4819	0.1791
284.695	0.1873
284.908	0.1849
285.1211	0.19
285.3341	0.1814
285.5471	0.1877
285.7601	0.1842
285.9731	0.1866
286.1861	0.1917
286.3991	0.1906
286.612	0.1922
286.825	0.1889
287.0379	0.1844
287.2508	0.1909
287.4637	0.193
287.6766	0.1845
287.8895	0.1856
288.1024	0.1904
288.3152	0.1871
288.5281	0.1864
288.7409	0.1903
288.9538	0.1904
289.1666	0.1962
289.3794	0.1826
289.5922	0.187
289.8049	0.1896
290.0177	0.1853
290.2304	0.193
290.4432	0.1938
290.6559	0.1931
290.8686	0.1951
291.0813	0.1927
291.294	0.1954
291.5067	0.1906
291.7194	0.1927
291.932	0.1901
292.1447	0.1954
292.3573	0.195
292.5699	0.1925
292.7825	0.1927
292.9951	0.1934
293.2077	0.1917
293.4203	0.1956
293.6328	0.1922
293.8454	0.1954
294.0579	0.1869
294.2704	0.1957
294.4829	0.1934
294.6954	0.1928
294.9079	0.1903
295.1204	0.1883
295.3328	0.1934
295.5453	0.1932
295.7577	0.1936
295.9701	0.1927
296.1825	0.1973
296.3949	0.1899
296.6073	0.1914
296.8197	0.1889
297.0321	0.195
297.2444	0.1885
297.4567	0.1909
297.6691	0.1878
297.8814	0.1902
298.0937	0.192
298.306	0.1888
298.5182	0.1947
298.7305	0.1937
298.9428	0.1927
299.155	0.188
299.3672	0.1893
299.5794	0.1942
299.7916	0.1868
300.0038	0.1918
300.216	0.1912
300.4282	0.1868
300.6403	0.1949
300.8525	0.1952
301.0646	0.1975
301.2767	0.1907
301.4888	0.1909
301.7009	0.192
301.913	0.1929
302.125	0.1893
302.3371	0.1947
302.5491	0.1927
302.7612	0.2018
302.9732	0.1986
303.1852	0.1983
303.3972	0.194
303.6092	0.1938
303.8211	0.194
304.0331	0.1913
304.245	0.1878
304.457	0.1909
304.6689	0.1887
304.8808	0.1863
305.0927	0.1905
305.3046	0.1906
305.5164	0.187
305.7283	0.1835
305.9401	0.178
306.152	0.179
306.3638	0.1779
306.5756	0.1763
306.7874	0.1765
306.9992	0.1771
307.2109	0.1772
307.4227	0.1738
307.6344	0.1777
307.8462	0.1694
308.0579	0.1725
308.2696	0.1661
308.4813	0.1651
308.693	0.1622
308.9046	0.1689
309.1163	0.1611
309.328	0.1627
309.5396	0.1518
309.7512	0.153
309.9628	0.154
310.1744	0.1498
310.386	0.1469
310.5976	0.1467
310.8091	0.1481
311.0207	0.1443
311.2322	0.1423
311.4437	0.1451
311.6552	0.1484
311.8667	0.148
312.0782	0.1384
312.2897	0.1439
312.5012	0.1352
312.7126	0.1346
312.924	0.1376
313.1355	0.1377
313.3469	0.1346
313.5583	0.1331
313.7696	0.129
313.981	0.1387
314.1924	0.1307
314.4037	0.1278
314.6151	0.1282
314.8264	0.1376
315.0377	0.1284
315.249	0.1337
315.4603	0.1281
315.6716	0.1285
315.8828	0.1243
316.0941	0.1336
316.3053	0.1187
316.5165	0.1276
316.7277	0.1301
316.9389	0.131
317.1501	0.1256
317.3613	0.1202
317.5724	0.126
317.7836	0.1186
317.9947	0.1197
318.2058	0.1198
318.417	0.1277
318.6281	0.1205
318.8391	0.1272
319.0502	0.1222
319.2613	0.1268
319.4723	0.1268
319.6834	0.1288
319.8944	0.1227
320.1054	0.1241
320.3164	0.122
320.5274	0.1197
320.7383	0.1264
320.9493	0.1242
321.1602	0.1226
321.3712	0.1234
321.5821	0.1156
321.793	0.1313
322.0039	0.1201
322.2148	0.1212
322.4257	0.1268
322.6365	0.1229
322.8474	0.1227
323.0582	0.1252
323.269	0.1239
323.4798	0.1266
323.6906	0.1241
323.9014	0.1238
324.1122	0.1183
324.3229	0.1298
324.5337	0.1264
324.7444	0.1246
324.9551	0.1248
325.1658	0.1267
325.3765	0.1305
325.5872	0.1259
325.7979	0.1173
326.0085	0.1293
326.2192	0.1275
326.4298	0.1294
326.6404	0.1327
326.851	0.1268
327.0616	0.1321
327.2722	0.1327
327.4828	0.1303
327.6933	0.1395
327.9039	0.1344
328.1144	0.1344
328.3249	0.128
328.5354	0.1267
328.7459	0.1304
328.9564	0.128
329.1669	0.1329
329.3773	0.13
329.5878	0.132
329.7982	0.1327
330.0086	0.1355
330.219	0.129
330.4294	0.1387
330.6398	0.1313
330.8502	0.1343
331.0605	0.131
331.2708	0.1337
331.4812	0.1339
331.6915	0.1387
331.9018	0.1278
332.1121	0.1371
332.3224	0.1362
332.5326	0.1293
332.7429	0.1338
332.9531	0.1392
333.1633	0.1297
333.3735	0.1305
333.5837	0.1394
333.7939	0.1426
334.0041	0.1427
334.2143	0.1318
334.4244	0.1418
334.6346	0.133
334.8447	0.1354
335.0548	0.1386
335.2649	0.1391
335.475	0.1416
335.685	0.1349
335.8951	0.135
336.1051	0.1385
336.3152	0.1385
336.5252	0.136
336.7352	0.1356
336.9452	0.1394
337.1552	0.1353
337.3652	0.1323
337.5751	0.1424
337.7851	0.1409
337.995	0.144
338.2049	0.1341
338.4148	0.1418
338.6247	0.1431
338.8346	0.1385
339.0445	0.1406
339.2543	0.137
339.4642	0.1372
339.674	0.1404
339.8838	0.1414
340.0936	0.1422
340.3034	0.1423
340.5132	0.1372
340.7229	0.1485
340.9327	0.143
341.1424	0.1403
341.3522	0.14
341.5619	0.1431
341.7716	0.145
341.9813	0.1491
342.1909	0.152
342.4006	0.1472
342.6102	0.1531
342.8199	0.1563
343.0295	0.1479
343.2391	0.1542
343.4487	0.1526
343.6583	0.1565
343.8679	0.1504
344.0774	0.1525
344.287	0.1546
344.4965	0.157
344.706	0.1608
344.9155	0.1539
345.125	0.1568
345.3345	0.1607
345.544	0.1554
345.7534	0.1557
345.9629	0.1531
346.1723	0.1612
346.3817	0.162
346.5911	0.1666
346.8005	0.1661
347.0099	0.1608
347.2193	0.1632
347.4286	0.1725
347.638	0.1712
347.8473	0.1758
348.0566	0.1671
348.2659	0.1684
348.4752	0.1691
348.6845	0.164
348.8937	0.1682
349.103	0.1675
349.3122	0.1666
349.5214	0.1717
349.7306	0.1779
349.9398	0.1711
350.149	0.1662
350.3582	0.1744
350.5674	0.1697
350.7765	0.1726
350.9856	0.171
351.1948	0.1747
351.4039	0.1752
351.613	0.1756
351.822	0.1804
352.0311	0.1748
352.2402	0.1795
352.4492	0.1739
352.6582	0.1785
352.8672	0.1798
353.0762	0.1782
353.2852	0.1837
353.4942	0.1802
353.7032	0.1841
353.9121	0.1859
354.1211	0.185
354.33	0.1885
354.5389	0.1802
354.7478	0.1839
354.9567	0.1851
355.1655	0.1878
355.3744	0.1852
355.5833	0.1788
355.7921	0.1869
356.0009	0.186
356.2097	0.1863
356.4185	0.1921
356.6273	0.1909
356.8361	0.1878
357.0448	0.1848
357.2536	0.1894
357.4623	0.1961
357.671	0.1977
357.8797	0.1926
358.0884	0.1869
358.2971	0.1906
358.5057	0.1995
358.7144	0.1992
358.923	0.197
359.1316	0.2006
359.3402	0.1998
359.5488	0.1925
359.7574	0.2087
359.966	0.1958
360.1746	0.2038
360.3831	0.2108
360.5916	0.2003
360.8002	0.2077
361.0087	0.2088
361.2172	0.2059
361.4256	0.2148
361.6341	0.2069
361.8426	0.2088
362.051	0.214
362.2594	0.2139
362.4678	0.2127
362.6762	0.2224
362.8846	0.2158
363.093	0.2113
363.3014	0.2235
363.5097	0.2061
363.718	0.2212
363.9264	0.224
364.1347	0.2182
364.343	0.2336
364.5513	0.2255
364.7595	0.2326
364.9678	0.2243
365.176	0.2311
365.3842	0.2287
365.5925	0.2247
365.8007	0.2309
366.0089	0.2321
366.217	0.2263
366.4252	0.2299
366.6333	0.2308
366.8415	0.2421
367.0496	0.2288
367.2577	0.2389
367.4658	0.2326
367.6739	0.2308
367.882	0.2367
368.09	0.2336
368.2981	0.2477
368.5061	0.2409
368.7141	0.2389
368.9221	0.2454
369.1301	0.2506
369.3381	0.2506
369.5461	0.2495
369.754	0.2525
369.962	0.245
370.1699	0.251
370.3778	0.2624
370.5857	0.2549
370.7936	0.2492
371.0015	0.2452
371.2093	0.2565
371.4172	0.2519
371.625	0.2484
371.8328	0.2485
372.0406	0.2547
372.2484	0.251
372.4562	0.261
372.664	0.2659
372.8717	0.2611
373.0795	0.2647
373.2872	0.2647
373.4949	0.2685
373.7026	0.2623
373.9103	0.2532
374.118	0.2578
374.3256	0.2716
374.5333	0.2674
374.7409	0.2653
374.9485	0.2648
375.1561	0.2707
375.3637	0.265
375.5713	0.2778
375.7789	0.2733
375.9864	0.2708
376.194	0.2824
376.4015	0.2819
376.609	0.2705
376.8165	0.2814
377.024	0.2752
377.2315	0.2856
377.4389	0.2663
377.6464	0.2783
377.8538	0.2803
378.0612	0.2791
378.2686	0.281
378.476	0.2828
378.6834	0.2756
378.8908	0.2949
379.0981	0.2835
379.3055	0.2871
379.5128	0.2813
379.7201	0.2928
379.9274	0.285
380.1347	0.293
380.342	0.2957
380.5492	0.2886
380.7565	0.2932
380.9637	0.2891
381.1709	0.2921
381.3781	0.2979
381.5853	0.2887
381.7925	0.2887
381.9997	0.2944
382.2068	0.2976
382.4139	0.2891
382.6211	0.3042
382.8282	0.3021
383.0353	0.3019
383.2424	0.2988
383.4494	0.2904
383.6565	0.294
383.8635	0.2959
384.0706	0.3106
384.2776	0.301
384.4846	0.2992
384.6916	0.2981
384.8986	0.2996
385.1055	0.3051
385.3125	0.3026
385.5194	0.3151
385.7263	0.2946
385.9333	0.3098
386.1402	0.3025
386.347	0.2944
386.5539	0.3078
386.7608	0.2979
386.9676	0.3097
387.1744	0.2977
387.3813	0.3004
387.5881	0.2955
387.7948	0.3086
388.0016	0.3108
388.2084	0.3066
388.4151	0.3067
388.6219	0.3033
388.8286	0.3061
389.0353	0.3097
389.242	0.2977
389.4487	0.3028
389.6553	0.2983
389.862	0.3012
390.0686	0.3086
390.2753	0.2987
390.4819	0.2984
390.6885	0.2943
390.8951	0.2919
391.1016	0.3001
391.3082	0.2931
391.5147	0.2957
391.7213	0.2927
391.9278	0.2846
392.1343	0.2925
392.3408	0.2902
392.5473	0.2879
392.7537	0.2824
392.9602	0.2783
393.1666	0.2804
393.373	0.2754
393.5794	0.2761
393.7858	0.2804
393.9922	0.2804
394.1986	0.2732
394.4049	0.2741
394.6113	0.2754
394.8176	0.2795
395.0239	0.2817
395.2302	0.2807
395.4365	0.2691
395.6428	0.277
395.8491	0.2682
396.0553	0.2687
396.2615	0.2619
396.4678	0.2632
396.674	0.2654
396.8802	0.2624
397.0863	0.2581
397.2925	0.2642
397.4987	0.2592
397.7048	0.2641
397.9109	0.256
398.117	0.2618
398.3231	0.2571
398.5292	0.2532
398.7353	0.2629
398.9413	0.258
399.1474	0.2617
399.3534	0.2554
399.5594	0.2702
399.7654	0.2492
399.9714	0.2589
400.1774	0.2601
400.3833	0.2591
400.5893	0.2541
400.7952	0.2603
401.0011	0.2454
401.207	0.2585
401.4129	0.2561
401.6188	0.2536
401.8247	0.2581
402.0305	0.2558
402.2364	0.2565
402.4422	0.2599
402.648	0.2585
402.8538	0.2599
403.0596	0.2501
403.2654	0.2607
403.4711	0.2631
403.6768	0.2534
403.8826	0.2545
404.0883	0.2546
404.294	0.256
404.4997	0.261
404.7054	0.2679
404.911	0.2463
405.1167	0.2694
405.3223	0.2547
405.5279	0.2583
405.7335	0.2531
405.9391	0.2477
406.1447	0.2649
406.3502	0.263
406.5558	0.2617
406.7613	0.2599
406.9668	0.2515
407.1724	0.2543
407.3778	0.2649
407.5833	0.245
407.7888	0.2546
407.9942	0.2567
408.1997	0.2599
408.4051	0.2573
408.6105	0.2544
408.8159	0.2404
409.0213	0.2551
409.2267	0.2531
409.432	0.2448
409.6374	0.2589
409.8427	0.2625
410.048	0.2626
410.2533	0.2546
410.4586	0.2575
410.6639	0.2572
410.8691	0.2557
411.0744	0.258
411.2796	0.2536
411.4848	0.2592
411.69	0.2379
411.8952	0.2602
412.1004	0.2535
412.3056	0.2462
412.5107	0.2588
412.7158	0.2641
412.921	0.2577
413.1261	0.2517
413.3312	0.2582
413.5362	0.2559
413.7413	0.2554
413.9464	0.2516
414.1514	0.2595
414.3564	0.2475
414.5614	0.2566
414.7664	0.2519
414.9714	0.2559
415.1764	0.253
415.3813	0.2476
415.5863	0.2607
415.7912	0.2505
415.9961	0.2504
416.201	0.2473
416.4059	0.2505
416.6108	0.2437
416.8156	0.2555
417.0205	0.25
417.2253	0.2437
417.4301	0.254
417.6349	0.2465
417.8397	0.2457
418.0445	0.2465
418.2492	0.2448
418.454	0.2484
418.6587	0.2531
418.8634	0.25
419.0681	0.2436
419.2728	0.2433
419.4775	0.2532
419.6822	0.2367
419.8868	0.2395
420.0915	0.2357
420.2961	0.2214
420.5007	0.2422
420.7053	0.2402
420.9099	0.2455
421.1144	0.2371
421.319	0.232
421.5235	0.2285
421.728	0.2364
421.9325	0.2334
422.137	0.2323
422.3415	0.2235
422.546	0.2232
422.7504	0.2344
422.9549	0.24
423.1593	0.2324
423.3637	0.2279
423.5681	0.2342
423.7725	0.2283
423.9769	0.2228
424.1812	0.2219
424.3856	0.2166
424.5899	0.222
424.7942	0.226
424.9985	0.2246
425.2028	0.2334
425.4071	0.225
425.6113	0.2293
425.8156	0.2087
426.0198	0.2187
426.224	0.2171
426.4282	0.2133
426.6324	0.2068
426.8366	0.2023
427.0407	0.2118
427.2449	0.2019
427.449	0.2114
427.6531	0.2088
427.8572	0.219
428.0613	0.2166
428.2654	0.2065
428.4694	0.1928
428.6735	0.1993
428.8775	0.197
429.0815	0.1988
429.2855	0.2005
429.4895	0.1987
429.6935	0.1952
429.8975	0.1926
430.1014	0.195
430.3053	0.1997
430.5093	0.1817
430.7132	0.1827
430.9171	0.1803
431.1209	0.1875
431.3248	0.1727
431.5286	0.1817
431.7325	0.1844
431.9363	0.1848
432.1401	0.1723
432.3439	0.1758
432.5477	0.1679
432.7514	0.1602
432.9552	0.1652
433.1589	0.1638
433.3627	0.1644
433.5664	0.1643
433.7701	0.1632
433.9737	0.1605
434.1774	0.1663
434.3811	0.1531
434.5847	0.1538
434.7883	0.1552
434.9919	0.154
435.1955	0.1581
435.3991	0.1601
435.6027	0.1526
435.8062	0.1561
436.0098	0.1432
436.2133	0.142
436.4168	0.1409
436.6203	0.1353
436.8238	0.1283
437.0272	0.1343
437.2307	0.1338
437.4341	0.133
437.6375	0.1294
437.841	0.1264
438.0443	0.1279
438.2477	0.1216
438.4511	0.1291
438.6545	0.1234
438.8578	0.1278
439.0611	0.1226
439.2644	0.1222
439.4677	0.1209
439.671	0.1121
439.8743	0.1169
440.0775	0.1135
440.2808	0.1174
440.484	0.1084
440.6872	0.1036
440.8904	0.1041
441.0936	0.107
441.2967	0.0962
441.4999	0.0892
441.703	0.0956
441.9062	0.1039
442.1093	0.099
442.3124	0.0982
442.5155	0.0982
442.7185	0.0901
442.9216	0.0891
443.1246	0.093
443.3276	0.0926
443.5307	0.0815
443.7337	0.0904
443.9366	0.0817
444.1396	0.0812
444.3426	0.0829
444.5455	0.0798
444.7484	0.0835
444.9513	0.0749
445.1542	0.0841
445.3571	0.0813
445.56	0.0598
445.7628	0.0759
445.9657	0.0784
446.1685	0.0709
446.3713	0.0752
446.5741	0.0725
446.7769	0.0666
446.9797	0.0709
447.1824	0.0638
447.3852	0.0528
447.5879	0.0621
447.7906	0.0565
447.9933	0.0634
448.196	0.0579
448.3986	0.0588
448.6013	0.0519
448.8039	0.0569
449.0066	0.0649
449.2092	0.0643
449.4118	0.0602
449.6143	0.0574
449.8169	0.0503
450.0195	0.0465
450.222	0.0577
450.4245	0.059
450.627	0.0517
450.8295	0.0544
451.032	0.0486
451.2345	0.0397
451.4369	0.051
451.6394	0.0381
451.8418	0.0451
452.0442	0.0434
452.2466	0.0317
452.449	0.0461
452.6513	0.0378
452.8537	0.0367
453.056	0.0398
453.2583	0.0429
453.4607	0.029
453.663	0.0342
453.8652	0.041
454.0675	0.042
454.2697	0.0307
454.472	0.0333
454.6742	0.036
454.8764	0.0406
455.0786	0.031
455.2808	0.0278
455.4829	0.0335
455.6851	0.033
455.8872	0.0121
456.0893	0.0267
456.2915	0.0224
456.4935	0.0245
456.6956	0.0314
456.8977	0.0236
457.0997	0.028
457.3018	0.0223
457.5038	0.0357
457.7058	0.0311
457.9078	0.0289
458.1098	0.0307
458.3117	0.029
458.5137	0.012
458.7156	0.0261
458.9175	0.0248
459.1194	0.0212
459.3213	0.0185
459.5232	0.0214
459.725	0.0245
459.9269	0.0242
460.1287	0.0156
460.3305	0.0207
460.5323	0.0159
460.7341	0.0225
460.9359	0.009
461.1376	0.0194
461.3394	0.0217
461.5411	0.024
461.7428	0.0224
461.9445	0.0216
462.1462	0.0219
462.3479	0.0149
462.5495	0.0155
462.7512	0.0262
462.9528	0.0171
463.1544	0.0181
463.356	0.0051
463.5576	0.0217
463.7592	0.0105
463.9607	0.0064
464.1623	0.0173
464.3638	0.0108
464.5653	0.0113
464.7668	0.0178
464.9683	0.018
465.1697	0.0158
465.3712	0.0082
465.5726	0.0083
465.7741	0.0171
465.9755	0.014
466.1769	0.0056
466.3782	0.0064
466.5796	0.0191
466.7809	0.0165
466.9823	0.023
467.1836	0.0148
467.3849	0.0098
467.5862	0.0057
467.7875	0.0116
467.9887	0.0123
468.19	0.0177
468.3912	0.0267
468.5924	0.0075
468.7936	0.0087
468.9948	0.0111
469.196	0.003
469.3972	0.0033
469.5983	0.0095
469.7994	0.014
470.0006	0.0117
470.2017	0.0076
470.4027	0.0218
470.6038	0.0038
470.8049	0.0139
471.0059	0.0155
471.2069	0.0137
471.408	0.0125
471.6089	0.0098
471.8099	0.0036
472.0109	0.007
472.2119	0.0176
472.4128	0.0118
472.6137	0.0112
472.8146	0.0068
473.0155	0.016
473.2164	0.0042
473.4173	0.0016
473.6181	0.0015
473.819	0.0136
474.0198	0.0087
474.2206	-0.0021
474.4214	0.0094
474.6222	-0.0095
474.8229	0.0084
475.0237	0.0065
475.2244	0.0167
475.4251	0.0072
475.6258	0.0116
475.8265	0.0077
476.0272	-0.0044
476.2278	0.0127
476.4285	0.0068
476.6291	0.0056
476.8297	0.0093
477.0303	0.0078
477.2309	0.0149
477.4315	0.0051
477.632	0.0064
477.8326	0.0098
478.0331	0.0121
478.2336	0.0113
478.4341	0.0136
478.6346	0.0051
478.8351	0.0028
479.0355	0.0133
479.236	0.0087
479.4364	0.011
479.6368	0.0035
479.8372	0.0129
480.0376	0.0133
480.2379	0.0081
480.4383	0.0124
480.6386	-0.0047
480.8389	0.0103
481.0392	0.0092
481.2395	0.0152
481.4398	0.0145
481.6401	0.0018
481.8403	-0.0002
482.0405	0.0064
482.2408	0.0125
482.441	0.0143
482.6411	0.0078
482.8413	0.005
483.0415	0.0101
483.2416	0.01
483.4417	0.0125
483.6419	0.004
483.8419	0.0054
484.042	0.0068
484.2421	-0.0002
484.4422	0.0045
484.6422	0.0089
484.8422	0.0083
485.0422	0.0072
485.2422	0.0042
485.4422	0.0027
485.6422	0.0002
485.8421	0.0046
486.042	0.0137
486.242	-0.001
486.4419	0.0096
486.6417	-0.0004
486.8416	0.0076
487.0415	0.0012
487.2413	0.0018
487.4411	0.0079
487.641	0.0041
487.8408	0.012
488.0405	0.0159
488.2403	0.0049
488.4401	0.0032
488.6398	0.0098
488.8395	0.0075
489.0392	0.0116
489.2389	0.0122
489.4386	-0.0044
489.6383	0.0115
489.8379	0.0019
490.0376	0.0108
490.2372	0.0057
490.4368	-0.0026
490.6364	0.0011
490.836	0.0048
491.0355	-0.0067
491.2351	0.0061
491.4346	0.0075
491.6341	0.0044
491.8336	0.0009
492.0331	-0.0011
492.2326	0.0162
492.432	0.0039
492.6315	0.0151
492.8309	0.0113
493.0303	0.0021
493.2297	0.0135
493.4291	0.0133
493.6284	0.0111
493.8278	0.0009
494.0271	0.0111
494.2264	0.0023
494.4257	0.0169
494.625	0.0029
494.8243	0.0001
495.0236	0.0117
495.2228	0.0157
495.422	0.0041
495.6213	0.0071
495.8205	0.0081
496.0196	0.0103
496.2188	0.0095
496.418	0.0037
496.6171	-0.0007
496.8162	0.009
497.0153	0.0079
497.2144	0.0013
497.4135	0.0081
497.6126	0.013
497.8116	0.005
498.0107	0.005
498.2097	0.0128
498.4087	0.0071
498.6077	-0.0014
498.8067	0.0124
499.0056	0.0011
499.2046	0.014
499.4035	0.0061
499.6024	0.0013
499.8013	0.0073
500.0002	0.0136
500.199	0.0177
500.3979	0.0007
500.5967	0.0027
500.7956	0.0097
500.9944	0.0054
501.1932	0.0114
501.3919	0.012
501.5907	0.0141
501.7895	0.0048
501.9882	0.0145
502.1869	0.0149
502.3856	0.0104
502.5843	0.0099
502.783	0.0061
502.9816	0.007
503.1803	0.0041
503.3789	0.0099
503.5775	0.0074
503.7761	0.0036
503.9747	0.0072
504.1732	-0.0011
504.3718	0.0145
504.5703	0.0076
504.7689	0.0014
504.9674	0.0029
505.1658	0.0105
505.3643	0.0143
505.5628	0.0118
505.7612	0.0115
505.9597	-0.0008
506.1581	0.0095
506.3565	0.0075
506.5549	0.0003
506.7532	0.0031
506.9516	0.0091
507.1499	0.005
507.3482	0.0007
507.5465	0.0093
507.7448	0.0048
507.9431	0.0113
508.1414	0.0058
508.3396	0.0144
508.5379	0.0093
508.7361	0.0084
508.9343	0.0129
509.1325	0.0172
509.3306	0.0048
509.5288	0.0001
509.7269	0.0134
509.9251	0.0076
510.1232	0.0046
510.3213	0.0021
510.5193	0.0068
510.7174	0.0007
510.9154	0.008
511.1135	0.0024
511.3115	-0.0005
511.5095	0.0002
511.7075	0.0026
511.9055	0.0122
512.1034	0.0025
512.3014	0.0011
512.4993	0.0109
512.6972	0.0076
512.8951	0.0038
513.093	0.005
513.2908	0.0202
513.4887	0.0093
513.6865	0.0058
513.8844	0.0092
514.0822	0.001
514.2799	-0.0038
514.4777	-0.0074
514.6755	0.0081
514.8732	0.003
515.0709	0.0103
515.2687	0.0071
515.4664	0.0073
515.664	0.0166
515.8617	0.0089
516.0594	0.0049
516.257	0.011
516.4546	0.0232
516.6522	0.0015
516.8498	0.0084
517.0474	0.0177
517.2449	0.0018
517.4425	0.0067
517.64	0.0089
517.8375	0.0028
518.035	0.0051
518.2325	0.0042
518.43	0.0034
518.6274	0.0074
518.8249	-0.0058
519.0223	0.0169
519.2197	0.005
519.4171	0.0097
519.6145	0.011
519.8118	-0.0124
520.0092	0.0012
520.2065	0.0253
520.4038	0.0084
520.6011	0.0065
520.7984	0.0055
520.9956	0.0086
521.1929	0.0086
521.3901	0.0181
521.5874	0.0153
521.7846	0.0066
521.9818	0.0161
522.1789	0.009
522.3761	0.0165
522.5732	0.0067
522.7704	0.0082
522.9675	-0.0002
523.1646	-0.0005
523.3617	0.0123
523.5587	0.0011
523.7558	0.0063
523.9528	0.0089
524.1498	0.0046
524.3468	0.0062
524.5438	0.0111
524.7408	-0.0029
524.9378	0.0143
525.1347	0.0129
525.3316	0.0049
525.5285	0.0024
525.7254	0.0034
525.9223	0.0136
526.1192	0.0047
526.316	0.0192
526.5129	0.0023
526.7097	0.0031
526.9065	0.0134
527.1033	0.0093
527.3	0.0074
527.4968	0.014
527.6935	0.0074
527.8903	0.0104
528.087	-0.0012
528.2837	0.006
528.4804	-0.0008
528.677	0.0048
528.8737	0
529.0703	0.0001
529.2669	0.0066
529.4635	-0.002
529.6601	-0.0017
529.8567	0.0067
530.0532	0.0032
530.2498	0.0032
530.4463	0.0013
530.6428	0.0116
530.8393	0.0216
531.0358	-0.0045
531.2322	0.0006
531.4287	-0.0023
531.6251	0.0051
531.8215	0.009
532.0179	0.0061
532.2143	0.011
532.4107	0.0083
532.607	0.0059
532.8034	0.0014
532.9997	-0.0013
533.196	0.0041
533.3923	0.0142
533.5886	0.0107
533.7848	0.0054
533.9811	0.0047
534.1773	0.0129
534.3735	0.0142
534.5697	-0.0005
534.7659	0.0113
534.9621	0.0076
535.1582	0.0168
535.3544	0.0092
535.5505	0.0097
535.7466	0.0085
535.9427	-0.0015
536.1387	0.0006
536.3348	0.0057
536.5308	0.007
536.7269	0.0094
536.9229	0.0055
537.1189	0.013
537.3148	-0.0019
537.5108	0.0018
537.7068	0.0096
537.9027	-0.0058
538.0986	0.0122
538.2945	-0.0033
538.4904	0.0002
538.6863	0.0043
538.8821	0.0115
539.078	0.0021
539.2738	-0.0003
539.4696	-0.0053
539.6654	0.0022
539.8611	0.0123
540.0569	0.0008
540.2526	0.016
540.4484	0.005
540.6441	-0.0002
540.8398	0.0137
541.0355	-0.0044
541.2311	0.0004
541.4268	0.0158
541.6224	0.0238
541.818	0.01
542.0136	0.0116
542.2092	0.0218
542.4048	0.0044
542.6003	-0.0006
542.7959	0.0086
542.9914	0.0077
543.1869	0.0072
543.3824	0.0109
543.5779	0.0141
543.7734	0.0075
543.9688	0.0101
544.1642	0.0077
544.3596	0.0025
544.555	0.0009
544.7504	0.0143
544.9458	0.0056
545.1411	0.0086
545.3365	0.0053
545.5318	0.0106
545.7271	0.0105
545.9224	0.0053
546.1177	0.0167
546.3129	0.0064
546.5081	0.0044
546.7034	0.0039
546.8986	0.0113
547.0938	0.0056
547.289	0.0017
547.4841	0.0064
547.6793	0.0063
547.8744	0.0086
548.0695	-0.0001
548.2646	0.0045
548.4597	0.0006
548.6548	0.0155
548.8498	0.0107
549.0448	-0.0055
549.2399	0.0139
549.4349	0.0112
549.6298	0.0077
549.8248	0.0081
550.0198	0.008
550.2147	0.0063
550.4096	0.0008
550.6045	0.0033
550.7994	0.0056
550.9943	0.0064
551.1892	-0.0102
551.384	0.01
551.5788	-0.004
551.7737	0.0092
551.9685	0.0134
552.1632	-0.001
552.358	0.0035
552.5528	-0.0034
552.7475	0.0065
552.9422	0.0068
553.1369	0.0089
553.3316	0.0058
553.5263	0.0069
553.7209	0.009
553.9156	0.0099
554.1102	0.0057
554.3048	-0.0017
554.4994	0.0129
554.694	0.0146
554.8885	0.0027
555.0831	0.0125
555.2776	0.0121
555.4721	0.0014
555.6666	0.0091
555.8611	0.019
556.0555	0.0015
556.25	0.0051
556.4444	0.0007
556.6388	-0.0004
556.8332	0.0115
557.0276	0.0062
557.222	0.0026
557.4163	0.0187
557.6107	0.0084
557.805	0.0006
557.9993	0.0073
558.1936	0.002
558.3879	0.0103
558.5821	0.0038
558.7764	0.0051
558.9706	0.0048
559.1648	0.0161
559.359	0.0088
559.5532	0.0005
559.7473	0.0005
559.9415	0.0058
560.1356	0.0184
560.3297	-0.0022
560.5238	0.0099
560.7179	0.0016
560.9119	0.0047
561.106	-0.0025
561.3	0.0082
561.494	-0.0075
561.688	-0.004
561.882	0.0086
562.076	0.0078
562.2699	0.0177
562.4639	0.0215
562.6578	0.0057
562.8517	0.0077
563.0456	0.0124
563.2395	0.0148
563.4333	0.0074
563.6272	0.0096
563.821	0.0013
564.0148	0.0056
564.2086	0.0078
564.4024	0.0156
564.5961	0.0052
564.7899	0.0204
564.9836	0.0042
565.1773	0.0144
565.371	0.0013
565.5647	0.009
565.7584	0.0143
565.952	0.0108
566.1456	-0.0032
566.3393	0.005
566.5329	0.0021
566.7264	0.0121
566.92	0.0111
567.1136	-0.0034
567.3071	0.0002
567.5006	0.0103
567.6941	0.0026
567.8876	0.0107
568.0811	0.0168
568.2745	-0.0008
568.468	0.003
568.6614	0.0053
568.8548	0.0082
569.0482	0.0062
569.2416	0.0037
569.4349	0.0057
569.6283	0.005
569.8216	0.0087
570.0149	0.0027
570.2082	0.0133
570.4015	0.0057
570.5947	0.0069
570.788	0.0086
570.9812	0.004
571.1744	0.0073
571.3676	0.0056
571.5608	0.0042
571.754	0.0102
571.9471	0.0057
572.1402	0.0068
572.3333	0.0068
572.5264	0.0101
572.7195	0.0064
572.9126	0.0052
573.1057	0.0053
573.2987	0.0059
573.4917	0.0062
573.6847	0.0038
573.8777	0.0069
574.0707	0.0055
574.2636	0.0075
574.4566	0.0034
574.6495	0.0011
574.8424	0.0081
575.0353	0.0053
575.2281	0.0108
575.421	0.0017
575.6138	0.0029
575.8067	0.0067
575.9995	0.0066
576.1923	0.0059
576.385	0.0082
576.5778	0.0088
576.7706	0.0102
576.9633	0.003
577.156	0.0028
577.3487	0.002
577.5414	0.0023
577.734	0.0011
577.9267	0.0051
578.1193	0.0065
578.3119	0.0035
578.5045	0.004
578.6971	0.0012
578.8897	0.0031
579.0822	0.0089
579.2747	0.0017
579.4673	0.007
579.6598	0.005
579.8522	0.0044
580.0447	0.0103
580.2372	0.0067
580.4296	0.0106
580.622	0.0019
580.8144	0.0046
581.0068	0.003
581.1992	0.0031
581.3915	0.0002
581.5839	0.0053
581.7762	0.005
581.9685	0.0042
582.1608	0.0018
582.353	0.0065
582.5453	0.0063
582.7375	0.0065
582.9298	0.0017
583.122	0.0003
583.3142	0.008
583.5063	0.0049
583.6985	0.0006
583.8906	0.0017
584.0827	0.0063
584.2749	0.0007
584.4669	0.001
584.659	0.0077
584.8511	0.0081
585.0431	0.008
585.2352	0.0034
585.4272	0.0046
585.6192	0.002
585.8111	0.0044
586.0031	0.0043
586.195	0.003
586.387	-0.0008
586.5789	0.0054
586.7708	0.0086
586.9627	0.0051
587.1545	0.0025
587.3464	0.0028
587.5382	0.0044
587.73	0.0076
587.9218	0.0016
588.1136	0.0015
588.3053	0.0054
588.4971	0.0042
588.6888	-0.0019
588.8805	-0.0002
589.0722	0.0094
589.2639	0.0033
589.4556	0.005
589.6472	0.0087
589.8389	0.0071
590.0305	-0.0008
590.2221	0.0058
590.4137	-0.0006
590.6052	0.0044
590.7968	0.0042
590.9883	0.0047
591.1798	0.0104
591.3713	0.0024
591.5628	0.0039
591.7543	0.0071
591.9458	-0.0007
592.1372	0.0116
592.3286	0.0046
592.52	0.0106
592.7114	0.0046
592.9028	0.012
593.0941	0.004
593.2855	0.0058
593.4768	0.0121
593.6681	0.0066
593.8594	0.0065
594.0506	0.0044
594.2419	0.0052
594.4331	0.0052
594.6244	-0.0003
594.8156	0.0044
595.0067	0.0014
595.1979	0.0021
595.3891	0.0057
595.5802	0.008
595.7713	0.0043
595.9624	0.007
596.1535	0.0035
596.3446	0.0054
596.5357	0.0062
596.7267	0.0078
596.9177	0.0048
597.1087	0.0057
597.2997	0.0075
597.4907	0.0008
597.6817	0.006
597.8726	0.0083
598.0635	0.0015
598.2544	0.0125
598.4453	0.0016
598.6362	0.0048
598.827	0.0049
599.0179	0.0035
599.2087	0.0067
599.3995	0.0094
599.5903	0.0131
599.7811	0.0128
599.9718	0.0049
600.1626	0.0016
600.3533	0.0029
600.544	0.0132
600.7347	0.007
600.9254	0.0106
601.116	0.0055
601.3067	0.0032
601.4973	0.0063
601.6879	0.0061
601.8785	0.0073
602.0691	0.0017
602.2596	0.0095
602.4502	0.0109
602.6407	0.0073
602.8312	0.0081
603.0217	0.0108
603.2122	0.0044
603.4027	0.0045
603.5931	0.0027
603.7835	0.0036
603.9739	0.0008
604.1643	0.0153
604.3547	0.0142
604.5451	0.0077
604.7354	-0.0023
604.9257	0.0082
605.116	0.0014
605.3063	0.0084
605.4966	0.001
605.6869	0.0128
605.8771	0.0055
606.0673	0.0047
606.2575	0.0048
606.4477	0.0055
606.6379	0.003
606.8281	0.001
607.0182	0.0028
607.2083	0.0115
607.3985	0.0065
607.5885	0.0012
607.7786	0.0013
607.9687	0.0034
608.1587	0.0109
608.3488	0.0053
608.5388	0.0057
608.7288	0.0012
608.9187	0.0034
609.1087	0.0039
609.2986	0.0068
609.4886	0.0048
609.6785	0.0025
609.8684	0.0045
610.0582	-0.0029
610.2481	-0.0037
610.4379	0.0084
610.6278	0.0051
610.8176	0.0097
611.0074	0.0089
611.1971	0.0059
611.3869	0.0089
611.5766	-0.0031
611.7664	0.0043
611.9561	0.0056
612.1458	0.0036
612.3354	0.0053
612.5251	0.0036
612.7147	0.0082
612.9044	0.0034
613.094	0.0045
613.2836	0.0004
613.4731	0.0024
613.6627	0.0068
613.8522	0.0062
614.0417	0.0056
614.2313	0.002
614.4207	0.003
614.6102	0.0143
614.7997	0.01
614.9891	-0.0001
615.1785	0.0028
615.3679	0.011
615.5573	0.0048
615.7467	0.0097
615.9361	0.0045
616.1254	0.005
616.3147	0.012
616.504	0.0105
616.6933	0.0054
616.8826	0.0021
617.0718	0.0014
617.2611	0.0027
617.4503	0.001
617.6395	0.0039
617.8287	0.0008
618.0179	0.0071
618.207	0.0141
618.3961	0.0008
618.5853	0.0084
618.7744	0.0019
618.9634	0.022
619.1525	0.0042
619.3416	0.0049
619.5306	0.0084
619.7196	0.0089
619.9086	0.0036
620.0976	-0.0034
620.2866	0.0126
620.4755	-0.0035
620.6645	0.0127
620.8534	0.0131
621.0423	-0.0066
621.2312	0.0054
621.42	0.0058
621.6089	0.0136
621.7977	0.015
621.9865	0.0033
622.1753	-0.0022
622.3641	0.0085
622.5529	0.0033
622.7416	0.0053
622.9303	0.0035
623.1191	0.0082
623.3078	-0.0064
623.4964	0.0142
623.6851	0.0043
623.8737	0.001
624.0624	-0.0048
624.251	0.006
624.4396	0.006
624.6282	0.0117
624.8167	0.0031
625.0053	0.0138
625.1938	0.0052
625.3823	0.0151
625.5708	-0.0004
625.7593	0.0062
625.9477	0.0076
626.1362	-0.0017
626.3246	0.0052
626.513	0.0032
626.7014	0.0062
626.8898	0.0071
627.0781	0.0132
627.2665	0.0116
627.4548	-0.0075
627.6431	0.0147
627.8314	0.0172
628.0197	0.0125
628.2079	-0.0024
628.3962	0.0009
628.5844	0.0039
628.7726	0.009
628.9608	0.0157
629.1489	0.0075
629.3371	-0.0003
629.5252	0.0017
629.7134	-0.0101
629.9015	0.0085
630.0895	-0.0072
630.2776	0.0083
630.4657	0.0063
630.6537	0.0084
630.8417	-0.0006
631.0297	0.0125
631.2177	0.0061
631.4057	-0.0028
631.5936	0.0019
631.7815	-0.0004
631.9695	0.0178
632.1574	0.0186
632.3452	0.003
632.5331	0.0108
632.7209	0.0306
632.9088	0.0145
633.0966	0.0349
633.2844	0.0136
633.4722	0.0166
633.6599	0.0195
633.8477	0.0103
634.0354	0.0202
634.2231	0.0016
634.4108	0.0201
634.5985	0.0125
634.7861	0.0028
634.9738	-0.0081
635.1614	0.0187
635.349	-0.0009
635.5366	0.0112
635.7242	0.0046
635.9117	0.0042
636.0993	0.0114
636.2868	0.0063
636.4743	0.0207
636.6618	-0.0045
636.8492	0.0218
637.0367	-0.0087
637.2241	0.0121
637.4115	0.0274
637.5989	-0.0009
637.7863	0.022
637.9737	0.0043
638.161	0.0141
638.3484	0.0024
638.5357	-0.006
638.723	0.0264
638.9103	-0.0087
639.0975	-0.0021
639.2848	0.0096
639.472	0.0147
639.6592	-0.0084
639.8464	0.0139
640.0336	0.0185
640.2208	0.0091
640.4079	-0.0108
640.595	-0.0053
640.7821	0.0333
640.9692	0.0082
641.1563	-0.0054
641.3434	0.0108
641.5304	0.0274
641.7174	0.0225
641.9044	-0.0015
642.0914	0.0178
642.2784	0.0082
642.4653	0.0072
642.6523	0.0217
642.8392	-0.0092
643.0261	0.0245
643.213	0.0005
643.3999	0.0194
643.5867	0.0132
643.7735	-0.0102
643.9604	0.0116
644.1472	0.0141
644.3339	0.0049
644.5207	-0.014
644.7075	0.0092
644.8942	-0.003
645.0809	0.0081
645.2676	-0.0014
645.4543	-0.0064
645.6409	0.0286
645.8276	0.0191
646.0142	0.0006
646.2008	0.0061
646.3874	0.0006
646.574	0.0166
646.7605	0.004
646.9471	-0.0041
647.1336	-0.0019
647.3201	0.0273
647.5066	0.0054
647.6931	0.0091
647.8795	0.0057
648.0659	0.011
648.2524	0.0011
648.4388	0.013
648.6252	0.013
648.8115	-0.0053
648.9979	0.0084
649.1842	0.0032
649.3705	0.0076
649.5568	-0.0219
649.7431	0.0065
649.9294	0.0088
650.1156	0.0094
650.3018	0.0054
650.488	0.0157
650.6742	0.0273
650.8604	0.0257
651.0466	0.0005
651.2327	0.017
651.4188	0.0117
651.6049	0.0091
651.791	0.021
651.9771	0.0252
652.1632	0.0103
652.3492	0.0166
652.5352	0.0259
652.7212	0.0046
652.9072	-0.0098
653.0932	0.0057
653.2791	0.0125
653.465	0.0145
653.651	0.0082
653.8369	0.015
654.0227	-0.0096
654.2086	0.0139
654.3944	0.0233
654.5803	-0.0097
654.7661	-0.0018
654.9519	-0.0025
655.1377	0.0002
655.3234	0.0002
655.5092	0.0002
655.6949	0.0002
655.8806	0.0002
656.0663	0.0002
656.2519	0.0002
656.4376	0.0002
656.6232	0.0002
656.8088	0.0002
656.9945	0.0002
657.18	0.0002
657.3656	0.0002
657.5511	0.0002
657.7367	0.0002
657.9222	0.0002
658.1077	0.0002
658.2932	0.0002
658.4786	0.0002
658.6641	0.0002
658.8495	0.0002
659.0349	0.0002
659.2203	0.0002
659.4057	0.0002
659.591	0.1714
659.7764	0.0258
659.9617	0.0153
660.147	0.0002
660.3323	0.0067
660.5176	0.0016
660.7028	-0.0075
660.888	0.0248
661.0733	0.0163
661.2585	-0.0056
661.4436	0.0032
661.6288	0.0364
661.8139	-0.0015
661.9991	-0.0123
662.1842	-0.0155
662.3693	0.0138
662.5544	0.0092
662.7394	0.0293
662.9245	0.0177
663.1095	0.0098
663.2945	-0.0083
663.4795	-0.0178
663.6644	0.0159
663.8494	0.0282
664.0343	0.0242
664.2193	0.0123
664.4042	0.0179
664.589	0.0214
664.7739	0.0069
664.9587	-0.0046
665.1436	0.0134
665.3284	0.0107
665.5132	-0.0196
665.698	0.0221
665.8827	0.0063
666.0675	-0.0265
666.2522	0.0066
666.4369	0.0266
666.6216	-0.0003
666.8063	0.0004
666.9909	0.0172
667.1756	0.0183
667.3602	-0.0087
667.5448	0.0096
667.7294	-0.0025
667.9139	0.0099
668.0985	-0.0047
668.283	0.0001
668.4675	0.0238
668.652	0.0185
668.8365	0.0194
669.0209	0.0052
669.2054	0.0058
669.3898	-0.0003
669.5742	0.0151
669.7586	0.0254
669.943	0.0083
670.1273	0.0001
670.3117	0.0359
670.496	0.0218
670.6803	0.0075
670.8646	-0.0079
671.0488	0.0346
671.2331	-0.0128
671.4173	0.0183
671.6015	0.0049
671.7857	0.0133
671.9699	0.0245
672.1541	0.0097
672.3382	0.0062
672.5223	0.0006
672.7064	0.006
672.8905	-0.0074
673.0746	0.0079
673.2587	0.0241
673.4427	0.0167
673.6267	0.0036
673.8107	0.0326
673.9947	0.0137
674.1787	0.0171
674.3626	-0.0172
674.5465	0.0378
674.7304	-0.014
674.9143	0.0174
675.0982	0.0103
675.2821	0.007
675.4659	0.0022
675.6497	0.0257
675.8335	0.014
676.0173	0.0037
676.2011	0.0143
676.3849	0.0113
676.5686	0.0186
676.7523	0.0101
676.936	0.0139
677.1197	0.0086
677.3034	0.0188
677.487	0.0024
677.6706	-0.0077
677.8542	0.0103
678.0378	0.0157
678.2214	0.0021
678.405	0.0141
678.5885	0.0063
678.772	0.019
678.9555	-0.0058
679.139	0.0251
679.3225	0.0036
679.5059	-0.0021
679.6894	0.0045
679.8728	0.0077
680.0562	0.006
680.2395	-0.0236
680.4229	0.0101
680.6062	0.013
680.7896	-0.0043
680.9729	0.0055
681.1562	0.0228
681.3394	0.0096
681.5227	0.005
681.7059	0.0063
681.8891	0.0122
682.0723	0.012
682.2555	-0.0089
682.4387	0.0191
682.6218	0.0109
682.805	0.0099
682.9881	0.0184
683.1712	0.0343
683.3542	0.0286
683.5373	-0.0313
683.7203	0.0117
683.9034	0.0074
684.0864	-0.0008
684.2694	-0.0045
684.4523	0.0096
684.6353	0.0037
684.8182	-0.0036
685.0011	0.023
685.184	0.004
685.3669	0.0285
685.5498	0.0139
685.7326	-0.0059
685.9154	-0.0008
686.0982	0.0195
686.281	0.0003
686.4638	-0.0074
686.6465	0.0019
686.8293	0.0072
687.012	0.0179
687.1947	-0.0124
687.3774	-0.0006
687.56	-0.0048
687.7427	-0.0015
687.9253	-0.0358
688.1079	0.0123
688.2905	-0.0012
688.4731	0.0128
688.6556	0.0037
688.8382	-0.019
689.0207	0.0232
689.2032	0.0314
689.3857	0.0022
689.5681	0.009
689.7506	0.031
689.933	-0.0133
690.1154	0.0101
690.2978	-0.0022
690.4802	0.0402
690.6626	0.0152
690.8449	0.0106
691.0272	0.007
691.2095	-0.0225
691.3918	0.0093
691.5741	0.0163
691.7563	0.0223
691.9386	0.0232
692.1208	0.004
692.303	0.011
692.4852	-0.004
692.6673	-0.0002
692.8495	-0.007
693.0316	-0.0021
693.2137	0.0159
693.3958	0.0079
693.5778	0.0098
693.7599	-0.0301
693.9419	0.011
694.1239	-0.0094
694.3059	-0.0088
694.4879	-0.0049
694.6699	0.0239
694.8518	0.0156
695.0337	0.0141
695.2157	0.0358
695.3975	0.0049
695.5794	0.0202
695.7613	0.0313
695.9431	-0.0173
696.1249	0.0083
696.3067	-0.0075
696.4885	0.0153
696.6703	-0.0024
696.852	-0.0009
697.0337	0.0147
697.2154	0.0068
697.3971	0.0125
697.5788	0.0158
697.7605	0.0056
697.9421	0.0194
698.1237	0.0115
698.3053	0.013
698.4869	0.0022
698.6685	0.0058
698.85	0.0268
699.0315	-0.0104
699.213	0.0246
699.3945	0.0059
699.576	0.0156
699.7575	0.0286
699.9389	-0.0034
700.1203	0.0073
700.3017	0.0243
700.4831	0.0193
700.6645	0.0324
700.8458	0.0208
701.0271	0.031
701.2084	0.0001
701.3897	-0.004
701.571	-0.0011
701.7523	0.0159
701.9335	0.0174
702.1147	0.0199
702.2959	0.01
702.4771	0.0296
702.6583	0.009
702.8394	-0.0109
703.0205	0.0131
703.2016	-0.0085
703.3827	-0.0239
703.5638	0.0108
703.7449	0.0485
703.9259	0.0288
704.1069	-0.0176
704.2879	0.0296
704.4689	0.031
704.6499	0.0206
704.8308	0.0358
705.0117	0.0356
705.1927	0.0317
705.3735	0.0083
705.5544	0.0184
705.7353	0.0154
705.9161	0.0095
706.0969	0.007
706.2777	0.0032
706.4585	0.0077
706.6393	0.0062
706.82	0.0184
707.0007	-0.0021
707.1815	-0.0207
707.3621	0.0213
707.5428	0.0096
707.7235	0.0085
707.9041	0.019
708.0847	0.0034
708.2653	0.0287
708.4459	0.0072
708.6265	0.0058
708.807	0.0105
708.9875	0.0074
709.168	0.0229
709.3485	0.0132
709.529	0.0086
709.7095	0.0004
709.8899	0.0037
710.0703	0.0136
710.2507	0.0149
710.4311	-0.0212
710.6115	0.0197
710.7918	0.0388
710.9721	-0.0031
711.1524	-0.0069
711.3327	0.0116
711.513	0.0093
711.6932	0.0199
711.8735	0.0167
712.0537	-0.0007
712.2339	0.0033
712.4141	0.0453
712.5942	-0.0075
712.7744	0.0135
712.9545	-0.006
713.1346	0.04
713.3147	0.0066
713.4947	-0.0041
713.6748	0.0024
713.8548	0.0064
714.0348	0.0087
714.2148	0.0128
714.3948	-0.0068
714.5748	0.0172
714.7547	0.0144
714.9346	0.0199
715.1145	0.0001
715.2944	-0.0206
715.4743	0.031
715.6541	-0.0016
715.834	0.0155
716.0138	0.0185
716.1936	-0.0004
716.3733	0.0149
716.5531	0.0188
716.7328	0.0251
716.9126	0.0067
717.0923	0.0006
717.2719	0.0243
717.4516	0.024
717.6312	-0.0019
717.8109	0.0281
717.9905	0.023
718.1701	0.0269
718.3496	0.0028
718.5292	-0.0041
718.7087	0.0118
718.8882	0.029
719.0677	0.0004
719.2472	0.0092
719.4267	0.0159
719.6061	-0.0071
719.7856	0.0191
719.965	0.0086
720.1443	-0.0145
720.3237	0.0036
720.5031	0.0152
720.6824	0.0183
720.8617	0.0072
721.041	0.0232
721.2203	-0.0015
721.3995	-0.0086
721.5788	0.0298
721.758	0.0063
721.9372	0.0182
722.1164	0.0014
722.2956	0.0144
722.4747	0.0432
722.6538	-0.0056
722.8329	0.0373
723.012	0.0134
723.1911	0.0108
723.3702	0.0204
723.5492	0.0005
723.7282	0.0181
723.9072	0.0259
724.0862	0.0249
724.2652	0.0005
724.4441	0.0083
724.623	0.0279
724.8019	0.0224
724.9808	0.0297
725.1597	0.016
725.3385	0.0169
725.5174	0.0152
725.6962	0.0139
725.875	0.0094
726.0538	0.0395
726.2325	0.0331
726.4112	-0.0011
726.59	-0.0184
726.7687	0.0034
726.9474	0.014
727.126	0.0287
727.3047	0.0186
727.4833	0.0236
727.6619	-0.0003
727.8405	0.0168
728.0191	0.0286
728.1976	0.0068
728.3762	0.0214
728.5547	0.0041
728.7332	0.0137
728.9116	0.0114
729.0901	-0.012
729.2686	0.0112
729.447	-0.0219
729.6254	0.0112
729.8038	0.007
729.9821	-0.0099
730.1605	0.0137
730.3388	0.0155
730.5171	0.0257
730.6954	-0.029
730.8737	0.0136
731.0519	-0.0097
731.2302	0.0242
731.4084	0.0113
731.5866	-0.0054
731.7648	0.0168
731.9429	0.0136
732.1211	-0.0084
732.2992	0.015
732.4773	0.0288
732.6554	-0.0025
732.8335	0.0311
733.0115	0.0131
733.1896	-0.0139
733.3676	0.0309
733.5456	0.0095
733.7235	0.0032
733.9015	0.0123
734.0794	-0.0155
734.2574	-0.0022
734.4353	0.0209
734.6131	0.0031
734.791	-0.0036
734.9689	-0.0002
735.1467	-0.0079
735.3245	0.0073
735.5023	0.0096
735.68	0.0199
735.8578	0.0101
736.0355	0.0233
736.2132	-0.0023
736.3909	0.0177
736.5686	0.0164
736.7463	-0.0022
736.9239	0.0293
737.1015	0.0033
737.2791	0.0058
737.4567	0.0243
737.6343	0.0205
737.8118	0.0115
737.9894	0.0004
738.1669	0.0007
738.3444	0.0331
738.5218	-0.0151
738.6993	0.0137
738.8767	-0.0098
739.0541	-0.0042
739.2315	-0.0065
739.4089	0.025
739.5863	-0.0066
739.7636	0.0046
739.9409	0.0033
740.1182	-0.0064
740.2955	0.0044
740.4728	-0.0231
740.65	-0.0091
740.8272	0.0467
741.0044	0.0059
741.1816	0.0144
741.3588	-0.0158
741.5359	-0.0214
741.7131	0.0279
741.8902	0.0055
742.0673	-0.0165
742.2444	0.0269
742.4214	0.0112
742.5985	-0.0016
742.7755	0.0277
742.9525	-0.0265
743.1295	-0.0258
743.3064	0.0119
743.4834	0.0116
743.6603	0.0647
743.8372	-0.0157
744.0141	0.0294
744.191	0.01
744.3678	-0.0342
744.5446	0.0147
744.7215	0.0163
744.8982	0.033
745.075	0.055
745.2518	-0.0155
745.4285	0.0293
745.6052	-0.0298
745.7819	0.0231
745.9586	0.0083
746.1353	0.0001
746.3119	0.0208
746.4885	0.0112
746.6651	0.0119
746.8417	0.0022
747.0183	0.0224
747.1948	-0.0004
747.3714	0.0267
747.5479	0.0129
747.7244	-0.0111
747.9008	0.0131
748.0773	0.0235
748.2537	0.0399
748.4301	0.0461
748.6065	0.0055
748.7829	-0.0094
748.9593	-0.0226
749.1356	-0.004
749.3119	-0.0012
749.4882	0.0211
749.6645	-0.0036
749.8408	0.0218
750.017	0.029
750.1933	-0.0419
750.3695	-0.0003
750.5457	-0.004
750.7218	0.0004
750.898	0.0246
751.0741	0.026
751.2502	0.0205
751.4263	0.0013
751.6024	0.0233
751.7784	-0.0017
751.9545	0.0185
752.1305	-0.003
752.3065	0.0175
752.4825	0.0114
752.6584	0.0371
752.8344	0.0001
753.0103	-0.02
753.1862	0.0162
753.3621	-0.0103
753.5379	-0.0056
753.7138	0.0083
753.8896	0.0213
754.0654	-0.0154
754.2412	0.0283
754.417	0.0182
754.5927	0.0153
754.7685	0.0048
754.9442	0.0257
755.1199	0.0091
755.2956	0.0139
755.4712	0.0158
755.6469	-0.0008
755.8225	0.0148
755.9981	0.0235
756.1736	0.0095
756.3492	-0.0152
756.5248	0.005
756.7003	-0.0002
756.8758	-0.0025
757.0513	-0.0016
757.2267	0.016
757.4022	-0.0002
757.5776	0.0132
757.753	0.0242
757.9284	0.0003
758.1038	0.0135
758.2791	0.0093
758.4545	-0.0096
758.6298	0.0051
758.8051	0.0231
758.9803	0.019
759.1556	0.0028
759.3308	0.0007
759.506	-0.005
759.6812	0.015
759.8564	-0.0152
760.0316	-0.0121
760.2067	0.0342
760.3819	0.0115
760.557	0.0047
760.732	-0.0006
760.9071	0.0189
761.0821	-0.0204
761.2572	0.0181
761.4322	0.0225
761.6072	0.0048
761.7821	-0.0317
761.9571	0.0243
762.132	0.0031
762.3069	0.0326
762.4818	0.0275
762.6567	0.003
762.8316	0.006
763.0064	0.0311
763.1812	0.0057
763.356	-0.0117
763.5308	0.0178
763.7055	0.0283
763.8803	-0.0088
764.055	0.0054
764.2297	-0.0035
764.4044	-0.0015
764.579	0.0114
764.7537	-0.0023
764.9283	0.0033
765.1029	0.0062
765.2775	0.0011
765.4521	0.0155
765.6266	0.007
765.8011	0.0018
765.9756	-0.0117
766.1501	0.0234
766.3246	0.0306
766.4991	0.0212
766.6735	0.0345
766.8479	0.0082
767.0223	-0.0186
767.1967	-0.001
767.371	0.0261
767.5454	0.0015
767.7197	0.0191
767.894	0.0132
768.0683	0.0415
768.2425	0.0253
768.4168	0.0051
768.591	-0.0027
768.7652	-0.022
768.9394	-0.0097
769.1135	-0.0089
769.2877	0.0435
769.4618	0.0423
769.6359	0.0153
769.81	0.0431
769.984	0.0119
770.1581	0.0165
770.3321	0.0237
770.5061	0.0084
770.6801	0.0195
770.8541	0.0144
771.028	0.0354
771.202	0.0118
771.3759	0.013
771.5498	0.0189
771.7236	0.0073
771.8975	0.0411
772.0713	0.0324
772.2451	0.009
772.4189	0.0205
772.5927	-0.0425
772.7665	0.0031
772.9402	0.0361
773.1139	-0.0318
773.2876	0.0101
773.4613	0.0292
773.635	0.0733
773.8086	0.0495
773.9822	0.0248
774.1558	0.0423
774.3294	0.016
774.503	-0.0287
774.6765	0.0035
774.8501	-0.0308
775.0236	0.0166
775.1971	0.0086
775.3705	0.0112
775.544	0.0002
775.7174	0.0219
775.8908	0.0152
776.0642	0.0497
776.2376	0.0312
776.4109	0.0303
776.5843	-0.0409
776.7576	0.0541
776.9309	0.0515
777.1041	-0.0348
777.2774	0.0093
777.4506	0.0597
777.6238	0.0291
777.797	0.0137
777.9702	0.0021
778.1434	0.0249
778.3165	0.0001
778.4896	-0.0095
778.6627	0.0244
778.8358	0.0053
779.0089	-0.0362
779.1819	0.0347
779.3549	0.0166
779.5279	0.012
779.7009	0.0331
779.8739	0.0467
780.0468	0.0051
780.2197	0.0014
780.3926	0.025
780.5655	0.0147
780.7384	0.0228
780.9112	0.0188
781.0841	0.0229
781.2569	0.0101
781.4297	0.042
781.6024	0.0239
781.7752	0.0569
781.9479	0.0261
782.1206	0.0119
782.2933	0.0035
782.466	-0.0036
782.6386	-0.0022
782.8113	0.0083
782.9839	0.0193
783.1565	0.0465
783.329	0.0214
783.5016	0.04
783.6741	-0.0113
783.8466	0.0366
784.0191	0.0063
784.1916	-0.0123
784.3641	0.0012
784.5365	0.0366
784.7089	0.001
784.8813	0.0506
785.0537	0.0358
785.2261	-0.0116
785.3984	0.0071
785.5707	0.0001
785.743	0.0808
785.9153	0.0152
786.0876	-0.0089
786.2598	0.02
786.432	0.048
786.6042	0.0301
786.7764	0.0082
786.9486	0.0022
787.1207	0.0732
787.2928	0.0296
787.4649	0.0119
787.637	0.0031
787.8091	0.0223
787.9811	0.0654
788.1532	0.0297
788.3252	0.0131
788.4972	0.0034
788.6691	0.006
788.8411	-0.0124
789.013	0.0141
789.1849	0.0552
789.3568	0.017
789.5287	0.0502
789.7005	-0.0229
789.8723	0.0068
790.0442	0.0102
790.2159	0.0996
790.3877	0.0571
790.5595	0.0809
790.7312	0.0052
790.9029	0.0074
791.0746	0.0343
791.2463	-0.0377
791.4179	0.0434
791.5896	0.0244
791.7612	0.0432
791.9328	0.0914
792.1044	0.026
792.2759	0.0039
792.4474	0.0694
792.619	0.0406
792.7905	0.037
792.9619	0.0171
793.1334	0.124
793.3048	0.0818
793.4762	0.0182
793.6476	-0.047
793.819	0.0227
793.9904	-0.0119
794.1617	-0.0024
794.333	0.0227
794.5043	0.0141
794.6756	0.0013
794.8469	0.0056
795.0181	0.0207
795.1893	0.0045
795.3605	0.0163
795.5317	0.0213
795.7029	-0.0291
795.874	0.0402
796.0452	0.0053
796.2163	0.0997
796.3873	0.1081
796.5584	0.0832
796.7294	0.0441
796.9005	0.0243
797.0715	-0.0106
797.2425	0.1021
797.4134	0.0291
797.5844	0.0514
797.7553	-0.0338
797.9262	0.0427
798.0971	0.0258
798.2679	0.0014
798.4388	0.0671
798.6096	-0.0052
798.7804	0.0318
798.9512	0.0072
799.122	0.0434
799.2927	0.101
799.4635	0.0062
799.6342	-0.0058
799.8049	0.0337
799.9755	-0.0503
800.1462	0.0696
800.3168	0.0889
800.4874	-0.0901
800.658	0.0885
800.8286	0.0209
800.9991	0.0082
801.1696	-0.0112
801.3402	0.0023
801.5106	-0.0641
801.6811	-0.0102
801.8516	0.0547
802.022	0.1018
802.1924	0.0442
802.3628	0.0308
802.5332	0.0585
802.7035	0.0994
802.8739	-0.0131
803.0442	0.0333
803.2145	0.131
803.3847	0.0241
803.555	0.0615
803.7252	-0.0032
803.8954	-0.0912
804.0656	-0.0087
804.2358	0.1048
804.4059	0.0494
804.5761	-0.009
804.7462	0.0614
804.9163	0.0555
805.0864	-0.0083
805.2564	-0.0053
805.4264	0.0223
805.5965	0.0638
805.7665	0.0451
805.9364	0.0308
806.1064	0.0193
806.2763	0.048
806.4462	0.0278
806.6161	-0.0128
806.786	0.0567
806.9559	0.0474
807.1257	-0.0029
807.2955	-0.0153
807.4653	0.0197
807.6351	0.0076
807.8048	-0.0038
807.9746	-0.0169
808.1443	-0.0118
808.314	0.088
808.4837	0.1151
808.6533	-0.0873
808.8229	0.0455
808.9926	0.063
809.1622	-0.001
809.3317	0.0178
809.5013	0.0003
809.6708	0.0513
809.8403	0.0287
810.0098	-0.0085
810.1793	0.0285
810.3488	-0.0436
810.5182	0.0809
810.6876	0.0903
810.857	0.0161
811.0264	-0.0095
811.1958	0.1915
811.3651	0.0556
811.5344	0.0713
811.7037	0.1204
811.873	0.0691
812.0422	-0.0387
812.2115	0.0602
812.3807	0.0205
812.5499	0.2013
812.7191	0.142
812.8882	-0.0239
813.0574	0.0804
813.2265	0.0404
813.3956	0.0465
813.5646	0.1022
813.7337	0.0003
813.9027	-0.0098
814.0718	0.0704
814.2407	0.0371
814.4097	0.053
814.5787	0.0945
814.7476	0.0747
814.9165	-0.0058
815.0854	0.0358
815.2543	0.1029
815.4232	0.0613
815.592	0.0345
815.7608	-0.1031
815.9296	0.1373
816.0984	0.0989
816.2671	-0.0176
816.4359	0.2034
816.6046	0.077
816.7733	-0.1002
816.942	-0.0049
817.1106	0.1212
817.2793	-0.0302
817.4479	0.0691
817.6165	0.1031
817.785	0.122
817.9536	0.0402
818.1221	0.0671
818.2906	0.0617
818.4591	0.0473
818.6276	0.0179
818.7961	0.1208
818.9645	0.0753
819.1329	0.1378
819.3013	-0.0961
819.4697	-0.1941
819.638	0.0905
819.8064	0.0834
819.9747	0.0914
820.143	-0.0481
820.3113	0.1903
820.4795	0.1012
820.6477	0.1129
820.816	0.1131
820.9842	0.1154
821.1523	0.0599
821.3205	0.0565
821.4886	0.0367
821.6567	-0.1115
821.8248	0.1489
821.9929	-0.0637
822.1609	0.1151
822.329	0.1473
822.497	0.0284
822.665	0.063
822.833	0.0833
823.0009	0.0149
823.1688	0.2372
823.3367	-0.196
823.5046	-0.0361
823.6725	0.0602
823.8404	0.0008
824.0082	0.0335
824.176	0.0162
824.3438	0.2621
824.5116	0.1808
824.6793	0.137
824.847	0.1212
825.0147	0.0785
825.1824	0.0398
825.3501	0.1421
825.5177	-0.055
825.6854	-0.06
825.853	-0.0457
826.0206	-0.0101
826.1881	0.0673
826.3557	0.091
826.5232	0.0409
826.6907	-0.0089
826.8582	0.1781
827.0257	0.1294
827.1931	0.0889
827.3605	0.0045
827.528	0.0807
827.6953	-0.0737
827.8627	-0.201
828.03	0.1412
828.1974	0.0006
828.3647	-0.0022
828.532	0.007
828.6992	0.1977
828.8665	-0.0822
829.0337	-0.0457
829.2009	0.0046
829.3681	0.1125
829.5352	-0.2241
829.7024	0.1265
829.8695	-0.0252
830.0366	0.1804
830.2037	0.0369
830.3707	0.0819
830.5378	0.0121
830.7048	-0.0517
830.8718	0.0095
831.0388	0.2357
831.2057	0.3184
831.3727	0.1015
831.5396	0.3247
831.7065	-0.6814
831.8734	0.9174
832.0402	0.1713
832.2071	-0
832.3739	0.3098
832.5407	-1.5648
832.7075	-0.2566
832.8742	1.092
833.041	0.3302
833.2077	0.356
833.3744	0.1989
833.541	0.1622
833.7077	-0.0233
833.8743	-0.0198
834.0409	0.0829
834.2075	0.1721
834.3741	-0.088
834.5407	0.1823
834.7072	0.207
834.8737	0.0479
835.0402	0.0704
835.2067	0.0146
835.3731	-0.1167
835.5395	0.2681
835.706	0.0562
835.8723	0.131
836.0387	0.2812
836.2051	0.2755
836.3714	-0
836.5377	0.5218
836.704	0.229
836.8703	-0.0554
837.0365	-0.1777
837.2027	1.5858
837.3689	0.5273
837.5351	0.9262
837.7013	0.3086
837.8674	0.5746
838.0335	-0.0575
838.1997	-0.2665
838.3657	0.2272
838.5318	0.5662
838.6978	-0
838.8639	0.0538
839.0299	0.1461
839.1958	0.116
839.3618	-0.0238
839.5277	0.179
839.6937	0.0232
839.8596	-0.0855
840.0254	-0.129
840.1913	-0.1461
840.3571	0.0548
840.523	-0
840.6888	-0.0051
840.8545	0.0362
841.0203	0.2449
841.186	-0.1039
841.3517	0.0407
841.5174	0.2597
841.6831	0.0281
841.8488	0.3619
842.0144	0.0426
842.18	0.616
842.3456	0.7166
842.5112	-0
842.6767	0.3288
842.8422	0.3511
843.0077	0.1968
843.1732	-0.1973
843.3387	0.325
843.5042	-0
843.6696	0.3621
843.835	0.1693
844.0004	-0.2366
844.1657	0.0483
844.3311	0.0047
844.4964	-0.7236
844.6617	0.0726
844.827	1.7709
844.9923	0.5471
845.1575	0.5354
845.3227	-0.3326
845.4879	-0.1939
845.6531	0.4895
845.8183	0.2556
845.9834	-0
846.1485	0.3854
846.3136	0.1873
846.4787	-0
846.6438	0.2478
846.8088	-0
846.9738	-0
847.1388	0.7508
847.3038	0.0229
847.4687	0.4438
847.6337	0.0069
847.7986	0.1547
847.9635	-0.2268
848.1284	-0
848.2932	-0
848.458	-0
848.6228	-0
848.7876	0.3695
848.9524	-0
849.1172	-1.5648
849.2819	-0
849.4466	-0
849.6113	1.3458
849.7759	-0
849.9406	0.078
850.1052	-0
850.2698	-0
850.4344	-0.2141
850.599	0.5256
850.7635	0.18
850.928	0.0099
851.0925	0.2545
851.257	-0
851.4215	1.3342
851.5859	-0.0258
851.7503	-0
851.9147	-0
852.0791	-0
852.2434	0.5134
852.4078	-0.2527
852.5721	-0
852.7364	-0.075
852.9007	0.3258
853.0649	1.1592
853.2291	0.4802
853.3934	-0
853.5575	-0.0726
853.7217	0.2726
853.8859	-0
854.05	-0.5502
854.2141	-0
854.3782	0.0772
854.5423	-0
854.7063	1.517
854.8703	0.3384
855.0343	0.0281
855.1983	0.7426
855.3623	-0.0152
855.5262	0.0514
855.6901	0.1698
855.854	0.2392
856.0179	0.6333
856.1818	-0
856.3456	-0
856.5094	-0
856.6732	0.1742
856.837	-0.9384
857.0008	-0
857.1645	-0.0389
857.3282	-0.5387
857.4919	0.1836
857.6556	-0.6147
857.8192	0.0018
857.9828	-0.3189
858.1465	-0.0352
858.31	0.0685
858.4736	-0.4384
858.6372	0.1415
858.8007	-0.155
858.9642	0.3813
859.1277	0.3803
859.2911	-0.5268
859.4546	-1.0414
859.618	0.4881
859.7814	-0.1679
859.9448	-0
860.1081	-0.1859
860.2715	-0
860.4348	-0
860.5981	0.2512
860.7614	-0.4601
860.9246	0.7188
861.0879	0.1033
861.2511	-0
861.4143	-0
861.5774	0.5833
861.7406	0.0689
861.9037	-0.9437
862.0668	-0.0726
862.2299	0.1254
862.393	0.3354
862.556	-0.2462
862.7191	-0.0955
862.8821	0.1601
863.0451	0.2244
863.208	-0
863.371	-0.662
863.5339	0.7235
863.6968	-0
863.8597	-0
864.0225	-0
864.1854	0.3611
864.3482	-0
864.511	-0
864.6737	-0.2261
864.8365	0.6013
864.9992	-0
865.1619	0.0338
865.3246	-2.0842
865.4873	0.7286
865.65	-0
865.8126	-0
865.9752	-0.0312
866.1378	0.1969
866.3004	0.4384
866.4629	-1.9777
866.6254	-0
866.7879	-0
866.9504	-0.2274
867.1129	-0
867.2753	0.2668
867.4377	-0.041
867.6001	-0.8352
867.7625	-0.1051
867.9249	0.0438
868.0872	-0
868.2495	-0
868.4118	-0.2631
868.5741	-0.3316
868.7363	-0
868.8986	-0.0995
869.0608	-0
869.223	-0.108
869.3851	-0.3225
869.5473	0.1548
869.7094	0.5582
869.8715	-0
870.0336	0.1125
870.1957	0.1214
870.3577	0.5861
870.5197	0.4588
870.6817	-0.5692
870.8437	-0
871.0057	0.8527
871.1676	0.5968
871.3295	0.3993
871.4914	-0
871.6533	-0.3854
871.8151	0.5723
871.977	0.8094
872.1388	-0
872.3006	-0.5478
872.4623	-0.6787
872.6241	-0
872.7858	-0
872.9475	-0
873.1092	0.5614
873.2709	-0
873.4325	-1.1043
873.5941	-0.7657
873.7557	0.7373
873.9173	-0
874.0789	0.2847
874.2404	-0
874.4019	-0.1472
874.5634	-0
874.7249	-0
874.8863	0.2594
875.0478	0.2977
875.2092	1.4282
875.3706	0.4107
875.5319	-0
875.6933	-0.0513
875.8546	-0.2413
876.0159	0.2555
876.1772	-0.6561
876.3385	-0.0963
876.4997	0.3406
876.6609	-0
876.8221	-0
876.9833	0.3691
877.1445	0.5751
877.3056	-0
877.4667	-1.0639
877.6278	-0
877.7889	-0.5835
877.9499	0.1253
878.111	-0.1867
878.272	-0.1381
878.433	-0
878.5939	0.2966
878.7549	-0
878.9158	-0.3086
879.0767	0.5511
879.2376	-0
879.3984	-0
879.5593	0.9111
879.7201	-0
879.8809	-0
880.0417	-0.1193
880.2024	0.4122
880.3632	-0.6121
880.5239	-0
880.6846	-0.3316
880.8452	-0.0624
881.0059	-0
881.1665	-0.1722
881.3271	0.3029
881.4877	0.2122
881.6483	-1.2213
881.8088	-0
881.9693	-0.8734
882.1298	-0.8734
882.2903	-0.8734
